# pn-170911/CsIIA-25-CsIIA-1280-1959.psd
# Power spectrum* (dif=0,1,2) (really just |FT|^2)
# NOTE: only the first half! (symmetric)
# weeks: 1280-1959
# 439 clock-days, 112 excluded
# PSD: 1441
50200.2 2.01052 0.0568113
3.10673e+06 50.4127 0.0290443
1.73386e+07 339.644 0.0366746
3.13454e+06 115.782 0.0344698
2.50011e+06 178.255 0.0424854
1.03729e+06 112.603 0.0401292
852167 123.806 0.0503632
562864 111.662 0.0528008
430454 105.963 0.0551557
324470 107.869 0.0692895
274842 114.959 0.088429
218738 108.715 0.0854662
172416 100.25 0.100175
170478 114.53 0.12296
129645 100.882 0.11845
121417 108.443 0.143151
104362 108.402 0.161924
88959.2 102.515 0.17022
84589.1 110.128 0.202076
75036.1 108.725 0.213282
68296 110.945 0.238192
63999.1 110.701 0.260607
53401.2 107.329 0.277478
48931.1 109.97 0.30146
47702.9 108.062 0.323895
39272.1 102.836 0.333989
35764.2 98.3876 0.349169
38319.6 114.342 0.424296
37559.6 115.289 0.452463
30727.6 103.234 0.439946
27817.4 102.61 0.471424
27418.1 105.235 0.504112
26521 107.537 0.544586
26079.1 111.396 0.601895
23931.5 111.919 0.642981
22058.1 106.787 0.672182
20597.8 108.635 0.702772
18970.8 99.7848 0.673002
18710.6 111.134 0.791872
18379.5 112.879 0.848937
19013.9 117.714 0.915342
15908 108.17 0.900082
16373.3 117.731 1.02764
13166.5 103.227 0.93977
14225.6 105.638 1.00056
13548.6 110.588 1.11409
12937.5 111.588 1.1511
10495.7 92.6087 1.02388
10508.8 99.8394 1.11416
11220.1 109.919 1.27165
12014.5 124.094 1.51247
9713.49 100.961 1.25677
9394.7 97.5882 1.2745
9588.26 104.452 1.38898
9577.01 117.713 1.66477
8161.7 101.793 1.51758
8534.21 108.388 1.65905
7706.78 104.813 1.65931
8672.83 114.309 1.85017
7480.84 104.434 1.7621
7398.3 102.617 1.80766
6820.15 102.212 1.84223
6646.06 105.111 1.91639
6360.29 102.321 1.97289
6602.48 106.204 2.07526
6044.59 103.426 2.12164
6212.9 107.706 2.28677
6178.57 108.342 2.35859
6318.77 113.094 2.49514
5699.21 105.188 2.41872
5143.83 105.562 2.49718
4844.35 94.4115 2.28708
5300.21 105.79 2.62442
5162.57 107.422 2.75566
4612.64 103.566 2.71925
4708.95 102.651 2.78742
4700.97 110.183 2.97938
4514.86 105.502 3.00559
4267.07 103.447 3.0157
4283.54 103.336 3.08344
3970.58 102.17 3.10665
4070.54 109.681 3.42431
3908.2 105.503 3.40169
3588.87 98.7463 3.23528
4018.2 110.358 3.6592
3574.89 101.336 3.48345
3332.9 97.6917 3.45966
3511.43 104.317 3.72558
3357.53 98.6761 3.69856
3245.42 106.105 3.98848
3234.23 100.534 3.86661
3227.03 107.667 4.28921
2834.79 96.764 3.8966
2985.17 107.523 4.36664
2886.91 97.9752 4.12377
2865.11 100.721 4.32934
2763.03 101.973 4.4452
2789.46 108.573 4.80903
2775.69 102.563 4.73938
2374.72 93.4385 4.33517
2607.14 100.046 4.74867
2558.78 108.517 5.27833
2390.46 95.1221 4.68056
2364.63 100.531 5.14193
2547.18 109.904 5.6351
2386.77 103.762 5.35667
2166.03 99.5856 5.37546
2300.05 101.277 5.56253
2246.67 108.229 6.00735
2171.04 107.271 6.10884
2096.88 100.435 5.83944
2086.85 99.8781 5.83287
2102.8 101.656 6.01546
1974.8 100.962 6.21545
2001.47 99.6422 6.1176
2067.4 109.296 6.79166
1892.1 97.5908 6.21763
1819.52 99.6896 6.44589
1775.19 99.6264 6.71874
1806.02 104.633 7.02176
1829.05 102.64 6.95576
1827.44 105.133 7.31231
1676.73 101.006 7.1615
1695.74 102.33 7.38826
1670.56 99.6328 7.19854
1566.94 90.8514 6.65793
1612.98 101.029 7.52282
1585.64 100.328 7.70227
1573.73 105.085 8.14523
1395.74 96.3688 7.50281
1426.61 90.6598 7.23171
1485.39 99.2518 8.15053
1315.07 87.6306 7.20505
1428.07 103.986 8.78247
1351.57 98.9272 8.38507
1437.2 100.267 8.64255
1449.99 104.778 9.17509
1335.32 99.726 8.74372
1343.12 97.4249 8.8339
1260.67 95.5556 8.75225
1243.37 93.1161 8.63306
1283.35 102.586 9.72735
1148.63 90.5349 8.70398
1315.45 103.839 10.1517
1117.11 95.4188 9.23284
1108.3 90.0093 8.9979
1182.36 93.0838 9.37594
1052.57 88.1249 9.04579
1151.17 98.2707 10.1215
1119.19 97.1307 10.1852
1095 94.9468 10.0336
1058.01 98.1828 10.6648
1074.81 99.0871 10.7918
1042.88 94.8886 10.5396
981.289 92.8697 10.2882
941.125 89.7906 10.2357
971.673 90.9877 10.4229
943.124 92.4451 10.8476
1018.65 95.9107 11.2771
878.925 84.2582 10.0767
924.494 89.8912 10.952
1002.23 98.3008 12.0335
955.39 97.7454 12.2599
932.651 94.6769 11.8261
905.423 95.3749 11.9879
850.791 91.8401 11.9271
886.57 96.4343 12.3398
765.722 86.5211 11.5878
914.137 98.28 12.894
819.256 89.4026 11.8401
742.864 87.1941 11.9168
773.675 87.7435 12.0619
847.181 99.139 13.8918
792.492 91.1881 12.8126
799.891 95.5456 13.7329
772.909 87.5568 12.5907
745.526 88.1003 12.8389
804.249 99.3031 14.6888
688.468 86.0161 12.8043
706.62 91.2339 13.7738
736.443 86.9699 13.2433
709.003 86.3641 13.2419
719.71 92.4388 14.3002
756.701 98.1485 15.4581
692.909 88.1797 14.0747
688.64 94.5574 15.5459
691.785 94.8639 15.1495
681.229 89.9541 14.8109
633.411 91.9673 15.2837
625.021 86.9319 14.8147
664.751 88.0204 14.8006
563.935 79.2855 13.7144
611.394 86.9057 15.1288
574.507 83.8183 14.4856
601.571 85.164 14.9726
636.67 90.1691 16.113
605.18 86.0709 15.4597
527.147 79.7105 14.5587
607.725 90.7122 16.8023
578.617 85.1572 16.0355
514.354 78.7827 14.7134
613.059 97.147 18.2981
521.586 80.5308 15.4192
600.577 91.804 17.6785
521.331 79.5551 15.5752
539.168 83.4133 16.244
524.81 85.7918 17.0454
488.458 80.7371 16.2236
502.885 78.0717 15.9522
514.91 84.9993 17.3034
492.644 83.1697 17.3534
521.981 86.2012 17.3894
496.602 90.4817 18.8963
450.951 82.304 17.59
482.056 83.5168 18.0531
495.969 86.5787 18.7847
466.806 78.8219 16.8473
474.348 78.4319 17.0868
428.735 76.3662 16.9644
459.962 78.5088 17.625
428.121 85.1959 19.3769
439.408 81.0245 18.6688
453.82 80.6536 18.5375
416.29 81.3928 18.8694
422.461 78.379 18.4422
428.844 79.86 18.6557
435.206 87.7013 21.1365
424.937 82.9696 20.1553
391.339 76.4167 18.6615
420.579 80.8025 19.8035
427.216 85.6273 21.2921
413.24 82.7583 20.3409
390.337 76.4414 19.2047
395.787 81.6157 20.4417
403.667 77.1896 19.9433
399.376 82.9634 21.5922
415.393 85.8067 22.1343
413.297 82.7966 21.455
381.177 82.7307 22.0113
371.439 79.8021 21.3752
370.018 79.2813 21.681
387.588 81.2524 21.461
351.304 75.436 20.6834
344.819 73.9044 20.1455
341.411 72.5475 20.1465
350.705 73.6282 20.9329
384.661 85.3755 23.1659
360.086 81.8514 23.5739
354.779 79.7785 22.9315
372.56 80.829 23.1419
356.279 77.9399 22.4822
329.132 72.5622 21.4335
323.621 78.2245 22.9538
306.657 68.7726 20.608
318.68 74.592 22.0434
336.836 78.6252 23.8668
313.638 79.1473 24.0553
306.487 72.7057 22.2835
328.552 81.636 25.1114
278.863 71.4203 22.5762
302.093 75.4347 23.7944
301.262 75.1937 24.0267
286.799 71.3453 22.316
290.205 72.8381 23.7013
306.532 76.5924 24.4734
312.247 77.846 25.3989
277.938 73.1323 23.9055
305.042 75.055 24.3107
281.624 77.3086 26.1376
279.302 74.9203 25.0398
262.542 70.9127 24.0093
296.564 75.6478 25.1389
262.244 71.0678 24.7665
263.05 69.2638 23.8773
243.063 69.2442 24.2704
258.166 69.3499 24.1994
250.841 68.8067 24.7263
261.076 71.7449 24.844
264.347 73.2978 26.0877
248.156 71.2606 25.7299
256.412 75.8702 27.4594
260.94 71.2885 25.5782
239.662 70.6099 26.8737
247.942 72.3692 26.5578
267.019 75.5272 27.2545
250.752 73.0012 27.9794
245.061 73.3074 27.8239
238.146 71.648 27.3539
244.079 70.2963 26.743
241.255 72.7454 27.2909
232.875 69.4048 27.1594
227.518 65.9815 26.0992
216.72 65.7037 25.506
237.045 71.8937 28.29
218.972 68.6271 27.7549
228.448 69.6319 27.6552
227.399 71.9089 28.7188
211.146 65.952 27.3107
227.101 69.9486 27.9543
227.639 72.8655 29.9619
215.386 68.2323 27.9335
227.462 72.8884 30.1691
219.773 72.4325 30.4255
230.967 72.0255 29.4674
211.445 69.3601 29.7389
216.851 73.6489 31.3845
205.232 68.4014 28.9658
215.391 70.4697 31.3541
189.941 64.5962 27.9575
198.392 66.0041 28.4844
195.646 64.1157 29.0239
187.984 62.2796 27.6191
192.136 69.1804 31.5216
191.303 63.7531 28.0849
178.632 63.27 28.6273
193.639 66.2501 29.1601
199.337 70.237 32.055
183.297 65.6408 30.4778
183.508 65.9091 30.9215
177.785 63.3019 28.9113
166.169 59.6822 27.447
168.211 63.5286 30.2918
182.998 65.2254 31.1095
167.141 63.8411 30.4159
187.599 70.6523 33.9642
175.449 63.9513 30.9233
170.2 61.08 29.2765
170.736 63.3287 31.199
165.704 60.3611 30.0361
169.308 63.4988 31.2369
167.194 62.158 30.5528
165.683 66.2293 32.34
161.511 60.6177 30.7055
180.071 70.9443 36.2158
165.19 59.3822 29.7794
161.008 65.1687 34.0814
162.966 63.0931 33.126
163.65 63.1388 32.4027
151.495 57.9284 29.7294
156.118 64.834 34.4851
169.877 64.6127 33.536
158.161 63.1234 33.2041
148.59 58.5946 30.4886
140.547 60.6985 32.4918
150.187 62.2892 33.2975
154.465 59.5035 31.7984
150.234 56.9588 30.8491
144.904 59.7035 33.2002
157.174 60.1958 32.9832
158.26 68.1574 37.6778
151.29 61.1481 33.9281
161.888 68.3968 38.3518
149.392 63.812 36.0986
142.315 62.7671 35.6909
140.105 58.283 33.4848
137.845 58.3519 33.3915
139.473 60.715 34.2664
138.866 60.4712 35.1954
149.69 61.7459 35.0265
136.649 60.1466 34.9114
127.999 57.2946 34.1356
136.549 56.9725 33.2546
143.18 65.9743 38.503
132.021 59.5589 35.9776
133.259 56.3705 34.2284
138.044 61.0431 36.994
135.16 59.7864 35.9879
128.2 57.4901 35.5054
135.251 59.1967 34.9828
125.377 56.4257 34.4282
122.513 57.1875 34.7955
122.242 59.2434 37.4307
128.019 53.6991 33.686
119.887 55.7244 34.4074
111.187 52.0295 32.972
127.657 61.8506 38.8291
117.763 56.884 36.6412
112.834 51.5218 33.4249
117.276 56.2806 36.3593
121.104 57.3064 36.6323
116.577 54.0862 35.1253
109.922 56.73 38.2027
124.104 60.2616 39.328
119.506 57.7872 37.7256
104.753 52.7795 36.0154
119.913 56.9294 37.8748
117.932 54.458 35.5955
107.692 51.1408 33.6238
116.234 56.8774 38.1745
115.794 58.4461 39.8831
110.236 58.5883 39.7185
102.355 50.1945 34.7256
111.053 55.5043 38.7901
98.8346 49.4228 34.7447
115.418 56.2699 37.4456
108.61 56.6898 40.1644
105.65 56.5864 39.6716
101.964 52.5789 36.8864
101.69 51.0525 36.8267
112.306 59.2512 41.0719
98.0819 53.5449 38.4056
103.159 54.0357 38.9415
106.873 55.0173 39.6323
108.574 56.5938 40.7231
105.412 52.9748 39.5445
102.46 54.4248 39.433
95.3927 51.1691 37.1595
101.189 55.9937 41.9673
106.482 58.3672 43.1021
99.5433 53.7701 40.5705
99.8796 54.0831 41.334
101.401 52.6971 38.3824
90.0384 50.8218 38.2693
93.8016 49.3443 36.6336
101.654 56.248 42.5952
98.5704 53.1981 39.5797
88.093 46.8776 37.3019
90.98 53.4438 41.0878
86.8493 50.2434 39.8076
90.727 53.3051 41.4086
85.2104 45.7377 35.7156
88.8907 50.8448 40.2693
90.0842 51.8037 41.9464
94.1424 55.0867 42.3855
87.6078 49.6994 40.5322
91.5908 52.4394 41.6306
89.9595 47.4055 36.9715
85.7049 50.3095 40.5934
84.9396 51.0119 41.8769
81.4835 49.6421 40.7741
84.7487 49.7804 41.2018
80.8832 47.4436 38.6223
83.3018 49.7565 41.4168
88.9443 51.9256 43.0649
81.849 48.1413 39.8439
88.9166 53.0168 43.6211
83.1501 51.3621 42.5486
82.2578 47.643 39.137
79.4757 51.7349 44.6987
81.199 49.4147 40.6956
79.2191 46.2069 39.3952
79.9592 50.4451 43.6906
78.2966 49.5401 43.8198
80.308 48.436 41.5338
76.9549 45.6898 39.8461
77.1603 47.465 42.1151
79.4074 48.9828 42.3838
75.0884 46.3769 40.3037
75.853 49.747 43.4737
69.2244 44.1088 39.4143
67.6146 44.4744 39.8343
73.5888 46.1482 40.2054
78.8486 48.5451 42.5053
73.706 49.2076 45.7082
77.1564 47.8058 43.5979
70.0818 45.291 40.5353
74.7318 45.7492 41.6255
67.611 43.3546 40.0797
73.4242 47.4835 43.5764
75.6277 46.9382 42.6716
68.5698 46.5726 43.417
68.0509 45.8576 42.5908
69.4078 43.2492 38.8071
66.1578 46.1931 43.3535
68.9315 46.3341 43.6941
68.78 47.5048 45.857
69.3011 45.1466 42.6396
66.858 44.2587 42.505
71.4845 45.6427 43.5571
65.2323 42.748 40.8158
69.7394 44.6811 42.9542
61.5274 42.2487 40.8509
69.3678 48.0876 46.709
67.8337 45.351 43.2524
68.2146 45.1783 44.1194
62.2938 41.5031 40.2913
63.5527 44.0696 43.3763
67.0146 44.7891 45.4743
68.0056 45.2769 43.6416
66.4738 47.6236 47.9748
67.7241 46.2361 48.2789
66.2712 43.5821 43.0285
62.3984 41.9959 40.9541
62.5107 42.8451 42.5292
59.0305 44.4841 45.1587
58.1748 38.9608 40.181
59.8585 41.5219 42.6532
58.6887 41.0134 43.1281
59.7487 41.2095 43.414
64.1287 41.8672 42.7644
58.4683 41.8439 43.1549
59.3055 41.2498 42.4705
53.4254 37.0791 39.5311
60.328 41.1044 42.3547
61.5386 46.1809 48.262
61.1637 46.4734 48.8366
58.912 42.3381 46.0287
61.4694 44.5348 45.6304
55.5818 41.4531 44.5965
56.8374 41.3166 43.819
56.2042 39.9658 44.2751
55.6789 41.4582 45.4067
62.4713 44.8594 47.522
59.3641 40.2416 43.5846
55.0448 39.0798 42.6911
56.7025 41.8069 45.8508
57.761 42.8261 45.5166
54.8547 41.2903 47.0937
56.1888 42.06 46.1589
56.112 41.9384 46.269
53.5482 40.3168 45.2836
53.1537 40.5808 44.3189
54.9596 42.6722 48.9576
53.8533 38.8471 43.8127
56.3741 40.503 45.329
50.7671 38.561 42.668
50.4608 40.6352 45.6784
55.8198 39.893 46.2418
52.4609 38.8976 45.5728
51.3636 37.8574 41.5799
50.0108 35.7201 42.0642
48.6779 41.6897 48.7535
51.7007 38.5649 46.2442
52.0988 42.0939 48.3604
49.5909 36.3484 42.9562
49.0578 39.7435 46.0597
51.0149 38.9899 47.799
48.1382 37.3522 44.3727
49.572 37.5689 43.4271
46.6701 37.5429 44.8979
49.5447 39.1302 45.863
52.1652 40.0452 45.8611
48.0319 40.1111 50.3743
44.1868 33.6515 41.5148
49.4795 36.9596 42.7813
49.9604 40.871 48.9914
48.9854 36.9209 46.0467
44.8724 36.8739 44.9223
45.5488 37.9824 45.3674
44.1648 37.8239 46.9969
44.803 36.122 44.3432
43.6813 36.2225 45.0468
41.3046 32.9056 42.7048
44.2594 38.4718 48.7766
47.2505 36.8655 44.7935
45.1619 37.1055 47.5314
46.0453 37.3818 46.926
47.3165 37.658 46.4595
44.4368 36.7035 46.4874
41.6659 34.1425 44.6335
45.62 38.776 48.5438
42.5887 38.6717 48.8386
44.1462 36.2471 47.5362
44.5283 37.496 48.1261
44.5859 36.4969 44.3898
40.8603 35.9453 47.8959
39.4027 37.042 48.2457
44.6694 35.5118 45.6046
41.7504 34.1502 44.781
40.1412 34.4746 45.0714
41.3181 34.1182 47.2125
42.2071 33.6913 44.394
43.7329 35.0043 46.6444
40.9353 37.8162 50.9155
43.443 38.3325 48.859
40.2229 36.2871 50.5975
43.8965 38.1484 48.6949
38.5543 32.194 44.3769
40.6344 34.2643 45.3716
41.398 35.5964 48.1726
42.31 36.2496 48.145
41.9417 33.6554 44.7409
40.5372 35.581 50.9001
38.2545 32.4964 43.9791
40.0951 36.7009 50.5826
39.6248 32.0969 44.3655
40.3005 37.5324 52.7913
41.4663 33.1 44.496
38.9985 36.7182 51.2645
38.8995 32.9217 47.1238
35.8635 35.244 49.5053
39.2645 34.873 48.1815
40.8292 35.4486 50.0697
39.919 37.3742 51.9317
38.4832 33.8919 48.5698
37.422 35.2086 49.9802
39.3182 35.9037 50.0059
37.9039 32.6985 46.5001
39.4258 37.1731 54.1761
36.9956 31.9271 45.8513
35.86 35.3025 52.7518
40.6281 36.9775 51.6729
37.8374 33.6887 48.373
33.5102 32.2921 48.1081
35.656 31.1077 46.1881
36.2176 34.0272 51.0262
35.1701 31.3663 46.5337
38.479 33.7534 46.8026
34.193 31.9646 49.81
38.0658 32.9565 46.3564
33.2572 30.8226 46.9523
35.9893 33.3241 47.2445
31.925 29.7751 44.9064
35.2749 32.6897 49.2263
35.5431 31.8398 47.3302
33.8749 31.7266 47.1838
34.5086 31.7224 48.7047
34.4899 30.9996 47.6355
35.3472 33.1615 50.509
32.239 31.3785 48.9344
37.1885 34.8131 50.7568
35.3386 34.2897 52.7146
35.1 34.412 51.7255
33.4807 31.5363 49.5723
31.232 32.5936 51.6684
36.8651 33.9838 51.4856
33.913 30.991 47.2013
34.1684 33.5787 52.5136
32.5999 30.0603 46.7535
32.7859 30.8356 49.6201
33.0849 32.6601 50.0903
32.1966 28.8463 47.4908
33.3152 28.3146 45.8202
34.289 31.8304 50.2654
32.6224 31.1291 48.5239
31.7118 30.5254 47.8688
32.8615 31.1548 48.4536
30.7537 30.6673 48.0336
30.7683 29.5033 46.8729
30.7851 30.9781 50.1085
31.6574 30.2729 49.4027
31.803 31.1319 48.1741
31.593 30.5693 50.9077
31.3192 29.0525 49.1375
30.8792 29.9892 47.3012
30.8259 30.0406 46.7784
30.8219 29.9134 50.2005
28.1966 27.7129 46.6726
32.2387 30.1633 47.802
27.8356 27.4686 44.8797
31.4869 32.1606 53.7479
28.7902 29.9845 50.2874
30.9989 31.3428 51.2109
29.128 29.1372 48.6584
30.9935 29.2343 49.0579
28.2359 27.4874 46.0511
29.0683 27.9576 49.3602
31.9389 30.0034 49.3915
29.7146 28.0655 48.9408
28.3885 28.5791 48.0273
29.2689 28.5497 46.6509
29.5741 31.4055 54.3942
29.0554 28.4636 46.1963
28.9533 28.3446 46.6353
28.8346 29.0178 49.1301
25.5722 27.253 50.4066
30.392 27.5716 44.1689
26.3231 25.3965 45.6986
27.4153 27.9277 50.0154
29.3373 28.709 48.6858
28.1669 29.1289 50.4426
26.9691 27.3957 47.3002
25.7459 27.3426 49.8437
28.7084 28.3523 49.0476
28.4779 28.8664 47.8663
26.1513 26.1158 45.9275
27.0183 27.7593 48.1756
25.8495 26.4411 49.0032
24.8771 28.6797 49.9116
27.993 28.8717 52.8564
28.5536 28.5024 50.7633
24.3252 25.7887 47.4659
27.3067 27.9517 48.8762
25.8206 27.0245 47.5208
24.6444 26.9139 49.9414
25.3765 27.9957 48.5336
24.7898 24.927 47.1658
26.1792 28.0731 49.6156
24.6981 27.7645 50.718
24.3385 27.9145 50.8581
27.3541 27.2071 49.2408
24.4569 23.7506 45.3195
25.0659 26.7974 49.8752
27.4168 28.1431 49.6444
25.7238 26.148 46.7408
24.6103 26.4942 49.8925
25.3297 27.467 52.0074
25.1278 25.6535 47.4709
23.7272 24.5889 46.3264
24.8794 26.2847 51.932
26.0014 27.8932 50.7077
25.7318 28.4159 50.6997
25.3325 27.7419 52.889
24.5639 28.0505 52.55
23.3942 25.1244 47.8272
24.7099 25.4486 46.4784
23.633 25.9822 52.4445
27.4036 27.0533 50.2638
24.3167 27.3178 50.1827
23.5333 25.0549 48.7555
24.1742 26.9372 48.4928
23.4312 25.9762 51.4202
22.3829 24.1032 46.8808
25.6641 28.1683 53.1012
23.013 23.5019 47.6456
23.394 22.6913 44.0572
23.9741 25.3574 49.4331
24.4965 26.1332 50.138
23.3791 25.578 47.0656
22.1775 23.4016 48.9413
23.4582 26.0352 50.5378
23.6251 23.7823 45.3264
24.8774 28.562 56.1531
23.5619 23.6663 46.4695
21.5319 24.5686 48.9839
21.8943 24.0332 49.4384
24.6603 28.2259 52.3435
22.4384 22.9257 44.1429
22.2718 24.6334 51.184
22.0685 24.2818 45.8469
21.0247 22.1921 48.184
23.4259 24.895 49.3204
23.4478 25.6092 50.5603
22.3713 23.7479 47.353
21.5281 23.4185 49.6438
21.4431 23.8176 46.4711
21.5318 22.7978 46.0893
19.3161 22.5709 48.9851
22.387 23.4664 46.8542
24.1211 25.7633 53.1527
20.9033 23.8502 47.5263
21.4457 26.0446 53.3523
21.9014 23.5342 47.4974
21.309 24.3803 47.7543
21.1884 24.351 51.1922
21.1798 24.031 50.3826
21.9835 22.9838 45.1566
20.1 22.8406 49.3949
21.2816 24.0675 48.2625
21.3227 23.7264 52.9515
21.1626 23.3502 45.9131
20.4217 23.8322 51.4409
22.0805 23.7205 49.7352
19.6467 21.4642 44.6731
20.7652 25.2286 51.9489
20.3488 20.5395 45.6294
20.3291 21.0783 44.9243
19.1863 22.5595 46.7761
20.7566 22.7577 47.396
19.606 21.4115 47.6576
20.4236 23.2583 47.8066
19.8131 23.8073 50.5236
18.4875 20.271 42.3346
18.8605 23.2207 49.5097
20.463 23.1397 49.4702
20.1787 22.0048 46.8003
18.2008 22.3603 47.2305
18.6178 22.3766 49.4063
18.3641 21.4364 46.7883
19.3378 21.5566 45.8075
19.037 21.9448 48.2431
20.0037 21.7558 47.9101
18.7841 20.8965 46.7095
18.4306 22.443 49.1677
18.2788 21.3786 46.6222
18.977 22.2237 49.0518
19.3634 21.7704 47.1976
19.1624 23.7796 53.3051
19.832 21.3703 46.1984
19.9229 22.2484 50.0091
19.592 21.6912 46.9611
18.5898 22.0376 49.977
18.7491 21.4074 46.6646
18.2058 21.553 49.3117
18.0028 20.0127 43.6363
18.3212 20.9494 48.7727
19.4161 21.5129 47.9672
18.7706 21.0191 48.2898
19.1504 20.1595 42.6648
18.0816 21.9107 49.8295
18.5168 22.5409 49.5581
19.1906 21.0459 51.5603
19.4756 23.2099 51.3486
19.0875 23.1475 49.346
17.8437 20.4414 49.2033
18.6596 20.3273 47.4926
17.6217 20.347 44.5417
17.3834 20.989 48.4232
16.8935 20.7574 46.4484
17.6148 19.2406 45.6157
18.285 23.1379 53.5813
17.3031 21.6977 51.5848
17.3413 20.6815 45.6554
17.3125 19.432 42.8365
17.1999 20.8528 49.9653
18.9328 23.0553 50.5466
17.3444 18.7977 44.6691
17.2085 19.8052 45.2249
16.8044 21.0204 50.7584
17.7829 19.4563 44.1693
16.4201 19.1486 44.9275
17.1858 21.6887 52.3111
18.0499 19.5793 47.0032
17.5824 21.0124 47.3469
16.1117 19.6657 51.0035
17.1485 20.0106 45.905
17.7607 21.2682 51.9698
17.9168 21.4019 50.1559
15.898 20.0153 49.9316
18.2829 20.3972 46.0607
16.4748 18.4634 43.9647
15.8553 18.8894 47.1871
16.9233 20.9694 48.466
15.9596 19.5925 46.5045
16.419 19.3605 46.3828
15.7054 19.8236 48.9093
16.7115 19.4208 46.585
16.084 17.9218 41.1234
15.9767 20.0906 48.5982
17.4253 21.407 51.1249
15.2716 18.7262 45.6558
15.2774 18.8749 45.0508
15.6817 18.2133 47.3633
16.6294 18.7267 46.2536
16.4495 19.655 46.8462
16.302 19.6067 47.4579
16.0474 17.8118 44.6183
16.1036 19.6093 48.9615
15.9902 18.5774 45.2407
15.4751 17.7459 46.0523
15.9203 19.514 49.0429
16.6573 20.0563 47.1119
16.0448 19.7007 47.7389
15.1755 18.0294 47.6378
15.955 21.0827 49.222
16.0252 18.3321 46.5626
15.3221 19.3546 47.4337
16.3406 19.9035 49.8426
14.759 17.8755 46.5512
15.718 18.032 44.4095
16.0213 20.4365 49.9257
15.3725 18.9641 49.1454
15.1528 18.4133 48.1951
16.2849 18.4496 47.287
15.457 19.3875 45.7857
14.0409 16.7783 45.5362
14.8243 17.2362 42.9554
14.2875 17.6909 45.6335
15.5872 18.2969 47.8985
15.1941 17.9436 46.0546
14.6294 17.8981 46.2186
15.2653 18.6635 46.0026
14.5955 19.5614 50.3699
15.4338 19.0379 52.2554
16.3303 18.6842 45.3102
15.4665 19.6414 51.0713
15.1975 19.8867 51.9157
15.1906 19.3256 48.6441
13.7918 17.9344 46.0254
15.2152 17.924 46.1444
14.6662 17.6949 46.1681
14.9279 18.4104 48.2405
14.9715 18.1643 46.4071
14.842 17.8351 48.3773
14.9152 17.4949 47.1503
14.5356 17.228 42.9616
14.5299 18.2911 48.2373
15.3115 17.9554 42.8439
14.0521 19.7904 53.0622
14.555 18.025 48.4892
13.758 16.3135 38.9599
12.7192 14.5006 41.3408
13.8245 17.5334 46.1532
14.5021 17.3596 46.4358
14.064 16.2565 45.7621
13.6252 17.2718 45.5544
13.6506 19.3924 52.3116
14.0262 15.7809 43.035
13.7893 16.6836 45.3382
14.6129 18.3969 46.441
12.9504 15.4555 43.4876
14.0679 15.6044 42.2951
15.0277 17.8218 48.8222
14.9687 17.8129 46.667
13.5732 17.0995 45.1933
13.7282 17.3857 45.6072
12.9573 16.0878 43.9334
13.562 16.4471 44.4464
13.3038 15.4845 43.645
13.33 17.0905 45.934
13.679 17.3184 48.1303
13.3891 18.038 49.4048
14.4372 16.3308 43.6953
13.8245 16.125 45.0903
12.5925 16.6227 49.6462
14.3693 17.899 48.042
14.2525 17.914 44.301
12.207 15.9541 46.6541
13.6925 16.6779 45.6786
13.6328 17.0295 45.123
12.4741 16.9428 46.4728
13.2197 16.55 45.7114
12.2397 17.1107 49.967
13.2147 16.5399 45.752
14.5537 16.7924 44.7524
13.0176 15.0744 41.4263
13.1892 17.2266 49.5055
11.9584 14.4054 41.4978
12.6517 16.9946 46.8188
13.1662 16.8245 46.5526
13.1509 15.8461 44.5457
12.384 16.2078 44.368
12.9932 16.5608 43.4445
11.3622 15.4252 45.2752
13.044 16.7549 46.0961
12.5923 15.879 47.4854
12.4567 16.2185 42.8108
12.4685 14.7085 43.0545
12.2466 14.5627 39.544
12.8311 17.2647 50.219
13.1731 16.9662 45.5711
12.3215 15.0497 45.0534
13.4637 15.9193 44.8822
12.4702 14.4338 41.4013
12.1512 14.9954 44.3947
13.467 17.4185 48.6766
12.7815 15.4236 43.2083
11.5077 14.5564 42.2648
12.0227 14.5441 45.4357
13.6833 17.3097 48.3871
13.5107 16.3899 43.9933
11.8263 14.7004 42.7056
11.2953 14.2869 42.2254
12.3409 15.2708 44.6162
12.8898 15.4796 42.6574
11.7446 13.9437 42.6099
12.0954 16.2415 46.3152
11.6167 14.8094 45.3337
12.1986 14.9608 42.0066
11.5031 17.0165 48.5109
11.6298 13.6591 38.2363
11.1422 14.7956 46.0723
11.8967 15.7458 45.934
11.541 14.8585 43.8574
12.2928 14.9731 47.1932
12.1898 15.8702 44.6164
12.0681 14.7068 41.8269
11.5735 15.0894 44.344
11.386 15.8325 47.3702
11.3717 14.9161 46.0281
12.0535 15.6582 46.7155
11.8864 14.5946 41.7495
11.6568 14.7963 41.8802
11.6549 14.7421 40.8367
11.3336 13.5298 43.6656
12.0112 14.9199 48.2245
12.7504 15.2234 41.2099
11.6176 13.5839 43.7086
11.7798 14.9516 44.0351
11.5029 14.3322 44.7315
12.4653 15.4466 44.7792
12.2008 15.9653 47.5978
10.79 13.1671 38.2517
11.0621 14.1307 41.6198
10.8237 14.1002 41.3577
11.6229 15.173 45.8003
11.6069 14.4622 46.6662
11.7829 15.1061 44.7859
11.1394 14.3214 45.2365
12.0595 14.2806 40.4951
10.495 13.2625 45.6698
11.2165 14.8705 43.2129
11.3052 13.4978 42.7883
11.4083 15.0823 42.2417
11.0669 12.9744 40.6345
10.775 13.1297 40.1063
11.1909 13.6955 45.1624
11.8467 14.1319 42.4654
11.4416 14.136 42.0236
10.5148 14.3167 42.1448
11.0367 13.7465 41.2763
11.2566 14.7389 45.447
11.7645 14.1933 45.304
12.0853 13.8202 40.9714
10.94 14.1603 43.3931
10.8072 14.0227 43.3822
10.9082 13.0046 41.2785
11.2159 14.3554 40.6991
10.2204 12.6537 37.4493
10.6524 13.5661 43.3717
10.3083 13.2395 43.3278
11.1088 14.4554 43.7603
11.3052 13.7194 42.136
10.7163 13.5369 43.1219
10.8686 13.0567 43.2377
11.3766 13.7613 42.0145
10.4482 13.1176 40.9911
10.2091 13.224 44.5063
11.4775 14.7774 44.4365
10.4688 13.8951 41.181
10.4283 13.177 42.0758
10.601 12.8829 39.2055
10.0461 12.8938 42.1565
10.1269 13.1564 41.7244
10.7523 14.0898 43.4249
11.0466 13.9725 42.9661
10.9371 12.8709 42.5782
10.2488 12.3915 40.7337
10.3562 13.3722 41.9934
10.1256 12.6252 40.7837
10.8662 12.7432 40.9329
10.4219 13.0838 40.1189
10.4083 12.1921 42.1758
10.4932 12.835 41.4169
10.8886 13.6179 44.0724
10.2583 13.2523 39.6401
10.2366 13.3583 44.5035
10.5884 11.9406 35.431
10.1743 13.1434 42.9319
10.7257 13.1203 41.8804
10.8967 12.605 41.8159
10.5859 12.3844 39.392
9.97246 12.935 39.6934
9.95598 13.157 42.4142
9.59491 13.185 45.7398
10.914 14.3421 45.1118
10.6018 13.0072 41.2975
10.0588 12.4049 42.5816
10.7934 13.8012 44.0113
10.552 13.6638 44.2781
10.2706 12.7913 39.0665
10.049 12.5335 40.0773
9.25169 12.4967 40.8107
9.94428 12.656 40.9408
10.3264 12.1362 42.6684
9.87726 12.4503 40.1768
9.95376 12.2854 39.9956
10.1826 12.8716 42.5719
9.44362 11.9264 40.8099
10.1288 12.4239 39.4539
9.31312 11.4853 36.7287
9.89354 12.6367 39.8408
9.59603 12.8041 40.0974
9.76627 11.7263 41.1098
8.97331 12.8005 39.5526
9.65255 11.5725 37.9758
9.51368 12.5615 41.7084
10.2679 13.1153 41.2266
9.05839 12.1248 40.9171
9.85581 11.7189 39.2817
9.74134 12.024 41.5754
9.63745 11.4386 37.3472
9.11462 12.3408 44.0022
10.3641 11.7732 40.4174
10.0385 12.8604 39.1341
9.75471 12.1224 40.959
9.38556 11.1818 40.0656
9.51806 13.0454 40.9594
9.79812 12.4752 41.9462
9.51798 12.687 40.289
9.09036 11.1935 43.1041
9.58545 13.3987 39.9152
9.84482 11.6346 39.4516
9.59996 11.6414 40.4585
9.17589 12.1841 40.6786
9.73961 11.4118 37.7534
8.97219 11.9686 37.5365
8.36213 10.9197 37.2856
9.26666 10.5081 37.3349
9.76774 12.7766 42.1382
9.52381 12.1735 42.8812
9.49251 12.019 39.5313
10.053 12.7346 40.2358
8.49045 11.5834 40.2808
9.44177 11.3159 40.4012
9.175 10.9645 37.3111
9.85033 12.5157 43.0851
9.49041 11.2859 39.8319
9.65881 11.7435 37.2511
9.02942 11.3739 37.0194
8.92374 11.8901 41.3611
9.41367 11.9751 39.1386
9.44047 11.0153 39.5303
8.99213 11.3096 40.7178
9.12701 12.5147 42.6412
9.11392 11.3588 38.9117
8.85515 11.1531 38.741
9.36235 10.7856 35.9713
9.36923 11.5764 37.1277
8.35527 10.9721 41.911
9.76049 12.1398 40.8742
8.99291 12.2181 42.695
9.57308 12.0289 39.9625
9.36609 11.4619 38.879
8.84992 11.3164 38.7716
9.48767 12.1114 40.8135
9.55935 10.3857 35.6476
8.95611 11.2556 40.7262
8.33482 11.4501 40.1073
9.35228 11.9975 38.6181
8.44898 11.0951 40.2739
8.7861 11.152 41.2559
9.61761 11.9744 39.9075
8.8686 11.1073 39.2678
9.27906 12.1115 43.9323
9.40892 11.3971 35.5168
8.71902 10.7824 39.376
9.18321 10.9446 39.0523
8.95228 11.6663 39.4605
8.84966 10.6595 36.9688
9.06317 11.6672 41.6264
8.96693 11.8605 42.0121
8.99101 9.98203 35.4745
8.50032 10.7955 37.3771
8.77888 10.5096 37.8479
8.47928 11.2154 36.737
8.66474 10.7473 40.1953
8.82922 11.2187 40.5937
9.08871 11.6042 40.6617
8.96749 11.1914 36.3931
8.63265 9.87343 38.7867
8.35968 10.9503 37.9693
8.58412 10.3354 35.943
8.90398 10.3797 35.3851
8.75529 10.4517 36.4095
8.80309 12.4076 42.598
9.12837 10.5407 40.094
8.21747 11.1187 37.8248
8.85602 10.994 37.6002
8.73853 10.6822 38.6368
8.55201 10.7395 37.9056
8.73069 11.2979 39.1408
8.68337 10.6606 39.8156
8.80219 10.6718 38.9241
8.6713 11.1023 35.3362
8.37017 10.4214 37.1316
8.49418 10.8182 39.6635
8.43141 10.6377 38.2388
9.05698 10.8211 36.8669
8.31618 10.0325 35.6248
8.26311 10.6529 40.7678
8.53008 10.7717 37.0079
8.58149 10.4902 40.1791
8.89391 11.1341 38.5274
8.45057 9.95871 37.2676
8.66551 11.4888 40.1042
8.5229 11.8243 40.2842
8.10834 11.011 40.0089
9.27209 9.90535 39.6199
8.34548 11.8037 40.5792
8.74956 10.5749 39.3884
8.86253 11.5495 40.7219
8.93513 10.7652 40.3228
8.82152 11.3304 41.0798
8.81367 10.9244 34.7365
8.25241 10.6443 39.9655
8.54588 10.8333 38.2133
8.2537 9.82056 40.2187
8.7895 11.1565 39.9145
8.9203 10.99 40.1146
8.68635 11.3684 39.3628
8.31691 10.1029 37.4278
8.54132 10.1997 38.237
8.82578 11.0794 39.8949
8.86898 12.0397 42.2823
8.29393 10.4001 37.1013
7.84759 11.0673 40.6021
8.02916 10.181 35.6198
8.29985 9.9255 39.417
8.16125 10.0627 35.7626
8.04146 9.9738 38.3285
8.38208 11.5794 39.4312
8.64881 10.4156 38.5968
8.3994 10.4168 36.2
8.11131 9.49185 38.2827
8.03454 9.92417 37.7842
8.42182 10.987 39.686
8.38269 10.9448 39.2157
8.11753 10.0827 39.9564
8.56613 10.2096 37.6282
8.6791 10.3398 36.8409
7.91002 10.128 37.1369
7.5532 9.25255 36.7842
8.11748 10.6437 35.5613
8.45271 10.5581 39.2077
8.1511 9.30838 35.8365
8.20195 9.74308 38.019
8.2325 10.0398 38.6464
7.72615 9.84455 33.8559
7.82943 9.37308 36.1896
8.86603 11.0001 40.1992
8.58459 11.0931 39.2056
8.10446 10.26 35.0715
8.02445 10.1087 37.4902
7.86949 9.67047 38.0607
7.89485 10.0831 38.314
8.49733 9.85118 34.9814
8.14972 9.7451 39.0317
8.59006 9.32193 36.3533
8.24221 10.8275 37.5181
8.266 9.32367 35.1839
7.9672 9.70473 37.0726
8.17519 10.0651 34.9388
7.56927 10.1166 35.6461
7.62112 9.92815 38.47
7.91187 9.14043 35.4246
7.7901 10.0196 37.9501
7.64223 10.1481 36.4723
7.85603 9.42484 35.1559
8.38725 9.86312 35.6112
7.606 9.1832 35.1404
7.45601 9.15916 35.7526
8.0468 10.208 35.7935
8.05319 9.33994 35.6024
8.00456 9.46354 34.746
7.74585 10.4657 41.5079
8.15418 9.46665 37.2044
7.91293 9.7774 36.0013
7.55804 9.28157 34.5727
7.13064 9.44902 37.1697
8.05728 9.13893 34.3767
8.11746 9.38715 34.273
7.88516 10.3246 36.8611
7.58903 9.26819 36.7314
7.77325 9.8203 36.8207
7.52499 9.22379 34.9021
7.69761 9.61862 35.188
8.00472 10.0482 36.6301
8.01366 9.26939 36.8908
8.00659 9.68573 37.6863
7.87283 8.90762 31.0778
7.37276 8.59443 34.1879
7.63867 9.81141 35.1361
7.52516 9.29132 36.3171
7.91029 9.3872 36.3126
7.9048 9.34796 34.102
7.98323 9.06106 36.5395
7.51983 9.51001 37.0612
7.64795 9.86937 40.0837
8.36955 10.4913 37.2601
7.79642 10.1477 39.8538
8.09202 8.83894 32.6432
7.72344 9.14659 35.7111
7.81716 9.09565 34.4
7.65174 9.80519 36.6893
7.57492 9.00982 35.039
7.71314 9.87994 38.3184
7.93902 9.33352 35.8215
7.98697 9.11489 32.9674
7.4984 9.69073 37.1168
8.06153 9.54822 38.0501
7.93781 9.60109 35.1597
7.59102 9.20905 34.0677
7.53357 9.43975 36.6452
7.83273 9.60987 35.0283
7.66039 8.91304 35.1036
7.1701 9.11212 33.4368
7.70046 8.83066 36.1127
7.38106 9.36326 35.4388
7.44921 9.10422 36.0933
7.97493 9.27946 34.568
7.58977 9.41819 38.5293
7.7838 9.15088 34.2621
7.22703 9.21114 36.7572
7.66058 9.81734 38.5328
7.85652 9.94473 36.3288
8.19533 9.56236 36.2633
7.42735 8.8644 33.6127
8.11855 9.22176 34.23
7.44181 9.34678 37.5929
7.92064 9.46842 32.3792
7.38847 9.46654 37.3192
7.70663 8.85106 39.2612
7.83121 10.1796 37.2448
7.6552 9.28419 34.9363
6.96886 9.16656 34.7431
7.41728 9.11008 37.0503
7.63544 10.2727 36.2643
7.23694 8.69051 35.7309
7.20694 8.7506 35.2213
7.49131 9.042 33.1824
7.39432 9.07194 37.0297
7.54415 9.47462 36.9954
7.47763 9.7098 34.7827
7.26249 8.64287 33.937
7.50964 8.35951 34.8837
7.08692 9.75218 38.012
7.36446 8.78457 33.7028
7.16936 9.73525 36.9283
7.6582 9.20404 35.3576
7.26066 8.95719 34.2407
7.64998 9.172 35.4773
6.84416 8.59204 34.4284
6.92116 9.10137 35.536
7.62394 8.21672 32.3176
7.63637 8.92189 36.1799
6.97928 8.68782 32.0638
7.24158 8.61614 36.1608
7.34092 9.46487 32.3774
6.8195 8.29826 33.9426
6.91766 8.42728 32.6191
7.23708 9.45844 37.0504
7.63249 8.71271 34.8689
7.01761 9.01706 35.2779
7.30763 8.99047 32.6037
7.03202 9.01081 33.8341
7.10605 7.99991 32.6154
6.8112 8.63129 34.1102
7.28191 9.06827 34.7915
7.13928 7.78667 33.7584
7.63844 8.81057 30.7701
7.00798 8.31051 37.5826
7.79094 9.19106 34.1344
6.9604 8.56763 34.4682
7.37241 8.89207 31.9144
6.96746 9.19728 36.0387
7.35412 8.20547 35.8313
7.68258 8.45571 32.3783
7.08013 8.26488 34.033
7.38541 9.43528 34.8882
6.87206 8.53437 33.2218
7.10044 9.01908 34.1251
7.46151 8.02418 36.9652
7.61822 10.0274 34.9287
7.3983 8.37156 35.595
7.08545 8.88486 34.6713
7.4345 9.22946 36.7526
7.43024 8.9291 36.7548
7.34147 9.15181 31.6347
7.18593 8.03885 31.3365
7.67333 9.07369 37.4901
7.22511 8.70482 33.5192
6.98589 8.31417 31.7319
7.58018 8.67122 33.9213
7.42433 8.23759 34.7702
7.19553 8.63576 34.0636
7.73844 8.7732 35.0494
7.17577 8.68928 34.6578
7.73957 8.71657 33.0351
7.24779 9.70945 37.1386
7.63631 9.24616 33.4468
6.75238 8.28405 34.3215
6.88807 8.15241 33.2112
7.35873 8.14369 34.4667
7.19021 8.76672 33.5316
6.83301 8.91312 35.2526
6.92965 8.62577 34.0109
7.06791 9.11052 34.5634
7.17816 8.53913 35.5459
7.27598 9.29446 36.2593
7.52426 9.04989 37.295
7.17693 8.07791 33.3071
7.36724 9.32569 30.1418
6.61947 7.78333 34.7101
7.7565 8.6468 35.182
7.43647 8.93348 36.7649
7.27468 9.14784 33.817
7.55998 9.14442 39.546
7.89806 9.3801 37.5484
7.5245 9.63551 36.1208
7.37199 9.08289 36.1249
7.35218 8.49359 33.1714
6.7141 8.41051 30.5118
6.90242 7.54372 30.0764
6.90527 8.49689 33.613
6.90212 9.30045 38.6627
7.85589 8.16902 32.9465
7.15369 8.74175 34.4499
7.19275 8.65743 34.6032
7.03966 9.18326 35.744
7.15307 8.91389 35.196
7.15338 8.95728 33.3981
7.30595 8.00089 33.6552
7.0193 8.47848 34.4331
7.68871 8.92607 32.361
6.86009 8.18721 34.2509
7.35265 8.07853 32.4088
6.79198 8.5441 33.6836
7.17118 7.97535 32.6227
6.925 8.37792 31.1936
6.55964 8.45946 37.6014
7.39998 8.78877 33.891
7.0967 9.02979 35.4463
6.82418 8.78874 33.9106
7.03669 9.11954 35.0267
7.79531 7.9139 33.7419
7.28136 8.55296 34.3436
7.50294 7.97677 31.6272
6.81978 9.41063 35.2205
7.16277 8.86742 35.1013
7.00953 8.18496 34.6718
7.00984 8.29599 33.8776
7.49085 8.92225 37.082
7.73758 8.9717 36.2127
7.49115 8.95284 35.8671
7.2219 8.66067 32.7074
7.06692 8.23084 31.5116
6.87187 8.25494 34.9233
6.80199 9.1244 36.2066
7.43646 8.80182 32.2706
7.19112 8.35203 32.3885
7.20246 8.97594 36.3735
7.66534 8.49546 32.8912
7.15823 9.563 38.894
7.63858 8.80331 36.7063
7.22419 8.66488 34.1227
7.22733 8.37996 35.0627
7.06995 8.67092 35.2646
7.37797 8.7281 35.3015
7.35525 8.95031 34.0311
7.20338 8.50614 34.6798
7.46258 8.54719 34.8362
7.26981 9.00445 36.291
7.634 8.21948 32.3576
7.31065 8.3997 32.9219
7.01529 8.9278 34.5078
6.89566 7.87318 34.5338
7.69464 9.39396 38.199
7.41703 8.97372 35.233
6.94993 8.41088 32.7023
6.69113 8.52814 33.4448
7.04701 8.74254 34.7843
7.56773 8.12718 33.6419
7.14336 8.39257 33.5215
7.11803 9.04008 35.5346
7.3935 8.88539 36.8519
7.10607 8.44714 33.3151
7.22015 8.783 34.3202
6.94518 8.41813 35.8839
7.21011 8.99564 37.309
7.22236 10.0816 36.04
7.15643 9.04001 36.612
7.64152 8.99214 35.6153
7.27871 8.62342 35.8946
7.07936 9.45466 36.6331
7.66282 9.20338 36.1843
7.26765 8.85922 36.6639
7.16604 8.75191 34.6939
7.12245 9.76695 37.9481
7.27546 8.80703 34.8851
6.70834 0 0