# pn-170911/CsIIF-65-AMC2-1280-1959.psd
# Power spectrum* (dif=0,1,2) (really just |FT|^2)
# NOTE: only the first half! (symmetric)
# weeks: 1280-1959
# 128 clock-days, 317 excluded
# PSD: 1441
13949 0.470176 0.11352
786374 19.7275 0.177115
1.91997e+06 35.0476 0.158069
910699 35.2706 0.148476
467572 32.8006 0.165906
373324 38.0747 0.148947
234509 35.6958 0.169657
196984 35.8657 0.165805
116233 28.1873 0.165991
103603 32.1256 0.171588
86341.2 29.8956 0.153664
72217.6 33.2542 0.182283
55044.3 29.9053 0.174405
41131.1 29.2939 0.18263
40446 28.3411 0.177267
38609.9 31.4137 0.190642
26578 27.4721 0.200342
30309.4 30.4831 0.19319
26164.6 33.0679 0.242222
25814.1 33.0924 0.21415
21018.8 31.8992 0.233402
21902.3 36.0532 0.228132
16402.6 29.9111 0.206476
14523.2 27.6783 0.229101
13623.9 28.1541 0.234687
14279.5 31.5797 0.243699
11764.1 30.021 0.224628
10714.5 28.969 0.2541
11173.7 33.8522 0.276668
9639.31 31.5896 0.287255
8837.19 32.8985 0.351081
8030.86 32.8931 0.291221
8627.9 30.1986 0.313755
8604.01 33.8026 0.298219
7163.95 30.2499 0.304264
6299.12 28.5382 0.343678
5793.81 31.5281 0.343276
6871.21 34.3202 0.403374
4649.48 27.0607 0.374937
5258.69 30.7612 0.414126
5897.94 38.5082 0.471254
5088.45 31.8682 0.404803
4243.45 28.8797 0.393913
5330.83 34.4481 0.489461
3959.93 27.935 0.412673
4142.65 31.8489 0.465461
3645.42 30.6762 0.48559
4076.98 34.5932 0.493135
3233.21 28.7195 0.500571
3636.72 35.4218 0.575435
3639.21 32.0938 0.559646
2910.11 28.2162 0.431786
3117.35 34.2394 0.516639
2554 28.9571 0.542767
2929.2 31.8353 0.53644
2870.68 34.7081 0.649422
2400.15 30.3043 0.611081
2673.79 31.5506 0.688728
2565.48 34.8493 0.763935
2404.76 33.2687 0.748152
2304.59 35.1812 0.811151
2385.57 32.24 0.65583
1878.7 26.5531 0.607283
2320.51 34.751 0.823243
2134.93 32.1068 0.762243
1800.7 29.3295 0.742064
1878.83 27.6382 0.740095
1668.15 29.6819 0.755172
1787.57 31.3888 0.890344
1703.77 30.4679 0.94414
1836.33 33.7043 0.950831
2011.14 36.6218 1.05605
1513.22 28.5869 0.896154
1608.36 29.7497 0.828567
1606.61 35.7461 1.06503
1470.53 31.2601 0.90129
1538.2 31.0558 0.939837
1481.98 28.4208 0.921645
1365.48 31.8758 1.04166
1309.62 31.3521 1.05366
1381.17 32.5554 1.11163
1333.95 30.8166 1.05213
1193.43 30.7638 1.05549
1138.36 27.3004 0.984307
1137.11 33.3435 1.18535
1227.88 34.8507 1.29183
1111.38 32.3638 1.24929
1235.74 33.9146 1.35875
1027.64 29.8002 1.22301
1090.82 35.4984 1.57426
1082.14 32.6501 1.33043
1133.18 34.6822 1.48806
973.845 33.2438 1.51658
1105.68 33.4443 1.41201
842.2 31.2776 1.40486
943.217 31.1339 1.53763
872.377 27.5037 1.3327
1034.67 34.907 1.7459
995.329 33.9436 1.66535
793.263 27.854 1.44421
909.597 32.1834 1.6249
867.638 31.7116 1.70316
685.972 27.6214 1.49579
628.074 27.5581 1.5036
813.239 28.6953 1.4926
724.707 28.7097 1.65016
820.691 31.741 1.76462
661.575 30.0352 1.64997
699.536 31.9031 1.9061
745.851 31.4017 1.87737
661.974 29.4739 1.75359
783.147 36.0054 2.2916
584.442 29.2161 1.78376
674.572 31.4708 1.99389
624.949 32.5216 2.14126
607.926 27.7347 1.77162
641.772 30.4029 2.07027
547.388 28.0984 1.90267
611.615 31.2762 2.12888
570.098 31.3891 2.15889
542.96 27.3443 2.02183
580.443 32.8882 2.39952
649.627 41.3293 2.73341
559.706 31.3214 2.45325
535.765 31.2232 2.28444
573.853 32.748 2.49678
493.92 26.532 2.01175
550.344 30.8277 2.34023
515.78 35.9822 2.72845
541.04 36.4864 2.96161
539.264 34.0642 2.89843
448.478 27.1308 2.23834
457.101 30.3826 2.54793
488.995 33.4037 2.86487
587.139 35.0879 3.09817
418.445 27.1603 2.40114
459.262 31.8324 2.78642
426.768 30.5408 2.54251
448.966 30.6698 2.84287
511.848 34.9633 3.25094
428.336 31.787 2.9938
456.521 34.8545 3.12227
474.172 33.4731 3.09101
393.371 27.4336 2.78175
413.251 32.9243 3.45322
371.161 28.328 2.80939
370.766 30.0411 3.07507
359.717 31.1073 3.38287
439.906 32.7173 3.3088
342.657 26.8111 2.88831
371.947 32.0872 3.30418
380.793 30.819 3.24725
364.763 29.9233 3.16015
361.377 30.6529 3.34441
325.07 29.7912 3.34388
339.992 30.0727 3.55315
338.628 29.0533 3.24517
316.072 28.6527 3.32831
370.641 35.1681 4.29753
349.679 29.1304 3.40816
291.494 28.0559 3.45351
364.382 34.3648 4.13869
365.042 32.1291 4.03984
310.025 30.7684 3.94232
352.488 31.7973 3.95646
361.245 35.2348 4.72403
309.446 31.0495 3.97767
333.389 35.3135 4.81139
267.053 27.4956 3.62284
264.132 30.067 4.07375
327.621 34.744 4.55691
313.039 31.4302 4.24381
257.821 30.5713 4.28813
253.042 28.9757 4.12058
345.398 34.1495 4.68403
300.011 32.5764 4.63616
268.164 31.704 4.63717
247.167 28.8538 4.56919
254.839 27.9204 4.21777
248.041 27.6706 4.15898
238.183 28.1282 4.13435
255.24 29.3069 4.46225
223.962 25.9186 4.01378
262.794 30.1584 4.62214
257.282 30.9587 4.97317
250.163 30.7457 4.86817
258.732 29.2312 4.66053
217.791 26.8766 4.55252
214.771 29.1176 4.80228
261.992 32.2084 5.28595
269.489 30.0192 4.96488
232.799 28.5937 4.89306
264.322 36.5693 6.10571
222.395 27.4434 4.72949
220.697 26.9254 4.74569
238.726 33.195 5.91488
229.988 29.3535 5.26543
215.961 29.8426 5.41035
201.609 29.5778 5.36774
196.584 28.4367 5.57813
172.819 24.5256 4.74344
227.139 31.8397 6.01704
179.929 26.1726 5.00103
187.205 29.7478 5.65744
217.276 28.8572 5.59512
232.622 38.9191 7.51588
208.548 30.4591 5.82592
190.542 28.7695 5.58087
157.306 25.1981 5.12734
180.043 28.6684 5.85785
178.186 30.8304 6.20943
200.435 33.001 6.91787
185.131 28.2063 5.93219
185.742 30.8791 6.25739
178.282 29.3122 6.27051
198.615 29.4729 6.20376
189.37 31.3809 6.79047
187.844 32.5348 6.8799
176.14 27.1937 5.83751
166.384 29.8164 7.06062
187.849 30.4651 6.85233
173.266 28.0902 6.31036
173.397 31.562 7.18797
173.225 33.0709 7.30993
162.977 27.8483 6.43787
161.308 30.0933 7.01845
151.637 25.5989 6.05819
158.481 29.3561 6.86509
182.427 33.333 8.10886
165.238 31.0428 7.36639
174.092 30.201 7.2703
129.872 25.24 6.25332
155.451 25.4696 6.51677
165.38 31.4696 7.99107
155.108 27.9283 6.94747
150.744 29.997 7.51052
159.529 31.5521 8.2087
174.238 34.0079 8.81468
141.865 28.7845 7.81714
143.796 26.6447 6.58652
142.25 26.6705 7.18381
146.205 26.8862 7.39369
163.088 30.1722 8.16669
148.552 29.4604 8.0872
126.527 26.0682 6.90802
153.05 30.6225 8.67969
135.029 28.4391 8.09859
115.451 28.1848 8.43987
155.993 27.9812 8.00589
142.542 31.8763 9.19088
136.706 32.2374 9.50116
147.299 31.0744 8.7188
114.442 25.1649 7.58015
153.488 32.1607 9.41709
129.318 31.691 9.33084
136.15 29.1733 8.77487
134.41 31.6371 9.46446
135.417 28.6351 8.74334
129.966 33.8264 10.2492
142.02 32.941 9.88493
143.716 32.6321 10.0145
118.476 26.8414 8.28346
135.068 32.6437 10.7691
103.343 23.947 7.56231
118.44 33.3919 10.5993
124.031 27.3121 8.66252
107.999 26.8191 9.27134
131.495 28.5069 9.25155
123.4 28.6026 9.34966
124.205 32.1873 10.673
107.94 25.4722 8.58649
142.572 33.6877 11.7352
125.936 33.2395 10.9915
124.98 29.0808 10.083
117.499 30.3501 10.826
116.477 29.5997 10.1241
110.986 28.1356 9.69913
106.728 27.1026 9.42458
123.262 30.6435 11.1485
125.588 33.9801 12.0036
130.884 32.265 11.0877
106.006 29.5334 10.8283
97.7313 30.0952 11.5126
112.549 27.625 10.0114
127.58 36.6243 13.0768
104.028 33.9569 12.6598
101.941 30.1908 11.1335
97.0486 28.9819 11.43
120.882 32.8894 12.4742
100.544 28.066 11.0094
117.797 31.4508 11.9247
117.915 30.3979 12.2503
102.283 30.1967 11.7041
108.616 29.3972 11.7009
126.446 31.1701 11.8546
103.633 31.013 12.7517
115.466 31.3618 12.5825
91.9539 25.7007 10.0045
104.272 31.0863 12.3743
96.9027 31.4655 13.2858
111.228 35.0482 14.0756
88.363 26.357 10.7725
90.2644 29.0821 12.25
83.8179 27.7017 11.9268
87.4042 25.901 11.6035
112.756 31.9222 13.0054
95.755 30.0412 12.3221
98.5329 26.5821 11.0692
90.5546 30.3717 13.4662
92.5549 29.6929 12.8455
98.1548 33.6607 14.5237
81.0597 28.6752 12.6656
88.4191 29.9923 13.7598
96.6854 32.7091 14.8171
91.1036 30.8426 14.326
111.342 31.5071 13.603
97.9136 32.786 14.6707
86.6221 30.6995 14.3712
90.6964 29.5577 14.0547
92.9912 29.013 13.6108
100.57 33.4405 15.4991
91.0074 29.4917 13.9225
86.0475 25.0677 11.5641
81.6061 27.0911 12.8741
92.0051 29.2323 13.5147
83.4329 30.7274 14.9573
86.3116 30.4657 14.636
82.0357 30.8712 15.0842
79.8263 28.8402 13.8118
87.3098 31.5877 15.8078
77.0716 25.6855 12.8153
98.8231 34.8471 17.4953
88.4451 30.4274 14.9817
78.9389 28.3289 14.6079
71.7903 27.4484 14.0755
89.9395 34.8035 17.5563
82.0896 32.4242 16.3568
75.6499 28.4132 14.6699
80.6948 30.2352 15.0197
81.9009 34.3009 18.0156
79.3624 30.6276 16.6028
87.8558 30.584 15.9743
79.6387 28.9439 14.8894
71.8646 27.5126 14.5752
74.5015 29.5749 16.0204
85.68 38.0741 21.0175
86.4234 30.6164 16.245
74.1601 30.0278 16.0936
74.312 31.8995 17.783
74.4258 28.7435 15.434
75.5782 28.5015 15.7178
78.6863 34.68 18.9065
75.3212 33.1824 18.5473
74.3255 28.8775 16.3845
77.0232 30.2251 17.4397
68.8018 30.9348 17.6267
66.5119 27.5725 16.2072
76.3382 29.9054 16.4137
68.5974 27.6924 16.2559
63.2682 28.925 16.4262
60.0314 25.7858 15.7404
76.2771 28.5456 16.9066
61.8862 28.7465 17.5149
70.6891 28.8623 16.9276
78.5891 30.4109 17.7341
68.1622 28.4742 16.1153
76.4684 34.3891 21.2384
68.6132 32.011 20.4573
74.0515 29.8091 17.2819
73.1131 29.1677 17.0568
61.5419 27.5118 16.7073
70.1214 30.7951 20.5429
74.4886 32.7042 18.9763
63.9859 30.8046 19.5958
59.2072 28.6039 18.8799
56.9753 23.6091 15.3552
76.2532 33.8533 20.5003
65.417 28.5657 18.4956
73.7091 30.1732 19.8842
78.605 35.1337 22.1367
64.9768 29.7896 18.7934
67.7699 31.7811 21.0296
69.1897 31.0143 20.5167
74.5581 30.929 19.8455
61.1804 26.1905 17.3099
68.4643 32.8358 21.3512
59.0148 25.3611 17.1893
66.8845 33.6813 23.2331
65.4982 29.8577 20.0119
58.9398 28.6208 19.9463
66.7561 28.1895 18.1464
58.8983 26.7233 17.6168
70.9341 31.1835 21.2012
67.6516 32.2812 22.252
56.75 29.0472 20.7554
60.3354 29.1863 20.0139
66.2641 27.9846 18.5674
51.4242 25.6214 18.7314
56.3563 27.2624 19.5034
64.4647 29.2794 21.3904
56.5278 25.1603 17.0792
52.1734 27.6618 21.5057
65.2174 33.7532 23.6977
59.5583 26.3488 18.7375
58.8164 29.1957 21.5714
56.6178 30.9796 22.5598
53.787 26.822 20.464
59.831 32.3149 24.1626
54.3278 27.9803 20.3655
55.3901 24.5521 17.8616
56.2731 27.0029 20.693
54.1222 31.6848 23.4242
55.0002 28.8524 21.8743
57.659 29.9632 23.1974
57.4454 29.2065 22.5954
53.1132 29.1721 21.781
50.0489 26.9495 21.0634
60.995 33.166 26.0171
55.6513 32.9199 25.9452
57.2349 30.4912 25.0816
60.5195 32.0931 24.0547
64.3368 30.6195 23.2333
58.7014 32.3766 26.4786
50.715 27.5951 20.4708
47.6473 25.8039 21.5628
54.1762 30.4788 23.6592
48.5224 27.5108 22.9139
50.5847 28.7416 22.878
54.0506 26.6799 21.28
58.355 32.2426 24.8133
49.6771 26.0704 21.6447
47.9114 28.6833 24.8173
59.1542 29.4753 24.3409
47.7023 25.3841 20.4819
55.1689 32.1292 27.0243
52.5939 29.2737 23.6757
49.2343 28.8296 23.5792
51.5863 30.2059 26.4403
52.3298 30.5957 25.3576
51.5357 31.1819 26.6272
59.6874 38.3694 32.6443
53.9896 33.5355 27.0121
49.9543 29.8807 25.8294
57.4078 36.1275 30.6442
52.012 28.0493 25.3492
45.6658 24.8269 21.8272
46.5809 29.4648 27.2605
51.0692 32.09 26.6877
41.4926 29.7477 25.2508
43.4214 29.2209 27.46
55.8788 31.5394 28.3263
49.4333 31.0456 27.1696
49.6323 30.9846 26.8194
44.9221 28.3609 25.8091
42.2766 27.6799 25.4634
54.0339 35.1899 31.6968
52.1995 29.5147 27.1016
49.3235 32.8919 30.0757
53.877 30.0986 28.3779
44.2901 30.8101 27.0346
43.2641 29.1842 27.861
46.7649 31.0451 28.9524
47.6727 33.2673 30.9647
45.6114 26.2297 23.9949
40.8689 26.9931 28.1823
45.2487 25.8116 22.9828
50.3444 35.7853 34.2232
47.2121 27.4318 26.3472
41.8878 26.8771 25.4646
51.0436 31.6514 30.1403
50.9568 29.9625 27.9369
45.7302 31.1138 30.9435
48.3916 30.4757 29.1255
44.0802 28.288 27.9643
50.2613 30.4242 28.3396
48.3529 32.7994 32.5491
40.9824 25.9715 26.6466
47.3787 29.922 28.7654
43.1573 30.7523 29.9944
45.8515 31.2734 30.6751
41.7796 26.7836 27.6892
41.2631 26.2933 25.5009
45.6452 31.3522 30.0823
46.0746 29.8659 30.9612
41.8765 30.2028 28.8533
43.8216 24.9346 24.7786
46.2167 32.0433 32.5082
35.4082 25.6464 28.478
41.1161 28.6396 29.4181
47.0663 32.0428 32.1442
37.9184 25.2787 28.0501
43.6222 31.071 32.7958
50.3422 33.735 35.4564
40.3783 27.5915 28.2786
43.3472 28.7782 30.8036
44.3885 32.1527 32.9664
38.6304 27.7216 29.5591
39.4098 29.6591 32.9118
41.0414 29.5597 30.4238
43.7091 30.6369 31.7735
45.9998 30.4261 32.7295
40.4731 27.3837 30.2037
42.9959 34.0662 34.8341
36.1694 28.4512 30.8804
46.7779 26.3899 27.7709
34.5897 27.9561 32.275
36.7904 28.0508 30.916
39.7243 31.6291 34.061
35.6931 25.0494 28.9572
38.3867 27.2741 30.9111
40.561 32.667 35.7907
37.8065 29.9003 34.5808
40.2289 27.8417 32.4275
36.6305 29.0597 32.3776
41.5296 30.3869 35.4277
44.2991 33.8562 39.2107
36.3798 29.5479 31.1774
36.8594 32.145 37.1077
43.7704 26.889 29.9312
38.5653 27.5583 30.4782
29.5995 28.7509 34.5713
37.2318 27.7357 32.913
41.9032 30.8598 35.6462
38.2072 28.5334 33.3112
39.4499 28.4186 33.9696
38.1813 30.2905 36.4704
43.7029 31.1956 34.4423
35.2701 27.6283 32.6951
38.4211 33.3889 39.2705
37.3866 27.5231 31.2143
35.293 27.5079 34.2414
38.4533 29.6505 34.7752
37.9669 31.2059 37.7389
42.8828 34.4129 38.782
39.4662 29.9508 36.4786
34.3386 28.2213 34.752
35.0445 31.8179 38.7633
32.7385 27.6776 35.4015
36.3244 30.4913 36.3515
31.2134 26.4183 34.1858
35.8276 30.6917 38.8444
39.6543 29.5157 36.197
35.3193 31.4524 36.544
36.413 26.8705 33.7553
35.7631 26.5753 32.6633
32.4556 28.1742 36.5731
36.8587 26.7118 33.9025
38.8712 30.8353 38.4149
34.9129 28.066 35.5987
37.1794 34.5805 43.4522
36.6519 30.4559 40.2265
43.5861 31.7083 37.1404
31.8043 32.1927 42.8793
34.0464 33.3024 44.7
35.0625 28.8883 34.7342
26.951 24.046 33.0488
33.3435 27.1158 36.9209
40.44 32.9102 39.3173
33.9278 30.1864 37.4703
39.3986 31.0284 41.513
34.474 27.4316 36.8163
29.4592 28.4513 37.6668
39.8436 32.5222 43.5916
27.5112 29.7111 41.7166
34.1345 28.0907 36.382
33.0718 28.4831 36.6271
31.2736 26.6928 35.3528
31.1541 31.5876 43.8874
33.6312 28.6705 38.5202
34.131 25.9861 33.6437
37.1773 33.7486 48.2406
35.5146 28.7006 39.7371
31.2452 29.2569 40.828
40.7727 33.5964 45.4812
32.3895 27.2603 37.3535
36.8075 33.402 46.1063
30.1915 30.0905 41.2719
33.5299 29.3705 42.5105
36.7208 31.9997 43.3368
35.2085 30.3356 41.7375
35.6004 28.7461 41.8257
33.9448 31.8514 46.0479
34.0321 27.2003 35.6746
33.5488 32.3606 45.7018
31.9974 30.2239 42.9055
32.3606 28.2453 39.5497
30.0223 29.0267 40.5445
32.9802 28.666 40.0559
26.9181 25.8268 36.1718
31.4329 30.9271 43.6342
31.2859 27.5351 39.06
24.2762 25.4875 38.4972
28.294 23.8042 34.7174
27.0187 29.9548 43.1635
28.6997 25.6371 37.0583
29.2199 30.6831 42.2169
29.5929 25.8759 40.6987
29.5449 26.8066 40.9531
29.3162 26.1655 39.2912
31.1711 30.1088 42.6785
32.6637 28.6083 43.4125
30.8747 31.4517 44.3518
30.5944 28.0667 42.7049
27.5834 29.4882 44.3316
30.0154 29.7357 45.8088
27.0969 27.0155 41.9401
30.268 28.9506 45.6527
30.0586 29.14 42.5118
33.0983 35.7922 49.8509
26.5081 28.5574 46.2549
28.6486 26.3535 42.4824
30.3279 30.5201 47.0763
27.8365 30.8353 48.3933
28.657 30.144 47.2292
29.4997 28.7226 43.5728
28.8254 31.5309 45.8744
30.4862 32.1818 49.8449
33.451 31.256 46.5546
27.8108 30.561 46.896
32.7843 28.7146 44.2027
29.3508 27.6458 43.8965
29.9279 32.3655 50.3201
29.0539 31.6938 48.8644
26.4099 31.193 48.1665
30.1983 32.7567 52.6275
31.1095 32.6784 47.0655
21.1031 25.0778 42.2563
31.5404 29.627 49.3182
29.0884 32.6792 49.6621
27.4117 28.2025 47.4879
27.037 25.3908 39.1186
25.6697 30.3107 46.3726
29.6584 30.5145 50.3274
30.2965 29.7552 52.3726
27.4827 30.8999 54.5523
33.1623 33.0529 50.4591
23.9313 29.8498 50.4359
29.0556 26.65 42.508
27.9107 31.5425 54.32
30.8238 29.5905 48.3394
27.548 30.5186 51.1234
27.9106 28.8404 44.3882
25.18 31.862 51.7425
25.792 31.3826 52.5401
29.4907 28.3552 46.718
26.1378 31.9264 55.3503
29.3978 32.0017 52.5084
29.4647 31.0229 48.4221
26.1217 33.7545 58.9772
27.9914 30.2195 50.6906
27.6145 27.4708 44.5736
24.7586 27.1464 45.8926
28.2903 29.7583 48.2262
27.2118 29.4912 52.7653
28.5381 28.7679 49.2207
22.0699 27.505 49.0841
25.205 25.7011 51.2116
28.4593 29.4217 48.5135
30.9008 29.3118 46.511
31.3896 31.2498 53.1141
24.1582 31.3208 57.8738
25.9729 27.4945 49.6724
31.3126 31.6581 53.3535
30.3722 31.0062 54.229
25.2148 26.4264 43.0509
27.2433 31.4133 51.5856
22.3613 27.44 50.875
23.2967 24.024 41.6229
24.5651 26.7833 49.0017
28.7334 28.1184 47.5912
22.2898 22.2996 39.7235
25.5111 30.515 56.3932
26.0976 27.2152 48.9525
24.5166 26.6258 50.0563
25.1014 30.4331 57.0918
25.9404 32.5337 56.5408
26.3055 29.4938 50.0726
22.5308 30.8604 60.8222
30.3594 33.8137 61.1467
27.0582 30.3075 51.949
25.3434 25.1789 47.3782
25.7785 28.4717 53.6242
25.18 26.5189 45.0392
22.9051 31.1601 57.8886
25.4492 28.198 56.3111
28.0206 29.0252 54.8727
28.1845 29.1505 53.6366
25.4898 25.8355 51.2218
29.8241 30.7733 58.8471
28.734 31.8208 51.4156
21.4302 28.3152 51.8701
23.5505 27.9158 56.1312
23.8314 28.8113 50.9261
23.0931 27.1443 49.8059
24.3175 31.5347 60.8417
25.7515 32.8209 61.8896
23.0502 25.637 48.6691
23.7184 24.7255 49.3542
24.0005 25.492 47.9085
24.7797 27.3545 52.8092
22.0898 26.0325 49.764
23.7093 28.2035 56.1505
25.4968 28.5282 51.7909
22.6417 26.0573 49.5519
22.6417 29.1541 59.1668
22.838 29.7351 58.2901
23.9442 35.2001 67.9316
22.585 28.2963 54.2524
25.157 26.8633 52.1425
21.1115 27.153 49.9317
26.247 33.3279 65.2616
21.8941 29.486 58.9526
23.0889 26.0069 49.6928
21.4152 24.9764 47.5194
18.2288 26.8015 57.6787
24.1785 25.3905 47.6315
24.6402 30.4945 61.6636
25.3313 32.0428 67.7066
28.2568 31.0678 51.9312
18.9565 29.9666 65.6241
23.9539 31.0652 61.8907
25.2584 31.3942 68.6723
24.649 27.6739 49.7001
19.7453 27.1403 52.0787
21.3034 26.5161 53.3249
22.6243 26.1045 50.5136
20.027 25.5985 58.9755
22.188 32.4518 65.081
21.2413 23.3473 48.2318
20.3548 26.8761 57.1714
20.6106 30.5246 65.3106
24.7398 29.7968 62.193
22.6459 30.8895 58.9031
22.7695 27.6856 58.8011
22.7841 30.4263 62.499
23.8963 30.2414 63.0892
22.8883 27.1886 56.6647
22.9896 31.8824 69.189
23.3813 28.5103 53.7857
23.5327 26.1721 53.1225
21.8342 30.0497 62.3043
22.0335 28.1056 62.0455
24.6582 26.5435 55.5062
25.6487 30.6904 65.3746
23.0872 25.9911 56.2301
22.5229 27.6069 56.907
19.3926 25.5529 53.0548
22.0721 28.9768 55.7093
21.0724 23.9549 54.7364
21.2498 31.2873 70.7241
24.9894 28.0481 58.2433
20.6444 24.1369 53.9208
20.2719 30.4471 60.0456
22.7354 33.2186 75.1981
23.1354 31.0371 62.8887
20.8635 25.4438 55.2294
20.7007 28.1671 59.8937
21.9026 28.2239 64.9405
22.4481 25.4903 54.061
22.5249 30.059 59.1979
21.7032 28.4334 65.941
22.2767 29.9739 61.7605
22.293 29.4708 64.8518
20.0312 26.2677 59.2682
21.7218 24.758 57.1611
20.3923 26.3169 59.6763
22.6667 30.1328 64.5077
21.3992 30.3048 60.945
21.0295 29.0196 61.8247
19.1153 26.9642 64.8671
22.1523 30.7245 64.5276
19.5463 23.1091 55.3697
21.3169 21.5808 52.1153
21.9233 29.9785 58.8785
18.1596 29.4622 72.0961
22.2243 28.8997 57.2918
21.1198 33.1842 73.6739
19.4155 26.8548 60.4999
21.7247 29.3493 60.4613
21.1566 27.8905 58.0254
19.6048 27.6904 69.5296
22.2051 34.5542 75.2942
19.7679 26.6479 59.868
20.9121 29.7088 71.4258
20.9007 34.1182 73.6013
18.7573 29.7358 69.0832
20.6694 26.6526 62.9457
21.2087 29.8259 69.2631
19.3205 28.8947 75.4877
24.1794 29.3929 61.0226
19.6192 28.6504 61.6161
18.7352 27.9899 64.9533
21.2933 29.8456 72.563
19.0446 30.1663 75.9393
24.3473 29.4354 70.251
22.6131 27.583 54.3933
18.2564 22.9871 57.8099
20.6036 29.2396 64.8787
19.8881 31.4989 79.6984
22.9885 25.886 57.6641
20.9798 28.2974 59.9975
16.2149 27.5714 71.116
21.0745 34.7019 76.2913
19.4828 26.7496 68.6461
23.5896 33.4344 77.4828
19.8354 28.8073 66.3238
20.1669 30.0165 67.8809
17.6905 25.092 59.1211
21.127 26.3688 66.9726
19.9921 27.2644 67.7092
21.4766 30.5851 67.2396
21.3473 28.2255 68.4896
17.476 26.6801 64.2962
16.874 28.7545 74.6344
23.7934 29.187 65.1757
22.2106 27.7234 66.9036
20.1942 30.3261 72.3989
18.7943 25.4965 59.3663
17.1354 26.521 69.0644
20.5594 24.5082 63.0221
20.5708 33.8584 82.8203
20.2629 26.6099 61.5303
18.1389 28.6617 71.4521
20.723 26.465 72.422
23.4913 36.4695 80.7833
21.5477 31.4888 77.1454
20.3691 32.0107 70.4202
21.3574 27.7322 70.9989
19.8836 30.5258 72.7841
18.8867 26.5052 65.2975
18.2728 29.1361 69.4943
19.8647 29.3375 74.558
17.9845 27.0173 72.5563
18.8917 25.5768 66.4334
16.7076 27.7005 71.5535
19.5307 27.1417 71.7567
19.3945 26.375 61.4408
18.0974 35.2433 87.3442
20.6711 31.6687 77.4849
18.2818 28.5786 64.6319
16.8918 28.7368 75.2896
18.3692 25.4885 69.7297
17.9268 30.8054 74.744
17.9334 27.3409 73.314
20.9362 31.093 75.8125
18.7857 26.7388 67.9448
18.2566 30.0513 77.328
21.239 33.8851 78.7305
19.284 28.4495 69.4943
17.5394 26.1304 71.7023
17.8898 26.4238 73.4129
20.2966 31.5215 68.8685
16.8947 26.3098 73.8508
22.8527 31.6155 75.7832
17.8534 26.9456 70.0613
17.6424 29.0371 80.2648
19.2861 29.5905 71.9297
18.4074 28.0585 78.3257
17.2009 24.6978 64.4335
16.2702 26.1427 63.8017
14.8354 23.9701 65.2482
17.1439 27.518 68.2991
18.9735 25.9944 69.7325
14.7922 27.9427 68.8212
18.0697 28.5575 70.8855
17.4996 31.8494 80.7117
19.4602 26.3892 70.0913
18.3019 26.7618 66.6724
14.9677 25.5035 71.6681
17.5059 26.6137 74.0849
17.6288 28.9837 84.6713
19.4545 31.7609 85.5167
19.9679 33.6929 86.4349
16.5339 28.9548 79.384
20.6024 28.7098 69.1186
15.465 20.0965 56.8337
17.078 30.5938 78.0766
16.9659 27.218 69.9715
18.985 30.5076 78.4077
16.7854 26.8403 79.6771
18.0106 28.7517 74.9079
17.9477 23.9114 65.7749
16.9012 25.8353 70.1993
18.9892 31.2453 89.2083
17.1054 26.9288 76.7175
16.6761 27.2773 74.0164
19.5953 32.7971 84.0897
17.911 27.2408 71.4201
16.2596 28.7293 79.3683
16.4 27.0734 72.257
16.9794 27.5109 76.1189
18.4516 31.7761 86.8152
16.4855 25.2366 68.7424
19.3536 29.7309 77.2393
15.9998 26.8578 74.4109
17.3345 28.5576 84.3413
16.7289 26.6961 64.7955
16.9676 29.9484 79.9227
15.524 27.4963 74.6336
15.7739 28.7684 85.7289
18.339 25.794 68.3054
17.9417 28.2326 79.9958
18.7072 30.8504 83.037
17.4878 30.4733 83.6438
19.6186 26.2229 72.1092
16.8705 30.9864 86.1843
16.8132 29.5741 73.9979
14.9551 23.9086 69.793
16.7452 28.3771 81.7955
19.1946 31.9763 83.1926
18.9019 24.104 71.7373
17.6511 27.9356 73.0698
17.6878 29.0483 87.5188
17.6701 29.9537 75.3658
15.734 21.4506 67.1011
15.5254 28.2009 80.8442
14.277 28.6336 81.3488
17.2439 26.303 72.2356
17.566 31.2926 92.308
17.0656 24.425 73.2833
20.0619 25.4569 73.9427
18.6871 26.7364 77.408
18.7014 28.3585 73.735
15.0376 21.7953 68.7255
15.7406 31.7897 87.4019
15.0726 27.1856 76.1687
16.102 28.3729 75.8277
15.6299 23.2314 68.4022
14.1386 25.0383 75.0609
15.9055 22.8517 62.7384
15.4364 26.2502 80.1001
18.8198 28.9512 82.6185
17.0974 32.2078 92.4169
17.5823 25.106 76.1462
18.2297 29.936 78.2762
16.044 25.691 68.9232
14.8525 31.0599 89.6071
16.573 24.9688 78.4222
15.6978 20.4834 62.3111
17.4534 24.1408 70.4335
15.77 28.219 76.7662
15.2811 25.7687 77.5917
15.5344 30.5244 90.9979
17.1667 26.7216 78.4957
16.6031 26.7838 81.1318
16.243 26.4838 82.9207
16.3024 29.2425 86.7348
14.4736 25.8535 69.4148
15.6325 27.2001 77.2479
14.1339 26.224 84.1414
14.2053 27.7519 86.593
16.5077 24.7262 75.1295
17.4101 26.6511 69.0454
15.3002 29.6855 89.6307
15.5954 32.0546 91.9137
16.5648 30.4065 95.0382
15.6573 29.1952 88.1486
16.1118 25.9694 87.7777
18.0632 28.9047 77.2818
16.0698 28.5955 80.9735
15.2936 26.3415 87.6472
16.7889 28.7303 88.1753
16.1043 26.8775 69.0043
12.0493 22.9979 81.0703
16.8211 28.7037 82.4134
17.2352 29.0008 88.7658
15.3657 27.9737 90.311
17.2388 32.5728 86.8788
15.8185 25.26 88.1263
17.1118 29.1883 81.4707
17.4575 27.6457 92.4815
18.2629 30.1579 82.5297
13.9549 29.9055 96.7102
17.8972 32.3667 94.8232
19.0552 32.533 80.802
15.4118 28.6498 89.0967
15.9009 28.1106 94.6897
17.5773 31.5941 105.264
15.9414 28.2647 81.5196
14.2691 26.2674 76.4976
15.7871 29.1061 97.8728
17.9904 25.4111 77.4872
15.6949 26.0292 79.0264
16.0891 22.7062 82.0722
15.9041 30.449 96.9827
18.2141 30.6554 96.9184
18.1433 32.5394 95.2616
16.5548 27.1308 76.8967
13.5537 26.4354 76.3389
15.5833 25.5251 75.2943
14.5352 27.8748 93.6194
16.9175 31.8147 92.8144
15.352 25.9133 87.3767
15.7132 28.2424 86.3407
16.8763 26.2848 81.2083
14.4151 24.7627 64.9291
14.7679 29.9512 97.8706
15.5636 31.0112 94.5101
16.3453 26.7609 93.8679
16.4228 29.7271 83.7988
16.6405 25.6975 72.7532
15.3716 31.7749 105.821
16.2265 24.3061 85.6422
16.3522 33.6076 93.229
14.3961 24.6316 86.4682
17.9018 27.6321 85.9343
15.9343 29.3737 98.5782
14.8269 26.7505 89.9315
16.5512 28.5693 83.7974
15.5313 29.7022 84.8946
14.6175 27.1712 89.5217
13.3982 30.2097 92.9974
14.7061 26.8455 86.7064
12.9082 27.7396 85.4029
14.3449 23.1216 81.6385
15.1069 30.5431 98.1571
15.6443 25.5198 86.8903
14.5743 25.9471 72.6934
13.2788 30.5896 96.4191
17.5 32.1785 100.036
12.8271 26.2284 81.7651
13.1407 21.5022 72.8372
15.1278 27.8999 93.2996
14.3696 28.1246 93.2173
16.7446 26.0077 83.2434
15.0862 22.9237 78.5683
13.8088 28.419 90.1656
13.5382 22.0476 72.348
13.9374 24.3085 78.1114
15.3358 29.8013 107.204
14.2251 29.4366 80.47
13.4356 27.8297 104.199
19.6447 28.6895 88.6469
15.286 30.7122 100.868
15.7611 26.7255 86.8635
13.175 24.6821 87.4012
13.905 28.9536 92.8945
15.6205 30.3857 94.1432
15.0802 28.3093 96.1342
16.5845 28.9404 99.3377
15.4493 29.0706 96.7849
16.8575 31.0951 95.6341
16.5777 29.8708 99.8935
13.5577 29.5123 80.6803
15.1603 28.1258 93.6324
13.5948 29.8051 101.632
13.8943 26.9018 84.6655
13.8754 30.5007 106.291
16.8432 29.4068 93.0834
14.1571 24.1857 89.6535
15.4498 26.2017 83.3693
13.6491 27.914 91.889
14.4087 27.48 90.3492
14.2999 25.2936 88.8254
12.5216 23.8822 76.2009
13.1545 26.0135 87.116
13.6144 28.3444 96.2117
12.7502 23.4498 77.5619
15.3589 27.662 96.7745
17.5971 25.311 82.0117
13.3527 21.9428 78.3682
13.3604 30.6418 100.933
12.6137 29.5883 97.968
15.2127 26.25 86.9104
15.4746 22.7672 79.5053
14.6642 29.4606 101.195
14.107 27.8502 77.4992
12.4339 26.3244 93.6032
13.7544 26.7513 83.8465
13.6698 24.9093 84.8289
14.0259 25.1966 86.1888
12.5224 25.1592 103.121
16.8167 26.8939 85.7657
15.22 26.7407 89.5553
12.1217 27.5034 86.7929
14.0296 27.0731 76.858
13.6145 27.112 106.958
16.9539 28.8396 88.4253
14.6299 27.1251 91.9997
14.2212 23.1815 80.2229
13.647 28.7408 102.486
17.2737 26.9253 94.0038
14.1284 24.5692 82.0906
14.3488 26.9201 93.6172
14.3471 26.3553 97.5921
15.6028 26.3629 75.6996
11.5359 22.6557 81.8573
14.5869 30.2557 114.553
16.8161 29.6434 92.5621
15.0488 29.3377 99.6416
15.8595 26.4171 85.4516
13.2717 24.6603 94.5227
13.4016 28.4245 102.102
14.0323 28.7055 96.202
13.0483 28.0853 88.2049
12.1171 24.5978 88.8463
13.079 24.8473 81.9301
12.5423 23.7405 81.5978
13.1582 24.7992 94.2674
14.7375 23.8208 82.0208
12.3273 27.8936 97.7728
13.4801 27.6267 93.1895
11.9915 27.9113 107.442
14.9221 31.7978 109.474
14.8416 25.5381 92.0448
13.96 23.8579 75.793
12.7571 30.431 104.635
13.6757 28.156 103.055
15.1797 26.1207 87.2011
14.3311 29.7703 106.269
14.6148 35.9241 117.833
16.3282 29.327 100.425
14.3224 27.2339 92.0904
12.1571 24.9504 87.1969
14.603 28.9452 102.938
14.71 25.4328 86.2932
11.6525 27.1344 101.167
15.7876 26.2203 80.7082
12.4182 25.3228 88.6363
13.2149 25.6833 85.1507
14.0237 26.595 91.408
13.1058 25.398 98.1972
13.6078 26.4308 92.045
13.2321 26.7552 102.938
13.7814 29.3034 110.008
15.083 28.3412 103.811
13.4744 28.1399 100.399
13.8665 31.4188 100.336
11.8509 27.3925 98.2381
13.4464 24.1733 86.8768
11.672 27.6433 99.1937
13.7053 26.9493 90.4525
13.0423 26.6021 106.569
12.8819 29.0183 91.1243
10.9438 25.8753 97.2773
14.2429 25.4267 82.0212
13.462 28.4854 104.131
14.5843 26.0141 107.069
14.3282 25.6819 94.1215
13.853 27.2781 92.5141
13.3469 26.4642 94.2912
13.2039 24.6429 83.2461
12.0628 19.4148 77.3717
12.095 24.7816 101.22
15.9889 29.0755 103.152
13.9045 26.2654 92.3934
13.6399 27.7743 101.891
13.6437 29.5623 112.675
15.5426 26.998 83.983
10.9209 28.4586 107.299
13.2855 28.8256 85.937
14.7006 25.153 101.574
13.7509 31.8962 106.61
13.9692 30.1331 105.378
14.7386 24.2055 97.2038
15.3996 24.5464 88.8457
14.1367 29.966 108.522
15.7241 28.1429 104.837
13.9639 26.3099 98.4264
15.1446 27.1817 89.0565
12.6448 27.421 108.091
14.9399 26.3606 95.9701
13.7472 25.4329 81.879
12.8139 21.9306 90.2646
14.0683 27.0046 113.431
14.5105 30.416 88.863
11.8139 26.4074 97.0085
13.9578 27.2199 95.134
14.2886 28.7102 98.7143
13.3067 27.039 110.256
15.7293 29.5969 92.5954
12.1348 25.3376 103.072
13.2196 27.2752 98.427
14.6538 24.1476 90.621
13.4604 27.8078 107.718
13.7778 26.5173 101.932
15.6064 30.4427 102.226
14.0181 20.9496 79.4824
12.7526 25.1673 90.147
11.4071 23.9165 93.0021
13.9921 26.2017 98.1049
14.3972 28.4869 103.705
13.0999 31.2845 94.9982
12.2406 23.5102 94.0763
13.4512 25.7078 93.2899
11.9779 25.1148 105.115
13.0966 23.8962 91.6054
14.6294 25.0483 90.3497
12.6306 27.1053 99.8987
13.2374 29.4235 106.474
13.1755 22.015 92.2401
13.4848 28.1957 98.3376
12.7361 26.0997 94.468
12.9341 27.9262 117.617
13.9332 27.7051 97.8092
13.9859 29.775 97.4633
12.8804 26.5253 97.1571
14.0621 27.1612 102.91
12.7241 26.595 88.0808
11.6453 26.7967 112.938
13.4503 29.2412 111.355
12.4284 26.1829 91.1988
13.4471 25.9221 111.706
14.9798 29.2483 90.6736
12.662 26.034 104.144
11.0175 24.978 92.3016
12.8268 29.1276 97.557
12.9696 21.4322 82.6516
12.8312 24.4232 92.9813
12.7242 27.5947 100.194
12.1293 21.7028 69.2261
10.9731 21.5477 98.6813
13.7213 25.9616 92.5752
12.0953 31.1892 113.583
13.6067 28.2936 82.5568
11.8572 22.9933 100.125
12.5208 23.6416 97.5671
13.311 28.3928 114.837
13.5863 27.7118 99.5341
13.8516 23.5602 81.698
12.3541 24.6542 95.9485
11.5902 25.5002 102.639
13.3379 29.9198 117.064
13.9808 28.5421 106.223
12.6816 25.4417 104.392
11.9563 28.4933 112.261
12.7034 27.5954 85.7005
10.7328 26.7256 105.636
12.7779 26.6994 98.3889
13.3377 27.5045 106.244
12.4457 26.4367 101.067
15.1665 32.0296 119.202
12.8995 29.5502 108.728
13.0277 23.7059 90.6275
13.7689 21.8606 99.7405
13.8483 28.8582 105.997
14.3914 29.6693 99.6258
13.136 25.4979 100.218
14.0851 27.8186 99.4774
13.8766 26.3658 99.5548
13.8044 28.6195 104.84
16.1628 27.911 113.452
13.7653 25.1473 100.928
13.4308 25.3707 105.316
13.715 30.175 108.756
13.7113 27.7423 125.817
14.7868 32.2377 98.6425
12.5434 27.9248 121.566
14.1374 28.3673 84.4069
10.1315 23.8358 101.844
13.7483 30.1324 116.481
13.1235 28.504 106.687
13.6787 24.1918 96.4507
14.521 26.3535 106.98
15.002 26.0683 97.9822
13.3366 29.9955 109.18
12.6756 24.1226 89.8797
12.2475 25.328 89.9173
11.7241 21.5297 84.8369
11.2944 27.1631 111.111
14.591 30.2914 121.507
13.9252 34.3485 116.064
14.0006 26.2187 105.84
12.8904 29.5215 116.227
14.7116 29.2854 117.526
13.0451 27.4884 111.604
13.4737 27.151 85.9657
11.4794 22.7071 90.7144
14.3507 31.5728 132.311
13.9085 26.069 113.645
14.075 24.1637 90.8118
13.5079 26.2894 101.43
12.4614 26.9527 91.3519
13.128 26.0095 97.169
13.1218 26.3507 105.503
13.306 29.6434 106.142
13.2836 27.6754 117.688
13.264 24.2299 92.3229
11.6194 26.8208 91.3034
10.3225 22.6153 93.922
12.2925 25.7935 107.073
11.2755 28.8152 119.716
14.3012 29.0637 119.198
15.2292 28.6001 99.8122
11.6045 23.5867 105.762
12.5868 25.8295 95.5959
12.6252 24.5053 93.2499
12.3587 24.7729 92.1607
11.1379 26.9193 108.951
13.1462 29.4005 112.081
13.5625 34.3274 127.689
13.8466 34.7874 130.707
13.3281 24.0349 90.7883
12.5204 24.905 119.197
14.0642 28.928 98.3809
13.7182 22.5973 90.4586
11.0567 28.2407 112.388
13.1523 27.0365 100.811
14.7107 30.1893 103.632
13.4517 21.4197 87.9024
11.2769 24.7926 91.0156
11.7516 22.7248 92.8634
12.4679 28.6287 108.551
11.9514 24.608 111.22
12.3002 27.9993 95.6204
12.1045 25.0372 102.614
12.2023 27.2304 122.762
12.3123 31.6226 109.586
12.4309 22.8744 101.88
12.2589 30.8687 102.226
10.5447 25.0094 106.219
13.7468 24.8403 98.5684
11.5149 26.9132 99.2581
12.6112 23.3736 96.2655
12.1326 27.5246 94.1103
11.1772 24.8172 97.0706
12.4224 24.4766 103.916
12.6168 27.4278 102.801
11.5345 23.1934 96.4681
10.4969 25.7854 115.838
14.1754 28.5593 107.975
12.156 29.6736 120.362
11.7224 24.5336 85.4343
13.2861 24.8245 91.9325
12.9989 25.6005 91.6728
13.1113 21.7972 108.978
11.6515 29.5413 107.064
14.8548 29.4029 105.605
11.6131 23.0159 109.725
13.7138 25.7123 90.5495
12.6153 27.7498 106.269
14.2532 26.2357 102.689
11.2542 24.2293 103.613
11.8663 28.0556 96.8075
12.1003 28.1154 124.612
15.2053 26.4832 106.816
13.6988 25.5525 98.6515
13.6049 27.0853 110.992
12.6337 30.2921 119.464
13.6807 28.0532 105.918
11.6042 28.2935 109.299
12.815 25.3111 96.4475
11.1645 26.121 104.548
13.6263 29.2417 103.977
12.6435 22.9307 94.768
12.4377 25.3696 96.7411
13.3238 28.607 108.437
12.8756 26.6095 104.368
12.936 22.513 103.761
12.6901 31.4549 120.782
12.1138 27.3735 103.602
13.2164 25.2827 110.941
11.7111 30.1549 113.982
14.0643 28.6573 107.104
13.0183 30.3403 135.097
13.9661 30.967 112.477
13.3055 29.0087 113.004
12.1149 26.0262 101.957
11.865 27.3717 117.432
14.6524 25.9332 104.133
13.3372 27.4499 103.654
13.2473 25.1194 88.9535
10.4141 25.7163 96.7592
10.3352 24.7651 114.168
13.692 29.1431 112.7
12.4049 28.7806 116.156
13.8556 24.1173 102.571
12.5033 28.7503 111.004
15.5195 26.9306 101.349
11.8894 25.6328 105.996
14.3697 25.7338 101.206
13.5962 29.4615 101.123
11.1009 25.2784 97.1543
11.431 24.4349 101.407
13.1287 23.5952 105.324
12.074 27.0488 101.999
11.3182 24.372 97.0238
12.3444 25.5208 94.1245
10.8856 26.5335 113.917
14.6639 24.6594 100.384
11.4535 30.8172 99.8415
10.9022 25.2443 102.032
11.635 27.1261 100.673
12.6275 23.6684 107.479
12.4692 26.2105 95.4825
13.5361 22.6411 96.8676
12.2672 25.2541 96.7023
11.1091 24.378 115.484
14.2 28.1972 103.45
12.9292 26.0753 121.238
10.7547 24.1339 85.7381
10.9281 24.2142 97.8601
12.6685 26.5171 106.879
12.9306 26.1179 101.872
11.4816 28.3539 111.892
14.3911 23.441 87.2409
11.7986 25.6524 103.737
13.118 24.5292 110.226
11.6212 27.0563 100.886
13.5397 29.0739 107.284
11.7876 21.7949 105.432
13.2499 28.666 115.686
14.1729 27.4567 92.0237
10.7225 24.0122 91.8292
11.1546 26.4247 108.062
13.5144 23.1356 108.309
13.1723 30.4313 101.838
11.3472 26.4225 116.79
11.3394 25.3844 89.2552
12.4117 23.2346 115.788
13.3536 26.2604 92.926
10.7842 22.8184 92.174
11.8687 23.5949 98.3065
10.7638 29.2414 126.451
14.9396 27.9347 99.9193
11.9335 24.482 97.864
10.9543 25.7525 102.504
11.3538 27.7524 107.516
14.0768 26.0911 97.0403
11.3884 24.2747 94.2002
12.6923 25.8955 107.622
12.2784 22.6267 102.433
13.5691 30.962 118.968
12.7453 27.5511 96.1985
11.9868 25.9104 107.005
11.7341 25.7958 103.853
12.7914 25.8708 111.824
12.7254 27.1451 113.517
14.4196 28.1127 122.021
15.3683 29.2451 99.5716
12.891 26.0014 107.851
12.6391 27.9831 103.861
12.2962 28.3129 117.718
13.7165 30.1793 131.043
11.5225 27.067 109.621
12.6654 25.9841 114.636
12.1499 31.4773 101.788
13.0173 28.0747 113.218
12.5704 26.3702 109.974
12.0309 27.8316 103.263
10.0993 0 0