# pn-170911/CsII-av-CsIIA-1280-1959.psd
# Power spectrum* (dif=0,1,2) (really just |FT|^2)
# NOTE: only the first half! (symmetric)
# weeks: 1280-1959
# 538 clock-days, 231 excluded
# PSD: 1441
97605.2 1.88638 0.0517067
4.79895e+06 71.6579 0.0286106
2.83049e+07 577.506 0.0388029
3.8166e+06 146.046 0.0338838
3.76164e+06 265.532 0.0473387
1.29235e+06 134.272 0.0428205
1.03139e+06 142.239 0.0518043
768622 152.081 0.0633433
540530 141.181 0.0675266
414420 136.254 0.0774793
377874 142.582 0.0963942
302891 136.917 0.10304
229030 135.874 0.122884
208573 140.162 0.132933
182691 132.32 0.153448
158421 140.145 0.176226
136681 142.614 0.204223
117580 137.34 0.21639
117474 154.53 0.262993
92314.1 127.071 0.246789
83753.5 129.846 0.276292
79917.7 138.195 0.324148
71741.7 135.023 0.328742
61571.3 127.406 0.342642
59386.8 138.64 0.401226
55949.7 136.684 0.438393
51390.9 137.153 0.470115
50043.3 134.892 0.494673
46462.2 137.146 0.533971
42420.7 138.577 0.573447
38866 136.709 0.613702
38118.3 141.526 0.675496
35235.2 139.089 0.703311
34268.1 146.892 0.777634
28844.6 130.11 0.731238
27680.8 141.06 0.847853
25625.7 132.285 0.840135
26138.2 134.301 0.88093
23386.6 129.649 0.918766
24523 141.391 1.043
22950.2 139.097 1.08941
20952.1 137.054 1.12399
19245.7 130.125 1.13159
18175.5 131.777 1.18317
17966.2 138.636 1.29141
18089.5 140.578 1.38082
17407.8 140.392 1.41867
16091.4 133.029 1.43967
16128.6 145.713 1.61964
14870.4 136.854 1.56769
13355.1 136.581 1.65601
13868.9 141.809 1.76431
11928 123.683 1.61733
11175.1 122.905 1.67605
10715.9 126.794 1.76629
11059 133.034 1.93358
10457.5 127.733 1.95601
10248.4 132.077 2.06029
9596.4 122.73 1.98884
9134.96 123.624 2.06126
9690.18 134.881 2.33649
9239.46 132.312 2.34627
8737.51 125.277 2.2983
8186.04 127.93 2.43331
8865.27 136.11 2.67474
7584.3 128.864 2.62509
8016.75 134.23 2.80528
7627.44 131.011 2.84582
7208.7 124.216 2.75895
7440.88 135.64 3.11193
6600.1 123.425 2.8931
6799.09 132.288 3.20148
6023.1 118.221 2.93619
6239.58 123.86 3.14379
6285.15 131.816 3.45013
5855.57 123.15 3.32249
6108.51 138.043 3.83505
5441.26 124.433 3.55069
5375.68 122.639 3.56732
5154.58 124.47 3.72032
4735.33 117.345 3.59556
5504.27 136.691 4.26684
4701.55 121.075 3.91583
4578.77 118.655 3.89913
4908.13 128.869 4.35181
4368.05 120.343 4.14092
4197.49 113.266 3.98438
4410.69 125.951 4.53569
4208.12 124.821 4.65724
4075.55 123.551 4.66828
3943.15 121.443 4.71035
3811.77 120.523 4.69236
3810.82 123.458 4.96722
3653.49 127.14 5.28594
3821.92 126.632 5.30807
3454.46 120.678 5.18878
3655.27 121.839 5.31806
3352.58 117.516 5.22687
3236.67 120.096 5.57669
3482.94 128.609 5.97132
3207.15 120.934 5.7549
3106.81 123.363 6.0005
3107.51 124.694 6.16953
3094.45 125.786 6.37646
2948.27 115.819 5.93351
2867.56 120.592 6.32365
2886.34 121.026 6.48323
2470.98 107.897 5.83043
2838.42 122.63 6.71681
2551.57 115.348 6.48693
2678.35 123.787 7.19202
2584.01 116.77 6.83452
2616.28 127.892 7.58791
2420.05 116.324 7.06512
2441.67 114.549 7.01235
2296.84 112.807 7.12582
2307.26 114.196 7.22032
2199.11 113.045 7.35397
2111.55 105.659 7.02612
2067.49 109.375 7.28668
2125.54 111.763 7.64061
2060.56 113.144 7.92815
2085.14 117.535 8.27215
1914.55 110.261 7.92486
2043.68 112.357 8.16477
1884.52 105.973 7.86398
1819.52 114.094 8.50208
1941.81 122.445 9.40598
1776.51 107.755 8.37724
1819.22 112.89 8.8835
1629.78 107.016 8.59787
1772.08 113.53 9.19333
1628.32 105.34 8.81322
1660.4 109.943 9.18815
1625.34 108.505 9.23885
1612.02 108.734 9.41818
1569.93 110.217 9.52351
1531.81 109.604 9.67585
1631.79 109.704 9.9238
1490.49 106.362 9.6431
1534.8 107.436 9.95431
1505.43 109.045 10.2733
1469.97 113.34 10.8708
1459.42 106.483 10.2919
1390.73 99.5727 9.77847
1339.21 103.51 10.2719
1358.35 105.826 10.6993
1417.84 112.148 11.4386
1388.62 115.991 12.088
1253.69 106.791 11.2396
1173.15 100.202 10.5855
1159.78 94.3646 10.1826
1307.4 107.62 11.6414
1254.63 103.513 11.312
1159.42 100.834 11.1351
1207.59 102.263 11.6782
1134.44 99.0413 11.3184
1099.68 97.5831 11.4172
1187.37 110.536 12.8518
1150.51 106.027 12.768
1015.18 95.1093 11.4947
1097.11 103.534 12.5817
1010.37 99.4441 12.3305
1081.13 99.2114 12.3887
1082.6 104.144 13.3433
989.654 96.6092 12.5141
949.949 97.7735 12.5531
973.77 95.8862 12.6359
1001.87 99.6257 13.2333
937.235 100.125 13.5217
939.581 102.159 13.8398
921.612 98.0128 13.4257
905.639 94.6088 13.0346
900.755 89.4908 12.6787
876.584 92.2873 13.2173
934.417 104.014 14.9477
836.696 90.3329 13.2014
890.217 95.1955 14.1165
835.163 93.8165 14.0222
851.14 97.8765 14.5617
757.817 87.4732 13.4468
790.962 94.1907 14.3631
804.98 95.1254 14.7168
806.416 94.3188 14.8491
746.32 88.769 13.9981
750.289 92.7828 15.0997
765.597 96.2698 15.699
759.449 89.3492 14.7438
718.331 91.2618 15.0188
719.997 87.1181 14.5492
705.056 85.6419 14.5343
754.878 96.0336 16.5958
729.108 93.1942 16.3532
697.07 88.694 15.4315
686.86 92.423 16.2581
673.692 87.1169 15.6951
698.979 93.8112 16.7183
689.337 93.5474 16.8247
631.381 89.4026 16.4754
614.584 84.8635 15.9368
626.227 86.1821 16.2716
671.281 92.3256 17.3336
615.582 88.6395 16.996
604.33 81.8006 15.7933
581.489 83.6529 16.1965
582.784 78.03 15.5312
596.56 87.5756 17.3639
571.997 83.9044 16.6555
636.328 89.8139 18.1474
564.804 82.8297 16.9354
529.183 81.5514 16.8192
578.442 83.9896 17.7021
529.901 87.2677 18.284
522.809 85.9416 18.2311
532.486 82.6247 17.6876
511.996 78.6238 16.9326
505.943 81.3821 17.7402
530.449 80.5671 17.7035
488.185 81.4749 18.28
519.257 85.1978 18.8914
501.627 79.7963 18.1138
488.46 81.3784 18.2983
496.762 82.7228 19.0834
464.705 81.1303 18.8041
458.426 75.6644 17.8399
472.038 80.6804 19.1556
428.06 72.8241 17.4875
437.132 78.2807 18.9139
466.359 78.0643 19.0798
446.949 80.427 19.5168
440.873 79.6989 19.7807
408.758 71.079 17.2357
397.191 72.6921 18.4777
386.529 72.0887 18.4135
440.032 79.5838 19.8961
418.078 83.2625 21.6752
452.164 86.1943 22.4819
402.765 73.5213 19.4444
393.644 73.5311 19.2789
396.856 72.9988 19.8304
376.864 72.0915 19.6514
394.405 78.2327 20.6024
394.695 77.0396 21.0445
383.626 73.1613 20.0715
394.346 79.1334 21.8091
382.658 74.994 21.0639
347.575 66.9743 18.8689
363.275 76.3168 21.6151
351.861 69.3097 19.7746
397.483 78.4795 22.5496
380.461 77.2684 22.4031
378.776 73.7452 21.5893
352.64 70.655 20.8489
327.577 68.193 19.9677
349.939 73.061 21.819
319.978 71.0226 21.7877
336.875 72.6828 22.081
332.197 70.9687 21.5271
342.185 71.9177 22.079
313.367 67.955 21.2578
322.835 74.5739 23.5997
323.569 71.6616 22.5999
313.095 71.9281 22.4645
308.495 73.8658 24.2465
290.952 66.8001 21.1727
303.768 65.4961 21.3578
284.183 68.8519 22.5356
296.821 67.3938 22.2766
293.925 71.572 23.9491
310.241 73.6604 24.2291
306.799 66.7645 22.8856
291.586 69.2781 23.5873
280.716 68.0405 22.9021
281.871 68.0669 23.7761
272.882 66.8305 22.9984
267.06 60.8118 21.7829
272.284 63.8918 22.4405
280.444 64.6247 22.8439
259.265 58.6658 21.49
265.594 65.2866 23.2359
264.12 69.4326 24.6068
254.914 67.577 24.573
258.796 67.1756 24.8795
256.148 63.9926 23.5378
280.811 70.9314 26.1164
272.885 67.6759 25.2124
248.462 63.5935 24.3916
261.369 63.4651 23.5759
234.745 60.2238 22.9348
232.848 63.0935 24.3409
240.496 68.0532 26.2627
244.218 64.4568 25.3988
254.981 62.1736 24.1632
224.022 59.9426 23.7563
235.113 61.97 25.0467
233.72 63.8523 25.6307
234.828 64.224 25.4734
221.117 58.2475 23.3452
225.287 61.2485 25.2385
222.041 64.3706 25.7419
217.256 63.0699 26.5818
218.815 60.8188 25.2867
206.265 55.878 23.1332
231.105 65.7537 27.731
216.076 59.4882 25.243
210.662 60.8896 25.7791
194.327 60.8411 26.682
217.743 57.3084 24.5073
191.236 60.6337 26.2397
187.808 54.7075 23.5775
215.145 63.1927 27.7672
192.419 52.2177 23.144
197.35 58.4781 26.329
197.354 58.2938 26.4046
209.892 62.4159 28.2554
192.301 57.9462 26.0944
192.473 57.4915 26.3356
183.496 58.2857 26.5579
189.708 57.6125 26.813
193.552 58.2083 27.2523
178.149 53.8752 24.9979
176.248 56.1905 26.1052
179.206 54.8553 26.596
185.145 58.9337 27.4031
166.954 52.1946 25.3744
179.676 55.2855 26.1413
174.911 55.9253 27.3546
178.13 56.5379 27.9828
174.029 52.6574 26.268
184.223 56.4913 27.8085
175.166 55.7619 27.2225
167.192 52.9711 27.0475
172.306 56.0872 27.6465
172.907 59.5421 30.1145
177.027 58.7333 30.1161
170.082 60.0832 30.5749
161.483 52.4804 27.2993
159.809 53.5849 27.3215
147.593 49.8891 25.868
159.091 55.7379 28.6754
157.355 52.0797 27.8255
159.312 53.441 28.0061
157.176 52.7946 28.4266
149.962 51.2793 27.1191
147.814 53.0733 29.2404
154.531 52.4385 28.2754
150.553 52.5935 28.7999
157.856 54.027 29.431
145.358 51.8464 28.4725
158.445 56.0044 31.1356
148.502 51.4356 28.3661
144.95 54.9288 30.3312
149.738 48.646 27.7266
151.154 52.1574 29.1453
145.78 53.1016 30.4166
140.992 48.1712 27.8181
140.482 50.3809 28.8212
133.67 50.1845 28.5189
134.955 50.4125 28.9205
142.528 50.4817 28.7896
133.334 49.7907 29.8389
134.411 49.9842 30.0658
144.035 52.8361 30.2101
132.936 51.6114 30.5573
127.88 50.9281 31.2786
130.819 48.4875 29.3063
125.263 48.9931 29.3166
129.681 46.696 28.1577
118.64 48.8682 29.9855
124.867 47.3885 28.8158
125.46 46.039 28.2503
114.639 43.5961 26.5535
121.905 45.1497 29.0788
128.257 46.0344 28.6228
121.275 48.1892 30.1171
116.625 44.6984 28.0078
123.304 45.5446 29.4285
117.921 46.9018 30.0966
107.983 42.6212 27.4569
115.752 48.3471 31.7801
125.077 47.761 30.6398
115.931 45.261 29.8524
124.985 45.4684 29.131
108.891 47.2114 31.0101
115.777 48.7759 32.5814
115.769 46.6407 30.8088
120.244 47.7575 31.0887
112.103 45.1854 30.3996
108.337 43.0298 29.3068
107.458 45.1569 30.9851
102.061 44.5552 29.9039
116.106 46.1852 31.7264
116 47.3382 33.201
108.155 44.1179 31.0235
111.931 45.8075 30.6522
104.426 46.3223 32.8092
109.464 44.5344 31.038
106.063 43.4373 31.0206
109.873 48.8464 33.4323
109.847 48.9386 34.6284
98.2212 43.9596 31.5663
100.805 41.407 29.8377
97.0369 43.6595 31.773
98.8121 42.9492 31.4889
108.091 45.069 31.6307
98.6571 41.0682 30.8404
100.832 42.5751 31.4993
99.8607 42.1745 30.6832
96.5845 41.065 30.3743
98.395 42.2053 31.7383
98.0366 43.9862 32.9609
94.1502 42.5296 31.6285
94.5634 40.5982 31.2899
105.709 43.8278 32.0749
103.51 45.7498 33.764
92.2627 43.7951 34.4099
86.9213 42.2601 32.4506
100.67 42.6536 32.6594
89.9453 36.9138 29.2152
97.6383 44.9225 34.1816
93.8759 41.0338 32.6978
94.8069 41.4001 33.0605
93.5087 42.0197 32.3419
85.9568 41.894 33.0918
87.9112 42.3029 33.5867
91.1359 40.7299 32.6983
95.6307 41.8391 33.3364
84.6983 39.3534 31.0126
85.1791 41.6493 34.1565
85.1444 39.0982 32.035
84.7365 40.0877 33.0063
84.4226 39.1288 31.9007
86.1775 39.8311 33.1814
85.4747 39.9329 32.9144
78.0989 37.4201 30.4838
85.0098 38.2591 31.3738
88.0119 42.2441 34.8141
84.0719 39.1774 32.6223
76.3538 37.711 33.1194
81.3868 39.0741 32.7475
74.0446 36.4389 32.1108
79.6049 38.0216 33.0622
89.8153 41.1654 34.9604
79.579 40.7076 35.227
82.4 40.4696 35.6962
77.8829 37.0258 32.829
77.9491 38.4632 33.2271
74.3208 38.6857 33.9114
82.5657 39.6363 34.6024
75.9956 37.981 34.0536
76.0304 39.9057 34.8018
70.3621 34.9992 31.5211
75.4101 37.2071 33.2279
72.4416 35.2622 30.5691
70.6598 36.5715 34.0802
74.9691 35.7865 32.8169
73.2633 37.152 33.2142
70.5438 38.2134 34.3916
68.6634 36.0678 33.6008
71.4536 37.4945 33.6683
71.1654 34.6838 33.1217
74.5099 36.5729 34.3262
73.9524 36.8505 34.282
71.1301 36.0149 34.1211
74.3473 37.4918 36.0941
69.7218 34.857 32.614
65.479 32.7914 31.1936
64.4504 35.5252 33.9489
72.5093 35.6621 33.2229
65.3896 34.1511 33.7123
74.7185 39.4068 36.5918
72.9212 39.6135 37.986
66.9312 36.5036 35.2153
68.3201 34.9892 35.0701
64.8768 35.8097 34.9041
61.2196 33.0402 32.098
63.4178 35.3934 35.5661
65.8621 36.4355 36.4365
65.8122 35.9564 34.5322
65.1465 34.2951 35.4434
69.214 38.2052 37.9185
60.5841 34.4576 35.2089
69.1057 34.5206 34.277
61.6547 33.7071 34.774
62.3783 34.8383 33.1189
55.2387 32.7767 33.8936
58.3854 30.5564 30.9859
63.1264 33.0437 34.6705
60.8637 32.3578 33.1508
67.1711 34.5454 35.13
63.7882 34.4089 35.5051
56.4258 29.7022 31.0585
56.5709 31.2767 33.2681
58.5042 32.1134 33.5558
62.5198 33.5237 34.6649
54.0454 31.6392 33.318
56.1166 31.6745 34.0195
61.9958 35.6084 36.239
52.6184 30.0651 32.5918
52.8595 30.4444 32.8255
58.5253 33.8687 37.6046
52.9976 30.0455 32.3563
59.6901 33.7459 35.678
57.8193 31.3402 35.4144
55.9132 31.5507 33.8679
55.5921 31.3603 35.1505
60.0348 32.6764 35.6671
56.5502 33.3923 36.4864
55.9057 30.5833 33.2725
56.5549 31.8192 35.5232
54.0971 32.1552 36.4904
55.2875 32.8348 36.401
54.4532 29.5415 33.9619
61.6279 33.5797 36.2766
55.7424 33.0358 37.7595
53.6627 33.2661 38.1479
56.2608 33.4012 37.36
54.2608 31.4913 36.867
53.2858 31.2977 36.3688
52.4392 29.9217 33.149
53.3866 30.5073 34.7273
49.5552 31.805 36.9773
50.965 30.5572 35.445
51.6316 31.6709 36.0666
51.1586 30.6727 36.6788
51.1011 29.9943 35.2576
51.3074 30.574 36.8386
52.4173 30.089 35.4036
50.6756 28.6796 33.8547
51.8985 30.4652 36.1827
50.2338 29.2707 34.4236
51.4387 30.4264 35.4891
51.0496 30.7684 36.3526
50.2857 28.9013 34.2743
45.9897 27.968 34.3659
49.2371 28.8625 34.1811
48.7808 31.3141 39.7068
47.788 31.1968 37.8185
46.2049 29.1916 36.1663
48.4223 29.7114 35.8543
46.5299 28.7705 36.0921
52.6 31.6495 38.8098
45.1725 26.4297 33.8554
48.7388 30.8078 38.3816
48.7299 28.6343 35.4704
47.137 29.829 37.6954
48.0449 28.8981 35.486
47.0397 29.5062 36.8874
45.7223 30.8272 39.0353
44.4941 27.1861 35.2812
46.1224 29.4805 36.7865
45.8469 27.9806 36.5953
44.5937 26.8361 34.4245
45.8111 29.4039 38.1025
44.9665 25.5617 32.9458
42.7575 28.1196 37.5939
44.7427 28.4816 35.4289
45.4045 27.6524 35.132
43.1133 26.9145 36.8145
45.3659 29.6756 38.6016
42.5031 26.3519 34.9815
41.0069 23.7712 31.7337
43.3504 25.9133 34.6034
44.4623 25.1109 32.1291
44.6807 30.2749 41.4922
40.0094 25.5405 35.2513
44.5213 27.4741 36.3156
41.7022 26.3241 33.8538
39.4979 24.5585 35.154
45.0505 26.5323 34.7264
42.5826 28.4009 36.6719
40.1578 25.6896 35.8534
44.4772 28.8184 39.4538
39.7911 25.2868 34.4155
42.2722 27.8482 38.026
39.5652 24.0319 34.0624
40.619 26.7043 37.5046
41.0776 26.3563 36.5782
40.3366 25.3876 35.7297
42.0643 29.3904 39.6912
40.9931 26.5961 36.8217
38.2733 25.0794 35.3946
41.2726 27.419 38.3231
39.7104 24.2036 34.481
38.3425 24.4217 34.9531
37.895 25.1266 35.7521
39.4028 25.6153 37.1224
38.9093 22.8519 32.6562
39.5378 25.2084 34.9715
38.1573 25.826 37.4651
38.0544 25.3714 36.7392
37.5467 24.9415 36.5114
40.0053 28.1244 40.1353
38.2182 24.4825 35.1717
37.9683 25.811 38.4677
36.8687 24.4973 35.9129
37.8723 24.515 36.0517
37.1754 24.306 35.1802
36.9497 24.1026 37.1456
36.9344 24.5222 35.5017
36.3129 25.3618 38.7028
35.5084 23.3476 32.3329
35.2552 24.2449 36.771
37.7815 24.9434 38.0053
37.5361 24.7941 36.527
35.8861 24.9082 38.4463
38.0091 27.5327 39.5876
36.9771 25.2394 37.1342
35.2832 23.7972 37.6484
36.5148 26.2947 40.0843
39.5742 27.8002 40.4618
35.488 24.5592 38.8983
34.5164 23.7225 36.2931
33.559 24.025 37.2276
35.7035 22.6026 33.9017
35.1725 22.0658 33.5883
34.2538 24.2599 37.6179
34.3998 24.4128 38.5362
35.2766 24.7928 38.7761
34.347 23.2873 36.2079
33.9598 21.8566 34.6712
34.1548 23.04 36.2569
33.9582 24.0434 37.9428
34.9967 23.5884 37.5758
33.0948 24.3667 37.8563
33.8502 22.7048 37.554
33.2998 23.3714 36.693
34.1908 21.3126 33.5064
33.3055 22.6615 36.8884
31.9754 24.5864 37.701
34.1635 24.3287 38.4766
32.049 22.8494 37.8665
33.4906 23.9477 38.0887
31.0668 22.2509 36.9448
31.727 22.5364 35.927
32.5235 23.6821 38.3145
30.9109 21.0527 35.4506
31.1401 22.4866 37.0167
32.8836 22.5035 36.5752
29.1361 21.4332 34.6677
32.0425 20.7644 34.6505
31.8474 22.1941 36.4998
31.4275 21.6564 35.5186
32.3929 23.4719 38.7297
29.9771 20.1024 35.3044
31.1464 23.2362 41.1411
31.8056 25.2077 41.9068
33.7921 22.6356 39.0317
33.368 22.2734 36.0294
28.637 22.0065 37.7452
32.6953 23.0646 38.394
30.1956 20.8681 33.8543
29.4853 21.1738 36.1314
31.0881 22.3327 38.386
31.0733 22.8006 39.1664
30.3378 21.462 37.2957
29.2877 21.326 37.0561
30.8022 23.475 40.5229
27.4331 19.9385 35.889
29.938 21.0123 35.7695
29.1543 22.0165 37.825
30.4048 22.3456 38.0167
29.3169 21.4387 38.8645
30.026 21.5042 39.3686
30.9464 21.4803 34.7127
27.6541 20.4501 34.7285
28.373 22.556 40.3686
28.5351 19.7555 35.2256
29.9178 21.1631 37.1267
29.0568 22.1545 38.3772
26.7262 20.1758 36.7852
28.9157 21.8033 40.5392
30.3645 22.4852 39.1774
27.0209 20.9941 38.8618
27.9368 19.6002 35.1964
27.6132 20.5026 37.2232
29.6579 21.9304 37.9954
28.4417 19.8879 36.9574
29.1732 21.7661 39.6121
27.1547 19.5214 35.9917
28.3197 21.3896 38.5518
27.4275 20.1412 35.8293
25.7847 20.3683 38.5643
28.3073 20.77 37.0699
27.0342 20.2104 36.8212
26.0943 19.8164 37.986
29.6186 21.5781 38.6863
26.4725 19.1717 35.274
25.3226 17.9018 35.2339
25.9369 19.2132 36.7423
25.6434 18.854 34.2344
25.964 21.2023 38.7935
27.6046 20.299 39.1017
27.0558 20.0682 38.3516
26.8137 21.6598 40.0903
27.2236 20.4588 38.2723
25.5278 19.5869 35.8929
25.7673 19.4481 36.8639
27.3924 21.0751 39.6739
27.0853 20.3105 37.823
25.7575 19.9802 38.0202
24.4469 18.7007 36.8645
24.2465 18.2668 35.2265
27.8774 19.5044 37.4376
25.3714 18.7921 37.017
26.5818 19.8567 37.3348
25.3198 21.0416 40.5176
26.2272 20.289 39.7524
25.1522 19.4769 37.3461
26.2247 18.9277 37.9971
26.0162 19.1033 36.7542
23.8476 18.8068 37.5656
25.9039 20.3957 39.4389
25.2753 19.4246 37.3999
22.9264 19.3681 39.1142
26.0591 19.6646 39.1568
23.9709 18.9028 37.4851
25.6144 19.4327 37.5468
23.3229 18.2427 38.6264
24.9204 18.728 37.4467
24.1194 18.6241 36.1882
24.568 18.0689 36.3417
23.7351 17.6044 34.904
22.4517 18.3236 37.6642
23.1109 18.3329 37.6808
23.6514 17.8388 36.2407
24.9936 19.6546 40.678
25.0523 20.41 41.8641
23.7625 18.0768 36.5477
25.4895 18.6687 37.9619
25.2759 19.5224 40.0157
23.1895 17.5139 34.8728
22.9322 17.6996 35.0743
21.2403 18.9471 37.5609
24.5985 19.8389 40.8186
22.4547 18.0246 38.6391
24.0775 18.2908 36.4508
22.4522 17.8781 36.3501
22.9226 17.7257 38.0014
23.4677 18.1701 37.414
21.6636 17.2875 36.2949
22.7671 17.8625 38.0009
23.2715 19.1342 38.5571
21.6399 16.9 36.0759
22.034 18.548 38.2725
22.3882 18.7853 38.763
21.5325 16.5162 37.1038
22.3239 16.8079 36.6457
21.807 18.2674 37.069
21.8401 17.3628 37.5396
22.0023 18.1472 37.2869
21.0378 16.1453 35.6513
22.84 17.5262 36.148
22.6917 19.2167 40.0407
22.6346 18.244 38.2551
21.6481 17.1463 37.6226
21.2014 16.8053 37.1718
21.4233 16.4115 36.0037
21.1595 17.0396 38.7999
22.631 16.9587 36.3447
20.8761 17.4028 40.2418
23.6351 18.9731 40.2869
22.4419 17.3124 37.4183
21.9911 16.8949 37.0829
21.1883 16.4395 37.2222
22.5636 17.2546 36.3765
21.391 16.3795 34.0897
21.2422 16.7116 36.9428
21.2512 16.8515 37.4394
21.1546 16.1618 37.8771
20.7505 16.15 34.1366
21.5213 17.5184 37.3569
20.0797 15.3137 34.0867
20.3139 16.9568 39.079
21.1073 15.9817 34.9841
20.2907 15.562 36.4807
21.4725 15.9614 34.8843
20.3936 17.3437 39.4769
21.1564 17.1239 36.6805
19.911 17.4804 40.5192
19.6731 17.2979 40.1234
20.5602 15.9596 36.8013
19.8963 16.661 37.0641
20.6958 15.8315 35.4497
20.3574 15.9463 36.3706
20.3307 16.2744 38.0906
19.5184 16.028 34.5577
20.5809 16.5826 38.1723
19.8455 16.4159 37.2039
20.5906 16.0081 35.222
20.1102 15.403 36.253
21.1995 17.4749 40.4253
20.4053 14.8657 35.2923
20.0699 17.2248 36.8895
19.2885 15.7991 38.3543
19.4384 15.3519 35.2497
19.1202 15.7284 35.9023
19.2218 16.7036 39.4304
20.3151 15.4876 35.7351
19.6134 14.8113 37.4004
19.9484 14.7059 34.003
19.5121 16.5766 39.5434
19.4952 14.9276 34.6769
19.8081 16.3805 39.1193
19.296 16.1634 37.9152
18.8363 15.7412 34.9773
18.7724 16.5028 39.4065
18.2967 16.3419 40.3004
18.8595 16.5373 40.9132
20.0325 15.3986 34.0582
18.8187 14.1116 33.2747
18.8564 15.7504 38.2963
19.3908 15.4898 38.5817
18.0114 14.6049 35.6142
19.6348 14.4905 35.0976
18.7927 15.0408 35.2936
19.4914 14.6707 35.0371
18.9065 13.3449 33.2352
19.8408 15.0547 36.1281
18.5908 15.7344 37.4329
18.8933 15.2254 37.554
19.2193 15.3269 36.953
19.4314 16.1337 38.5498
18.1017 15.8456 39.1367
18.9706 15.2779 38.2872
18.4378 15.5493 36.8882
18.983 15.185 38.7778
19.8975 14.6825 34.0689
17.8993 14.9254 39.2017
18.732 15.5783 37.4105
18.5236 14.2396 35.6296
17.5877 14.7566 38.1317
19.0086 15.4767 36.503
17.445 15.0536 36.8321
18.9176 16.5042 41.795
18.5598 16.96 41.2214
17.9263 13.4326 33.8126
18.5762 14.4278 36.7507
18.0178 14.05 36.4568
17.3565 15.3324 35.5334
17.7931 14.9949 37.9255
17.271 14.3812 37.298
17.7741 14.1798 34.9592
17.7917 15.2219 39.7568
17.2089 13.9256 35.8661
18.4226 15.3051 39.1229
17.5647 14.357 36.4548
16.8808 14.1835 36.6273
18.4718 15.5204 38.991
18.2118 15.0437 37.8121
17.6877 14.7372 38.072
17.9548 14.8836 38.6681
18.0884 16.3696 40.9232
18.4043 14.55 36.6294
17.3391 15.1805 39.062
17.9202 14.0361 35.6674
16.4851 15.0973 39.7659
17.781 14.0696 35.9276
17.4455 14.8073 38.1449
17.0741 14.3347 38.5949
17.3334 13.871 37.9571
17.6347 15.6737 41.1627
17.2829 14.429 35.1144
17.4671 14.4061 37.0429
16.6492 13.7908 37.5991
17.0036 13.6731 35.7276
17.8526 15.629 37.7511
16.4155 13.6054 36.4051
16.7961 14.7997 39.8233
17.9258 15.133 40.5731
16.312 13.973 36.9111
17.0412 14.342 36.1759
16.6031 13.3687 36.4924
15.8783 13.1975 34.9336
16.3868 14.4004 39.3097
15.5913 13.0913 35.1507
17.4944 13.6155 37.2307
16.1848 13.7496 36.0402
16.3169 13.4596 36.1055
15.7029 14.3493 37.192
15.75 13.432 35.4832
15.7893 12.7213 36.5838
16.5245 14.2489 37.7064
16.578 14.4136 37.7176
16.9013 14.8429 39.8896
16.4529 14.6498 38.6581
16.6006 12.7056 34.2258
15.0767 12.1847 33.3469
16.1017 12.7227 36.1553
15.3039 13.5464 36.802
16.3219 13.3936 37.435
16.497 13.4384 37.3336
16.1518 13.5269 36.0139
15.7163 13.2104 35.7996
15.5952 14.2153 37.8681
15.4751 12.9018 37.1345
15.9959 14.016 35.049
15.7123 13.0091 36.2909
15.658 13.184 35.9349
15.2508 13.6371 39.0428
16.4438 12.1994 35.6711
16.3339 14.2955 36.8106
15.8621 13.6847 38.7826
14.8643 12.1092 35.7604
16.7235 13.0049 33.0114
15.8909 13.0703 36.6061
15.8707 12.6124 37.811
15.1349 13.1862 35.1932
15.4652 14.1393 39.6743
14.949 13.3802 40.1188
15.773 13.7818 37.5189
15.4171 13.1615 37.0314
15.7774 14.369 38.1369
15.5641 13.0305 36.7856
15.2568 12.5183 35.6754
15.7174 12.4192 35.2788
15.2844 13.0062 34.9192
14.9302 12.9439 36.5573
14.821 12.8837 37.14
15.1965 12.3085 35.4584
14.6417 13.2635 37.7547
14.7024 13.37 37.5009
14.9678 12.4018 35.7707
15.0657 12.7228 33.5109
14.747 12.2367 34.4099
14.6215 12.472 37.1632
14.775 11.4442 34.1252
14.7493 11.9844 32.6529
14.302 13.1412 38.3818
14.6674 13.1048 39.1041
15.1752 12.5887 37.4779
14.4236 11.7463 34.3807
14.0446 11.9496 32.4163
14.2076 11.8953 36.1676
13.9127 11.8759 35.0157
14.8595 13.0483 37.7321
15.6241 14.5256 38.3816
14.5579 13.1674 39.97
14.7243 11.3816 33.0663
14.2341 12.268 36.5331
14.5737 13.1942 36.8305
14.2607 12.4609 37.9251
14.7639 12.9181 36.679
14.0408 10.873 34.2832
14.1805 12.4742 37.666
13.81 13.5608 37.4179
13.459 12.3175 37.8879
15.5163 14.0337 39.9562
14.8017 12.4213 35.9497
14.2592 12.9803 38.5786
13.7834 12.6056 38.843
13.7078 12.0091 35.0466
14.1846 11.5288 35.8173
14.3483 11.0307 31.5038
13.8593 11.1803 35.7307
14.2384 12.8883 37.7398
13.6209 11.9949 35.5235
14.7213 11.9388 36.3806
13.6001 12.8118 34.9765
13.9579 11.6431 36.2119
13.3805 12.0939 35.5011
13.3709 11.6981 35.634
13.5611 12.2844 38.3275
14.0919 11.7121 33.7379
13.8145 11.8413 34.3216
13.6035 12.1001 35.7377
13.1904 12.7615 38.2006
14.4265 10.5387 33.9597
13.8764 12.2537 37.2696
13.8824 12.1966 37.3567
14.2212 10.9128 35.6376
13.8676 11.9954 36.2443
13.9803 12.7043 41.2026
15.1367 12.6901 36.1063
13.8283 11.7595 34.6479
13.3588 11.854 34.5947
13.8158 12.2767 40.1469
14.3252 11.7678 36.1546
13.0171 11.5933 33.9705
13.3723 12.4734 40.0406
13.5123 11.2075 32.5719
13.8671 11.9731 37.9035
13.4524 11.563 34.91
13.8564 11.1316 34.2215
13.6952 11.7123 37.2286
13.6308 11.5896 33.7322
13.3192 11.6487 35.2633
12.7649 11.7774 35.908
13.3376 11.2557 33.3217
13.4155 11.7135 38.6534
13.4123 11.4645 34.6225
13.4601 10.8965 34.7756
13.0658 12.1109 37.6641
13.3338 11.6156 34.9921
13.8555 11.5241 36.0429
13.1786 11.7009 34.7642
12.8655 10.8451 34.4969
12.8716 11.4202 37.1779
14.1004 11.8771 34.5788
12.5748 10.5707 34.9233
12.9665 11.1303 35.9889
13.4053 10.7041 34.2811
13.0742 11.0667 35.8927
13.1484 11.9592 37.6543
13.9624 12.4295 38.4568
13.7471 11.4183 36.9125
12.5173 11.6842 34.3344
12.7472 10.5344 33.0125
12.4087 10.6388 35.4267
12.3777 11.6771 39.0452
13.6512 11.4274 36.3301
12.7666 11.9572 36.4307
12.4422 11.128 35.1783
12.401 10.6074 33.586
12.4277 10.5579 34.933
13.2198 11.6472 36.1292
13.238 12.6725 41.1497
13.2937 11.0585 35.2739
13.2979 10.888 36.4276
12.9425 11.1932 34.5553
12.5759 11.3695 35.7629
12.565 10.7698 34.6415
12.1197 10.7237 34.7523
12.9334 10.2894 35.6127
13.021 12.0692 37.9028
13.1057 11.1552 35.6491
12.719 11.2253 35.7652
12.838 10.2258 32.787
13.0253 11.2166 34.827
12.7225 10.7775 34.0605
11.9162 11.1736 35.2259
12.1899 10.509 34.521
12.3478 10.2446 32.9603
12.3819 10.4797 35.2683
12.6021 9.97981 34.4758
13.2828 10.3064 33.8238
12.57 10.8121 34.5185
12.6068 10.8602 34.3866
12.7801 10.7424 35.0768
13.1708 11.4724 37.0899
12.413 11.016 39.6517
12.2528 11.4461 35.5988
12.2213 11.7248 38.2835
12.8135 10.2448 35.8185
12.6636 11.3282 34.5581
11.895 11.66 37.8847
12.3903 10.8133 35.0832
12.2178 10.601 35.3936
11.7342 11.0303 39.0161
12.5318 10.803 32.696
11.7366 9.60789 34.0893
12.2741 11.1854 37.1742
12.3465 10.5042 35.5257
12.3847 11.0576 34.9
11.7574 9.79499 34.105
12.038 10.5487 33.3579
12.0354 10.7051 37.2728
12.4274 11.054 35.5107
11.4364 10.2866 36.6461
12.962 10.5551 33.8536
11.8007 9.65125 35.5178
12.5843 11.456 36.7739
11.4747 9.64427 30.7943
12.2744 11.0903 35.5489
11.9124 9.99115 35.8771
12.3937 10.2475 34.0854
12.1473 10.0535 33.3298
11.9737 10.2853 33.6567
11.7634 10.1682 34.8037
12.4992 10.9829 37.7369
11.5522 10.7539 35.9605
11.7786 9.82466 35.2177
12.73 10.0887 31.4863
11.4696 10.533 35.4886
12.207 10.5052 35.6977
11.5159 9.80787 34.661
12.1535 10.8763 37.8744
12.477 10.455 33.808
12.2106 9.76225 34.9541
11.6946 10.1734 36.3078
12.2452 10.986 33.0042
11.7495 9.61458 35.8042
11.6292 9.51357 32.7072
11.6515 10.7291 36.3281
12.4332 10.2795 36.1587
12.0324 11.0016 34.3492
11.0931 9.06282 32.2907
12.101 10.1415 36.2876
12.108 10.4595 35.661
10.9679 10.3839 35.8606
12.403 9.99 31.5754
11.1323 9.61775 33.3502
11.9622 9.88264 32.7347
11.4364 9.92307 35.0838
11.6707 9.64933 33.3348
11.7339 10.9219 37.9021
11.2555 9.39223 35.7232
11.546 10.5589 34.3767
11.1708 9.18477 32.0855
11.272 8.79831 30.8924
11.5113 10.1301 34.2785
11.087 9.2048 30.8571
11.1426 9.24576 32.9712
11.2765 9.51902 33.8362
11.619 8.81014 33.001
11.247 9.88991 34.7819
11.9806 9.90137 34.9124
11.2624 10.0974 33.1713
10.777 8.88305 30.8258
10.9678 9.64477 32.8511
11.2713 9.27956 33.3963
11.1727 8.99611 29.5699
11.246 9.10816 32.6393
11.2353 10.0513 32.6323
11.268 9.16441 36.19
11.4761 10.0949 35.3684
11.3832 10.0899 36.7666
11.4191 10.4222 36.1767
11.2561 9.71389 35.3488
10.7597 10.1345 33.0356
10.9119 8.6832 33.2519
11.414 10.1793 34.5145
10.8615 9.53002 32.9679
10.9396 10.2003 35.3487
10.7123 9.06067 34.9087
11.3936 9.80068 33.2838
10.9915 9.03234 34.9996
11.5984 10.2443 37.0491
11.6557 10.2054 33.4335
11.2413 10.1585 37.1199
11.9186 10.6245 38.2729
11.7127 9.76558 33.5626
11.1501 9.53821 32.9277
11.6013 9.30661 33.9105
10.8547 9.93485 34.2428
10.8398 10.0064 37.4468
10.5632 10.2314 37.6847
10.9821 9.49385 32.2366
11.0087 9.37083 30.6734
10.4712 8.68263 33.3179
11.3922 9.37919 35.917
11.4568 9.71387 35.5181
11.4357 10.578 35.2806
11.1178 9.99493 34.7539
11.197 10.2886 34.5458
11.4462 10.171 38.2897
11.1925 9.98174 34.8033
10.6505 9.70738 35.9941
11.4456 9.65534 36.5492
10.9555 10.0502 37.6041
11.1584 10.0978 36.2697
11.0978 11.0596 38.995
10.8155 9.62909 34.1295
11.0184 10.4132 38.1191
11.6209 9.3686 33.9675
10.8839 10.2309 37.3333
11.1378 10.0406 35.7519
11.1334 9.71241 35.5298
10.9288 8.4006 29.4943
10.8104 9.43734 33.1744
10.4256 9.49612 38.1808
10.8741 9.54006 33.599
10.6355 9.12403 33.8845
10.6225 9.71696 33.9482
10.9807 9.71636 38.1143
10.9122 9.25733 32.8824
10.3687 9.98612 33.9954
10.355 10.6969 39.474
11.1494 9.00122 34.0258
10.5645 9.84808 35.5434
10.9001 9.26564 34.094
10.3505 9.72943 33.4261
10.7668 9.58682 34.2848
11.2292 9.17993 34.1724
10.7065 9.29883 33.1026
10.6545 9.38539 34.5004
10.4644 8.70541 34.4166
10.7044 9.30695 35.5231
10.5879 8.99753 31.3094
10.367 9.86514 34.1407
10.9845 8.4322 32.9121
10.1629 8.62716 31.6961
10.8318 8.91768 32.8928
10.0599 9.96913 34.7832
10.1431 8.87441 33.2858
10.1471 9.31992 32.5505
10.4637 8.80078 35.0611
10.8498 9.72928 35.0655
10.5629 8.67764 33.7746
10.4045 9.91094 34.6582
10.708 8.65498 34.377
10.8999 9.3988 32.8192
10.7444 8.41156 33.9355
10.6239 8.68611 32.4963
10.2358 9.32062 34.0792
10.4833 8.70394 33.5078
10.4531 8.83186 29.8156
9.9352 8.68559 32.4688
10.0982 8.39407 33.5081
10.5758 8.6641 31.4894
10.4885 8.7875 33.2531
10.3384 9.38453 32.942
10.8959 8.54011 32.134
10.2719 8.95498 33.251
9.98486 9.36628 35.6909
10.4311 8.8487 37.1206
10.6098 10.2564 34.4744
10.3976 9.25536 35.6296
10.4357 8.62204 31.8217
10.4699 8.68981 30.5511
10.2357 7.81466 33.1293
10.4558 9.47433 33.2038
9.9913 8.54825 32.9983
10.4113 8.46496 31.0551
10.3497 8.03777 32.0338
10.0804 9.03763 32.7843
10.678 8.26012 32.6016
10.376 8.63206 31.278
10.2275 8.94027 33.4966
9.94926 8.21986 31.5475
10.4752 8.47636 33.8936
10.879 9.19961 33.1056
10.064 9.44672 34.7233
10.203 9.25218 32.4866
9.75812 8.08052 33.1363
10.0461 8.20772 30.5701
10.2534 8.78934 31.0285
10.2563 8.58509 32.4939
10.323 8.88406 33.626
10.2459 8.75629 34.3994
10.3888 8.57383 33.9676
10.2793 8.85015 32.3154
10.6713 9.4823 37.4257
9.89669 8.46548 30.118
10.2918 8.4749 31.6665
10.0682 8.41001 31.4426
9.8527 8.74954 32.9336
10.0977 7.92657 31.0245
10.3884 8.65483 34.7851
10.4897 8.78851 33.0206
10.3989 8.93171 32.5606
9.93546 8.59322 32.8044
10.3042 8.31984 34.821
10.5167 9.58909 32.0866
10.0159 8.84867 34.1639
10.1413 8.39266 34.9293
10.1194 8.87545 34.7977
10.3693 8.93953 34.0535
10.7467 9.33002 34.7243
10.6172 8.33994 31.2358
10.1995 8.99655 36.7373
10.7619 9.13076 35.1634
10.2794 8.63763 33.903
10.0307 8.31976 30.4736
10.412 9.08108 35.4181
10.0583 8.96749 32.6236
9.89331 8.75168 30.6388
10.0562 7.403 32.1868
10.0029 8.42453 32.951
10.1037 8.88882 34.3293
10.4554 8.84387 31.232
9.68769 8.72993 32.197
9.75103 7.80695 33.4417
10.2936 8.52222 32.5928
9.69832 8.53881 33.1452
10.1479 8.24932 33.7146
9.95824 9.42901 32.5657
9.96459 8.38231 33.7607
9.96388 8.60321 33.1688
10.2155 8.33551 31.1602
9.85214 8.00558 28.1604
9.20269 8.60019 34.7519
9.7647 8.00349 32.673
10.2327 8.46295 32.0048
9.73136 8.03699 30.4699
9.45771 8.15059 31.3332
9.51613 8.22715 31.6918
9.88741 9.01854 31.7341
9.81294 7.71914 31.2906
10.2097 8.57515 31.7639
9.80281 8.22093 32.116
9.93487 7.59888 31.0988
9.58117 7.90098 30.6856
10.2154 8.47325 31.8932
9.87133 8.2261 32.2899
10 8.54921 31.4967
9.27967 8.19431 31.9525
9.70624 7.68615 31.2073
9.74101 8.11418 33.6837
9.96311 8.49055 33.8477
10.052 8.48885 31.0662
9.45604 8.10077 31.2232
9.80964 7.21392 28.094
9.38703 6.84334 32.5509
10.0073 8.16191 31.1372
10.0026 9.40376 35.5111
10.2078 8.11048 29.7262
9.54135 9.23398 33.7678
10.0655 8.2418 33.1666
9.74333 8.28008 32.203
9.83913 8.02295 30.2826
9.45344 8.28144 30.9002
9.82997 8.0897 31.3557
10.0154 8.23375 32.4273
9.58583 8.13662 32.3669
9.88569 8.37475 31.9246
9.1017 8.14149 32.1191
9.57796 8.04326 33.3673
9.91443 8.9557 32.42
9.34777 8.18742 33.0259
9.6539 7.94927 29.1323
9.37643 7.4195 30.3092
9.76172 8.06847 31.1765
9.96846 8.30449 34.6654
10.0899 8.78081 32.1636
9.98957 7.9054 34.0036
9.75952 8.69843 33.1878
9.83213 8.26673 33.7334
9.93735 8.21001 31.9417
9.35945 8.71387 32.017
9.47669 8.52323 35.2824
9.94948 8.85845 33.5431
9.94718 8.386 35.8869
9.85755 9.29945 31.0334
9.74778 7.52389 32.6657
9.82036 8.11531 30.3458
9.8355 7.70029 30.8248
9.58281 7.97433 32.1134
9.54675 8.2942 33.3631
9.49612 8.63279 33.2867
9.55262 8.60845 33.0988
9.61208 7.9334 30.4934
9.68254 7.36808 29.7761
9.48983 8.12387 32.9268
10.2825 8.31422 32.2998
9.96716 8.06307 33.0942
9.79902 9.02987 33.1737
9.968 8.26138 33.9224
9.87485 8.43574 32.7203
9.79686 7.82304 33.7813
9.80633 9.11789 35.0312
9.81209 8.13993 32.5846
9.65646 8.05504 35.3372
9.46499 8.64515 32.56
9.43718 8.65211 32.3543
9.56152 7.8669 31.8968
9.52443 8.72567 31.3123
9.50268 7.89038 34.6624
9.2796 8.54047 30.4292
9.84123 8.09956 34.4611
9.71847 7.73207 31.9747
9.6102 8.002 31.2562
9.70671 8.69691 32.9067
9.56324 7.93131 33.0627
9.83452 7.73566 27.2354
9.13076 7.46546 33.4613
9.32417 8.76051 32.704
9.49103 8.34468 34.208
9.74414 8.12747 32.6742
9.39498 8.60863 31.9923
9.58914 7.56848 31.404
9.55617 8.2823 33.1574
9.55361 8.56739 30.5342
9.39274 7.94432 32.0975
9.82967 8.32112 35.2577
9.7089 9.10084 33.0385
9.47188 7.58578 33.3181
9.68841 7.79414 31.1949
9.62617 8.59783 33.1737
9.59822 7.97662 32.0776
9.3982 8.24262 32.2971
9.50864 8.59828 32.7897
9.33949 7.7526 30.8125
9.27972 8.20227 33.2241
9.6014 8.41826 30.9353
9.28317 8.3171 32.3169
9.537 7.48157 32.3093
9.46929 8.18721 30.0746
9.57014 6.92037 29.5662
9.3805 8.38255 34.5896
9.35231 8.7959 35.8351
9.74722 8.28434 33.3696
9.42673 8.71375 30.4324
9.26303 7.97469 29.9889
9.31446 7.17795 31.5154
9.62774 7.76234 30.9381
9.27748 8.13985 34.3114
9.30885 8.5355 31.9282
9.5517 8.26958 35.5663
9.78521 8.6799 34.2519
9.37008 8.06011 31.0437
9.62972 8.1852 33.4652
9.53147 8.62027 32.9967
9.67464 7.97212 32.7126
9.81372 8.04301 34.0693
8.93605 7.56167 29.4596
9.32139 7.68238 30.1213
9.05153 7.7315 30.7292
9.39511 8.20649 32.6916
9.11403 8.03877 32.5744
9.49732 8.20073 31.4724
9.77025 8.3964 32.8273
9.64858 8.23983 33.9868
9.95856 8.70194 33.5739
9.61336 8.17297 32.9069
9.43848 8.29982 32.2269
9.37451 8.08087 30.392
9.59353 8.56504 33.8027
9.88573 8.58415 35.4654
9.45922 7.81275 33.8543
9.31063 8.58204 31.3238
9.94804 7.84893 34.5981
9.49061 7.98499 31.6628
9.10341 8.17828 32.2545
9.61914 7.77695 30.1561
9.62805 7.91525 29.687
9.46401 7.4564 33.0396
10.2941 8.47038 33.6799
9.58326 7.99026 34.0897
9.39999 8.70213 31.7446
9.15485 7.69121 31.2446
9.51907 8.43935 35.2152
9.53513 8.503 33.8993
9.63608 8.28999 32.6539
9.93688 7.93808 34.3891
9.85481 8.61323 33.2052
9.43285 8.68618 32.7786
9.65738 8.08579 30.9603
9.46812 8.01238 34.7172
9.75312 8.41164 34.0149
9.0945 9.26469 36.8667
9.98257 8.39792 33.3366
9.78113 8.64803 32.2928
9.89036 8.95917 36.987
9.63511 9.17641 37.779
9.87355 8.95885 34.3618
9.89128 8.65757 33.6953
9.66471 8.45576 37.2874
9.65588 9.83429 38.2769
9.77121 9.06074 35.7427
10.2862 0 0