# pn-170911/CsIIA-35-CsII-1280-1959.psd
# Power spectrum* (dif=0,1,2) (really just |FT|^2)
# NOTE: only the first half! (symmetric)
# weeks: 1280-1959
# 330 clock-days, 87 excluded
# PSD: 1441
24567.6 1.54723 0.0602251
3.89938e+06 75.4602 0.04671
1.83553e+07 375.907 0.049411
4.18425e+06 160.867 0.0510562
3.69764e+06 241.095 0.0586249
1.44903e+06 139.868 0.0559144
1.06955e+06 153.429 0.0671318
871198 156.998 0.0814134
629978 155.507 0.0912734
451467 144.518 0.0931941
374178 153.967 0.112672
334911 154.791 0.124141
260755 147.4 0.137604
238423 146.13 0.15402
200291 144.849 0.167958
194219 159.294 0.219768
162697 150.461 0.229527
146731 140.76 0.229123
126245 142.667 0.264371
106736 138.478 0.276532
104088 144.166 0.321662
87532.4 151.259 0.349009
87385.2 149.581 0.382957
67409.8 132.165 0.365516
68384.1 144.137 0.453158
61841.5 146.735 0.482872
68556.1 152.745 0.527208
49002.6 133.458 0.491847
54139.5 160.111 0.637061
48896.2 152.351 0.648278
48113.9 158.468 0.729881
39877.9 152.334 0.719931
38538.3 145.35 0.742676
35586.5 146.639 0.811492
32780.9 139.091 0.800675
31285.9 146.806 0.891227
29072.8 146.196 0.931209
27087.8 138.597 0.90638
25290.2 135.219 0.979963
25476.4 141.359 1.0635
23524.4 143.406 1.12535
23228.9 143.928 1.19048
23570.9 154.806 1.37624
22154.3 154.319 1.40169
19893.8 144.658 1.36244
20607.5 152.135 1.50006
17935.3 146.938 1.47517
17564.4 143.174 1.56977
17664.9 143.151 1.59439
16065.4 136.62 1.61273
16983.7 151.756 1.86048
15330.1 144.395 1.84171
14931.3 153.068 1.99473
12659.3 132.939 1.82536
13299.5 146.473 2.09471
13316.5 144.07 2.13802
11789.8 134.284 2.03963
12322 151.115 2.35373
11612.6 130.471 2.10994
10279.3 127.93 2.15762
12192.6 142.063 2.47005
9893.98 139.57 2.50816
10198.6 140.228 2.61269
10155.5 140.332 2.66696
9487.99 131.223 2.64654
9575.97 148.258 3.04178
9168.02 144.962 3.03366
8609.52 135.33 2.98779
8550.27 134.721 3.03701
8394.22 136.126 3.13355
7586.42 129.058 3.02158
8359.9 149.413 3.63219
6850.41 128.017 3.21696
7290.55 143.724 3.69327
7292.87 137.119 3.56613
6998.08 142.953 3.84958
7015.48 144.013 3.95012
5499.16 122.684 3.51361
6474.88 139.144 4.0503
5860.76 133.759 3.9792
6116.52 143.864 4.3759
5518.91 137.912 4.34338
5397.16 127.408 4.1119
5315.37 133.596 4.38403
5478.93 146.842 4.90072
5170.06 137.555 4.77242
4622.26 123.863 4.37816
5257.93 147.545 5.33138
4526.22 122.664 4.55314
4291.09 125.542 4.76854
4535.79 132.943 5.1879
4152.59 126.07 4.98251
4617.83 131.522 5.23812
4067.59 126.471 5.25192
4127.08 127.426 5.3859
3992.72 133.099 5.75982
4046.45 128.764 5.64084
4223.51 138.418 6.19218
3976.37 129.901 5.9683
3965.07 135.017 6.39526
3765.91 131.936 6.29603
3456.6 122.511 5.96588
3543.1 123.482 6.13121
3331.13 123.621 6.32629
3510.47 119.331 6.16641
3555.03 140.777 7.398
3349.81 121.028 6.46682
3201.16 113.603 6.20854
3232.09 134.552 7.41403
2924.14 125.95 7.01452
2917.7 119.487 6.91109
2921.03 122.839 7.21855
3054.22 127.659 7.57855
3048.29 142.762 8.81701
2672.15 120.122 7.24027
2276.59 106.855 6.83847
2836.48 127.222 8.04444
2559.77 122.513 7.99155
2154.24 102.256 6.82659
2663.28 129.881 8.70753
2539.95 124.366 8.4706
2375.28 122.369 8.45283
2147.34 126.463 8.96728
2435 124.738 9.01722
2289.03 121.296 8.98916
2172.97 118.78 8.77804
2048.29 105.976 7.99895
2181.91 125.78 9.60711
2169.5 122.054 9.4961
1858.81 104.907 8.29571
2023.45 121.995 9.82232
2094.62 124.834 10.1071
2049.8 119.609 9.9448
1881.61 110.311 9.31123
1765.04 103.822 8.88166
1772.87 116.802 10.2075
2043.71 121.141 10.4693
1712.42 112.315 10.0694
1934.68 114.506 10.2802
1636.27 104.551 9.57486
1667.72 101.118 9.36575
1582.71 103.009 9.65136
1767.76 123.254 11.6421
1638.51 117.146 11.5057
1638.62 114.031 11.343
1543.81 103.154 10.1946
1689.74 115.474 11.5596
1525.59 114.211 11.6872
1635.37 110.427 11.4887
1593.4 111.969 11.6358
1566 112.903 12.0054
1537.32 112.351 12.1043
1507.43 120.581 13.2719
1365.24 106.89 11.8265
1421.26 114.756 12.8288
1384.98 112.531 12.6494
1449.28 113.728 13.0663
1205.89 104.16 12.1558
1322.69 116.848 13.6367
1383.26 119.464 14.1482
1201.59 104.848 12.7051
1173.21 111.388 13.6892
1067.89 96.094 11.9607
1246.19 106.75 13.3092
1182.14 108.44 13.8902
1173.12 108.729 14.006
1082.66 100.54 13.0415
1210.46 119.806 15.712
1058.8 103.579 13.8477
1101.21 109.605 14.7172
1060.43 102.97 13.8745
1072.17 107.503 14.6405
1014.96 98.4446 13.7687
1062 99.8815 14.0359
1037.41 103.756 14.6361
1022.62 100.108 14.3079
1041.16 97.3136 14.3582
1037.99 107.757 15.8922
878.85 88.8074 13.2384
987.79 103.531 15.4086
994.875 106.037 16.1954
974.337 100.761 15.4184
1045.59 99.9755 15.5672
872.837 98.584 15.6747
876.824 95.0299 14.6529
858.273 94.9852 15.427
962.966 99.5806 16.2276
863.168 89.7387 14.9157
931.252 103.379 16.9724
838.354 92.7453 15.5806
892.528 89.3642 15.2407
808.627 90.1428 15.3243
842.809 93.6218 16.3779
836.14 97.7011 17.168
815.107 100.873 17.377
790.667 94.1785 16.8336
740.268 87.1645 15.8008
833.216 93.1444 17.0285
698.063 93.708 16.9424
678.47 88.953 16.8103
745.859 94.4142 17.7192
674.591 86.2924 16.3324
732.188 95.0437 18.0719
694.738 92.3998 17.8431
654.253 87.9986 17.4398
708.673 95.1008 18.4335
594.627 83.0501 16.6202
660.365 88.1293 17.5823
636.497 91.1383 18.4321
613.886 85.2447 17.6031
662.242 92.6566 19.0197
592.156 85.896 18.253
632.502 94.4681 20.0025
631.126 91.2209 19.237
618.934 86.021 18.0414
585.179 92.7726 20.0744
586.161 83.3938 18.2426
567.547 81.0802 17.7888
597.15 82.9397 18.4078
637.253 96.9844 21.4922
585.738 89.2518 20.2038
586.9 93.6357 21.6752
594.153 87.1689 19.7848
570.446 83.15 19.1454
568.62 79.9094 19.0735
573.867 82.8953 19.6778
547.264 82.8672 19.7967
506.342 81.6322 19.6854
582.165 83.9088 20.0001
572.15 85.5555 21.0315
551.711 85.9478 20.8037
478.278 74.0543 18.3471
492.907 83.2137 21.011
526.949 87.8229 21.8865
541.09 78.9614 20.4073
492.762 80.6887 20.6941
521.666 80.1228 20.9315
482.126 87.677 23.0676
554.204 88.4278 23.2527
508.26 88.4225 23.4631
451.748 78.4665 21.0754
439.163 71.9891 19.0879
501.711 82.7677 22.6754
457.185 75.5349 20.7839
483.678 80.7019 22.2848
411.814 76.4733 21.3874
433.679 81.3425 23.109
417.466 76.5887 21.6557
420.715 79.2303 22.3967
422.618 78.6867 22.9893
387.386 70.7661 20.4982
371.758 78.4281 22.6148
389.782 77.14 22.9452
409.126 83.8592 24.9803
367.275 72.5406 22.0734
349.009 69.8976 21.0879
392.435 69.416 21.0666
397.475 78.2001 23.4938
409.914 82.6601 26.1595
330.96 72.1082 22.5814
381.573 78.7711 24.712
394.657 78.6901 24.7579
374.701 75.7895 24.0215
343.505 71.4245 23.5216
364.746 71.5464 22.5119
360.011 72.9211 23.3225
405.154 73.6087 23.6369
348.498 75.1319 25.4831
373.365 75.3488 25.0663
383.737 73.6737 24.056
377.919 73.5178 25.246
345.693 75.9821 25.608
359.895 70.7938 24.1619
349.452 72.9487 24.7681
329.025 58.9083 20.7506
327.186 69.6502 24.0288
342.73 71.6969 26.1885
308.914 64.8914 23.4138
335.388 73.7776 26.4419
290.187 66.0983 23.5631
297.947 66.2745 23.1345
288.336 68.2424 24.4879
259.938 65.5474 24.676
281.205 66.6995 24.6474
301.918 63.4411 23.4664
278.389 70.3086 26.2243
281.949 68.0142 25.7901
252.562 67.473 25.6929
263.873 66.3854 24.6645
255.82 62.7562 23.9991
287.292 69.1517 26.5187
241.131 59.0222 23.377
251.048 57.0897 22.2117
253.829 65.0311 26.1325
272.878 68.3748 27.4865
267.267 66.0335 26.1392
266.33 66.9031 26.6743
258.655 66.134 27.0317
263.312 68.771 28.3808
259.774 69.3204 28.5596
256.855 63.4587 25.6446
234.348 62.6289 26.2867
237.874 60.9749 24.9733
233.542 65.4987 27.4852
257.649 63.0154 27.0854
246.243 63.1007 27.102
242.921 63.6528 26.5999
234.858 61.933 26.8782
239.876 59.8118 26.3429
218.302 59.2843 25.7001
217.558 52.9767 23.3693
217.599 59.8074 26.5536
253.339 59.3049 26.5716
216.137 61.0217 27.8225
239.581 54.9717 24.9205
218.189 54.5671 24.409
253.188 66.0882 30.1841
224.039 58.2381 26.2047
246.457 68.793 31.7052
241.399 61.647 28.8513
231.775 60.128 28.1751
213.888 60.2178 27.9718
218.764 60.5951 28.9802
207.863 58.5841 28.1199
215.536 57.2575 27.2477
204.338 58.0555 27.9548
185.315 53.9888 26.4288
202.748 66.8263 33.1979
213.143 57.4922 27.7608
195.796 56.8377 28.1203
209.024 59.9073 29.0104
190.986 60.0318 31.0087
188.139 57.6126 28.4775
181.09 55.4494 28.5876
194.255 60.693 31.0812
187.443 61.9163 31.243
176.221 54.5482 27.7255
174.191 51.2935 27.22
177.96 56.2386 29.2594
181.949 56.9238 28.8395
176.677 54.5394 28.6602
162.443 52.0684 28.0601
176.229 52.4412 27.7748
179.654 57.1483 29.6021
189.096 52.3451 29.0186
158.587 46.6248 25.1221
167.059 51.2299 27.927
164.335 52.9742 28.5981
190.172 52.8273 28.7279
155.695 49.8844 27.8696
201.267 60.0226 33.1661
166.555 54.497 30.0648
187.692 52.2786 30.0201
188.691 57.9214 33.057
192.415 54.5136 30.7325
173.066 55.2383 31.751
173.038 52.3745 29.5557
175.556 53.5672 30.3588
177.214 54.7606 32.2521
166.165 53.9639 31.3263
168.383 49.4656 29.5054
162.898 50.6412 30.0117
162.539 51.6696 30.5054
150.46 49.6713 30.238
169.112 50.4749 29.9291
155.713 49.9883 29.9461
166.497 49.0353 29.8097
155.467 47.7708 29.116
162.394 53.4401 31.8758
139.77 46.5145 27.4444
155.242 49.5988 30.4918
142.304 51.1667 31.5873
137.108 46.2552 28.9796
138.462 49.4299 30.837
143.383 46.6548 29.5523
143.23 47.0658 29.6598
148.926 44.9071 29.2138
135.644 48.6977 30.8752
128.879 48.8282 31.1658
132.279 46.4907 31.1815
139.759 44.8833 28.352
136.231 45.5365 30.4183
142.485 49.8665 32.1649
124.262 47.4563 31.1492
141.075 49.9347 33.8288
141.127 53.7033 34.8004
133.228 45.58 31.3594
139.819 47.3677 31.2231
127.225 42.9706 30.1972
139.622 47.2562 31.6936
141.93 43.7719 29.2507
141.223 47.0616 31.5043
138.058 46.1883 32.5787
133.056 45.4537 31.108
142.359 51.4197 35.8509
135.306 49.3509 34.049
124.366 39.469 27.7285
121.56 39.5588 28.5654
134.756 45.1661 31.0146
139.808 47.5595 33.5994
131.181 41.2102 30.6246
127.841 47.0281 33.3773
130.815 48.5741 34.7342
126.011 40.4505 29.6855
136.608 46.4133 33.1977
136.465 45.222 33.0044
124.043 44.353 32.4016
124.423 40.3551 29.8783
122.806 41.7208 31.044
116.861 40.2191 30.2758
122.743 45.0701 33.0729
121.389 42.7654 33.3248
115.826 42.795 31.8005
108.461 43.5074 32.5123
113.658 43.2848 32.7913
102.588 37.6608 29.3682
104.957 42.2141 32.0491
99.3975 40.3288 30.9256
101.406 38.9423 30.5594
113.453 44.1712 35.4184
113.703 45.2742 34.5184
118.168 45.7352 35.4891
101.832 40.7747 31.9627
107.362 40.8522 32.4523
106.636 45.1233 36.2405
101.546 39.731 31.6061
112.808 41.8713 34.7373
105.562 42.7295 33.287
103.371 41.3158 34.2317
108.472 43.8969 34.9138
107.327 41.2581 33.4379
103.656 38.7378 32.2188
105.78 38.5426 32.8658
111.528 42.5238 35.3183
107.617 41.0516 35.0112
108.687 41.0886 32.1834
108.681 39.582 34.0584
100.485 39.6299 33.1362
104.384 38.7808 32.7838
105.386 42.3484 35.3336
106.937 36.3962 32.1
102.958 39.5797 34.1548
107.744 37.9522 32.6736
104.059 40.7046 35.3381
106.355 40.0811 33.8595
89.6669 36.3182 31.8714
98.0431 35.0092 30.1606
94.1818 37.4456 33.1617
98.6802 39.8484 35.9097
89.1927 39.3534 34.9645
87.1597 37.4403 33.0614
95.5734 39.567 35.0586
87.7516 38.0108 34.1803
88.2342 36.8502 33.3411
83.5744 38.6784 34.2922
84.0424 39.453 35.7879
80.8746 35.7351 32.4705
86.2899 37.5336 33.9564
82.1175 37.0418 34.0111
90.6871 38.6961 34.9522
81.83 38.2339 35.3282
86.8371 34.8202 31.1843
82.5289 37.5444 34.759
80.7113 33.8301 33.1396
80.7891 33.001 31.7157
82.094 34.82 32.2786
82.3954 37.147 35.393
83.5524 35.4429 33.6305
89.6893 37.0398 35.0537
80.6705 34.4856 33.6463
86.1583 35.9931 33.7724
81.4244 35.2311 33.3446
88.898 31.0993 31.012
87.8417 38.2047 36.9486
86.6114 33.4539 32.0067
81.9041 34.0428 33.8742
81.2076 37.9242 37.1014
80.2864 35.2168 34.3088
89.6179 33.9751 33.4582
90.0954 37.8163 37.2511
93.177 36.0315 35.5868
82.187 35.5504 35.269
83.6955 34.8891 35.5541
87.6835 36.6746 36.7427
84.329 33.5624 34.9377
86.6774 34.8701 35.4014
83.2357 33.3326 33.7214
74.8297 32.4489 33.0938
79.4908 31.8673 33.6864
76.3924 30.1384 29.9508
71.1266 32.5227 35.8334
83.9162 33.6621 34.5769
84.9873 35.1562 36.1321
72.3341 31.987 35.0541
75.7319 32.9332 33.8815
71.6096 32.3821 35.4693
76.7304 32.9339 33.679
72.5107 34.9057 38.2366
75.2482 32.5903 33.1207
71.26 32.44 34.3978
70.7459 32.8842 36.6279
65.0266 32.0156 33.928
68.5764 32.2736 35.5642
64.359 28.7436 31.7051
71.5004 28.6436 30.6487
68.1125 30.8872 35.0478
68.0497 29.9952 32.5044
66.9263 31.686 34.9949
68.7891 30.9746 33.4693
65.4522 29.0887 32.4734
69.3 31.1607 34.8811
73.2913 32.8987 36.469
74.6474 31.4858 35.1424
68.703 30.911 34.5335
70.2799 32.8752 34.772
63.7176 31.4618 35.8682
69.7164 29.5343 33.6336
71.0774 31.0462 34.8328
72.02 30.2348 35.1575
64.0783 30.4352 34.3661
72.5124 29.729 35.8038
69.5982 30.2699 34.7814
74.0822 30.8328 36.1702
71.7526 31.0419 36.4514
72.8956 28.5877 34.1841
67.5355 32.2938 38.1388
74.8281 28.8887 35.3542
69.7366 28.5215 32.3913
69.3493 30.9546 35.6253
62.4569 31.356 37.0878
67.7025 25.9214 31.7415
61.6372 27.4595 32.3756
64.9301 28.7205 35.3248
55.2802 27.63 33.6995
71.0865 30.8589 35.988
56.6914 26.6318 30.7187
56.3227 27.4853 33.7702
53.2762 25.7554 33.4883
60.8062 28.8149 34.3906
54.0133 25.4327 31.814
59.8646 29.6193 34.8924
54.7706 27.9967 34.9195
55.4243 28.3486 33.6905
57.4353 28.4342 36.7206
60.1032 27.2373 33.585
54.2471 26.8467 34.5344
56.0407 25.1259 31.6448
51.3952 28.7247 34.8633
51.7545 26.8422 36.0919
56.2316 31.7862 38.1194
59.3344 27.2277 34.9632
51.3937 24.4047 32.9042
61.4499 28.9559 35.5097
55.9485 27.4893 35.5922
54.7242 24.5493 34.2532
56.9594 27.3418 33.7311
58.666 28.6586 37.4715
61.0322 30.2138 37.9977
60.0351 24.8104 32.2844
60.5113 28.4705 36.9231
61.3669 26.6729 34.9857
55.5114 26.8926 32.8911
65.9469 26.8635 35.9934
54.7877 26.2789 35.4723
62.3102 26.7791 37.3125
54.454 26.6842 35.7759
54.2063 26.0702 34.5914
49.4699 24.6809 32.7141
62.0455 27.4785 35.619
56.3711 28.1758 38.3926
52.3886 25.4453 34.3077
47.8731 28.0254 37.9951
52.868 27.2434 36.5234
48.4078 23.4064 32.366
53.0697 23.9938 34.2844
52.2938 26.2009 34.8382
46.5967 23.9479 33.695
46.918 24.1439 34.2455
50.8099 25.6215 35.6052
47.542 23.6792 32.6116
47.4669 23.7777 33.2602
44.6576 25.2206 35.8842
48.1878 26.1046 38.3328
51.684 28.3225 37.4564
43.8417 24.5545 34.9234
45.5773 22.9919 33.8526
50.2296 24.5025 35.0349
46.2766 23.2852 34.4522
46.1899 21.7832 30.5893
46.3665 24.5064 35.5262
48.0943 24.1019 32.9358
42.8886 26.7073 38.1109
45.5419 23.5181 34.0592
43.5273 24.6479 36.3997
49.7826 25.8007 37.0844
44.89 25.1774 37.586
46.2488 22.1561 33.1586
45.46 23.2559 33.5837
50.0565 25.5847 36.7719
44.4987 22.3808 34.1826
46.1973 23.3691 33.6515
41.0609 24.8496 38.3578
52.3929 24.3747 35.0632
43.1606 22.1338 34.931
49.4342 20.6851 31.3985
42.8104 22.2333 33.3358
50.547 25.7459 37.38
47.2829 24.0684 35.6971
51.0205 22.4686 35.7725
43.1779 20.9428 32.5487
47.9563 24.1159 34.9464
47.1414 24.0628 35.8988
44.2729 22.525 34.7996
41.6612 23.4488 36.0106
43.9895 23.5427 37.6514
43.3175 22.4641 34.2725
42.3314 22.2481 33.1762
41.2937 23.9415 36.5457
42.3537 23.7719 39.6017
39.2054 22.6022 34.499
41.8754 23.4978 36.8394
38.2054 21.5731 34.3117
35.7489 20.2748 31.7111
35.7068 19.9235 32.4595
38.5091 21.2438 33.5607
38.2398 21.5437 32.9294
39.2772 21.5862 33.5249
37.1244 20.6681 33.5471
37.7612 23.2096 37.6894
34.1272 20.9917 33.4243
36.044 20.6829 32.8997
37.4198 20.9895 33.6498
36.232 21.1797 33.0518
32.1577 21.2038 34.4272
36.8739 21.8786 35.7724
38.6176 20.701 34.3885
42.9602 22.6599 35.702
35.148 20.2727 34.682
38.3326 21.3105 35.6741
38.6396 20.348 32.8245
41.0186 20.6946 33.9151
39.4396 21.5647 35.547
42.2887 24.3256 41.8799
39.4324 19.7564 32.0403
40.1326 22.9622 36.8998
41.1107 20.3495 36.4997
40.0461 20.2824 33.9996
38.0442 20.5148 35.1956
43.6344 23.2956 37.181
37.9764 20.9371 35.8702
42.3213 19.9384 32.5008
35.0011 20.2032 32.5196
40.6379 19.0117 34.0585
36.1218 21.2332 35.2501
37.3054 20.3511 37.2826
38.6625 20.193 35.5769
39.2543 20.8757 35.4594
37.7689 21.4034 38.2557
36.8384 19.5606 33.5415
34.9747 21.117 35.0746
31.3307 19.4458 33.787
32.6357 19.5902 33.4399
33.5525 19.0958 35.1932
34.7083 20.3737 36.5998
35.1901 18.2413 30.9306
31.4824 19.8792 35.0437
33.4124 21.6465 37.699
34.1321 19.4022 32.6088
34.8842 18.9558 34.833
36.2496 19.5446 33.3308
34.8534 19.0759 34.5379
33.953 19.5875 35.4288
34.4612 19.6976 34.0944
34.7624 18.9503 34.2793
33.4676 19.1288 35.7128
35.3465 20.5583 37.1197
33.9551 18.7462 34.468
33.9729 19.8555 36.0963
36.823 20.4346 34.4618
36.6421 19.0631 34.8206
34.7197 18.0192 32.9692
33.5101 18.4975 34.7827
35.5839 20.0932 34.8226
33.9741 19.2402 35.3452
34.7927 18.3799 34.8532
34.8881 18.1198 32.3493
36.3232 19.9518 38.3008
33.4893 17.0864 31.729
37.5107 18.157 34.4804
34.993 18.5607 34.9182
39.279 18.0331 33.7201
36.8983 20.0944 37.0711
38.2501 19.7943 35.7219
31.9808 19.4551 38.3899
40.1151 18.6019 33.7558
33.0449 18.6059 36.5188
35.4361 18.2924 33.4364
33.0309 18.5952 37.1811
34.6591 18.6518 33.8026
32.2308 17.3421 33.1333
32.6651 18.0721 35.6393
32.8983 17.4052 33.2475
32.6806 17.2871 33.316
28.4112 17.917 34.2818
30.6395 16.6612 29.4173
26.7932 15.3057 31.3447
30.4672 18.3154 37.3947
29.8436 18.5294 35.1068
30.0904 17.7433 33.7839
29.106 16.7959 31.1499
29.6455 17.0024 33.5136
29.9255 19.4405 37.6036
26.02 16.3839 32.6532
29.8504 16.4918 32.4197
28.4069 16.4119 34.0295
31.0106 16.829 33.0548
28.1154 16.079 30.0905
28.4755 17.0361 34.3804
28.8865 16.9874 35.2819
29.4966 15.7253 30.1078
31.3386 17.3938 34.6173
32.998 15.4218 29.6721
31.2122 15.6524 32.7276
28.1994 15.5145 30.9728
31.089 17.214 34.978
31.6266 15.9621 32.4499
32.8986 15.4529 31.3517
32.6519 17.434 34.9436
31.5608 15.9032 34.0451
31.8764 16.6398 32.6026
33.4024 17.8731 37.0631
29.2798 16.6036 34.9213
31.8814 16.3543 32.2156
29.7593 16.643 30.233
32.3562 14.9534 33.68
30.3502 17.4552 34.3366
31.8626 17.0897 36.404
28.2123 17.6271 35.3175
30.172 14.0584 28.8829
27.3473 15.908 32.1299
29.4122 15.8279 34.0632
28.2756 16.0935 34.1749
28.258 16.7795 34.3062
25.5659 15.1628 33.1914
28.1267 16.2832 36.3938
28.467 14.4499 29.2475
26.3168 14.8783 32.1995
27.5982 15.6524 30.5973
27.5636 16.7077 34.9778
26.4886 15.4594 33.4177
25.5878 14.4343 30.757
24.729 14.3139 29.892
26.4915 16.6547 35.601
26.8553 16.853 35.0884
25.6027 15.8178 32.8184
26.5528 15.337 35.9662
27.1143 15.8367 34.457
26.8165 15.4295 33.4331
30.2082 15.6508 33.296
27.8268 14.6603 32.1588
28.3526 15.1336 33.0924
26.805 15.4675 35.3466
31.3047 14.9519 29.3808
27.8111 13.8863 32.356
28.7215 16.2645 33.9037
28.0002 15.7272 36.2045
31.0703 15.6054 32.4352
28.1046 14.9231 32.7479
30.7631 16.3882 35.8431
29.0801 14.7179 35.0902
28.6801 15.4475 31.8142
28.2032 14.8447 34.343
29.1946 14.8539 33.2911
29.263 16.3668 33.8947
29.4918 14.4296 30.9703
26.7931 14.0637 34.0183
31.5312 15.2528 33.4701
28.0598 15.285 34.1952
27.0812 15.2356 34.4134
28.3828 14.513 33.144
28.5163 14.1002 31.3814
26.5653 15.2131 33.5392
26.0351 13.4684 31.2849
27.4003 13.034 31.2264
26.9755 13.5704 30.9928
24.7515 14.2606 32.2078
26.4495 15.0252 33.012
24.8082 13.3759 29.4984
24.4248 14.9105 35.5206
22.8824 15.2077 36.043
25.9795 14.0114 32.4289
24.4594 14.4865 30.2165
25.7926 14.8425 35.9696
23.516 13.6525 31.2453
24.7871 13.9497 33.4779
24.1374 12.8787 28.8051
22.0633 13.8203 34.9455
23.1735 13.21 29.165
24.6446 12.337 29.1928
25.6423 13.6477 31.4937
26.1992 14.3367 32.4833
23.2783 13.8934 32.3233
25.0598 13.9963 30.3385
21.4668 13.4596 34.6371
25.7529 13.9254 32.0111
25.6378 14.4947 34.225
25.4472 13.6851 31.8699
23.5529 12.4518 29.6607
26.3398 13.553 30.1308
26.1729 15.0915 37.5993
30.1733 14.1 33.2881
27.1174 13.4278 33.8665
28.288 15.4936 35.0137
24.9661 13.1215 33.8409
28.9291 13.362 31.2831
25.6925 12.8019 31.3877
26.9513 13.5459 33.6088
26.166 13.1454 31.4508
29.29 13.1997 31.9089
26.4026 15.172 35.8135
26.5917 13.8749 32.4208
23.7827 12.3086 30.7772
25.5005 13.3453 33.1714
23.3787 13.7153 33.2205
24.2951 11.8979 30.7297
22.2958 13.4022 31.8865
23.8688 13.4244 32.7516
22.5604 12.5274 28.0744
22.8993 13.5039 34.0022
23.7277 12.9344 31.9317
22.0007 13.335 32.9507
21.9767 12.9802 31.9769
23.1994 13.0478 32.8578
23.8593 12.7564 31.363
21.6516 13.1185 34.1749
22.8987 13.9391 34.5871
20.9113 12.0579 31.334
22.0467 13.9193 32.3862
23.1344 13.3345 36.6753
20.4507 12.7317 30.3765
22.2354 12.1358 30.8042
21.6644 13.3103 31.0687
23.1152 12.4696 29.7893
24.9329 12.6399 31.5394
23.6541 11.2106 29.9977
22.754 13.6021 34.4783
25.1122 13.91 34.6148
23.6015 11.3621 30.2438
24.8366 12.3764 32.9599
22.2352 12.5539 31.6293
26.0407 12.9286 33.4654
23.0809 12.1983 32.2914
27.072 12.8586 30.7496
22.0368 11.7647 31.9553
23.3984 12.2751 31.027
21.3344 12.2958 30.762
25.6321 12.6748 33.8312
22.971 11.4458 28.8454
23.528 12.252 31.8312
22.0795 12.5838 30.908
24.0185 12.7817 34.3335
22.2064 12.2872 33.8017
25.9088 12.1908 30.5624
22.1756 12.1048 32.513
22.7139 12.393 30.4405
21.9478 12.2882 33.3683
25.1575 13.3256 34.6167
20.2703 11.365 28.9125
20.4397 11.494 29.5241
21.9774 12.2616 29.9248
20.8921 10.5214 31.6207
21.5582 12.6406 32.301
20.3864 11.7409 31.9257
18.9884 12.5571 33.5755
21.2219 12.726 32.3008
19.4018 12.8955 33.9771
19.9197 11.1508 30.0599
18.1208 11.7896 32.1343
18.7245 10.9921 30.816
19.0282 12.1702 29.7177
17.8352 11.144 33.4193
18.6277 11.723 33.3111
17.5875 12.118 29.9306
18.49 10.6012 30.4506
20.5276 11.9981 31.8234
20.3519 11.8231 31.7702
19.4651 11.0757 29.2316
18.2925 10.6724 28.5206
21.2765 11.3888 32.4013
20.3394 11.3119 28.5909
22.6774 11.1619 31.0046
19.197 11.5879 31.6125
22.353 11.1392 29.3589
20.3089 11.2036 33.0174
21.4668 11.325 28.9138
19.8269 10.5368 28.6277
20.1603 10.5137 29.4872
20.323 11.2317 30.347
21.7844 10.782 30.2554
19.7626 11.8683 33.1316
22.0287 10.3898 28.2218
19.6986 11.6485 31.3442
22.3564 10.069 28.5406
19.3253 11.2478 32.4883
21.887 11.235 30.9348
18.1761 10.1703 29.1455
18.9191 11.6847 32.1358
17.9193 10.0506 25.6232
19.5264 10.7901 30.8164
18.0366 10.959 31.9352
17.7449 10.3267 29.713
17.3642 10.744 29.385
17.2617 10.227 29.1624
16.8552 11.4196 33.0893
17.4016 11.3441 32.6663
17.1148 11.2666 31.0021
16.9095 10.9105 28.6415
16.6567 11.515 31.1547
16.6916 10.0031 28.5545
16.3544 11.0319 30.7261
16.8981 10.7134 31.2388
15.6727 11.0941 30.6744
16.1377 10.2053 31.2305
17.9587 10.1206 28.3183
17.6078 10.6084 29.5955
17.2584 10.8441 29.7132
18.4424 10.9112 31.5335
17.3102 10.8007 32.1663
18.8873 10.5628 30.6681
18.8711 10.6627 27.9935
19.133 9.76119 27.7212
17.7281 10.6607 32.9853
18.889 10.3724 28.5161
18.6387 9.67089 28.0764
19.2901 9.62998 28.13
19.0884 10.5481 30.3109
19.4134 10.2738 32.3087
18.5392 10.1942 27.7406
20.4393 10.0739 28.4082
17.6993 8.8555 26.3059
20.4821 9.84256 29.8495
18.5922 10.4542 30.3247
19.8318 10.6882 29.2725
18.4123 10.3807 31.5376
18.8991 9.8729 31.2079
17.4363 9.95252 29.7562
18.5991 11.6856 32.9331
17.9914 9.81318 30.7159
17.6405 10.141 29.2953
16.9042 9.06385 25.7736
17.5103 10.4291 32.3427
16.9409 10.3198 31.3652
17.8081 9.47056 27.7116
16.9988 10.305 29.7504
16.1743 10.6381 32.9973
15.7794 10.5489 30.5153
16.8343 9.50061 28.9804
16.2254 10.0861 30.2854
15.7667 10.0533 28.5419
14.7858 10.1884 30.448
15.3491 10.12 29.7389
17.2618 10.0148 29.0824
16.6058 9.52624 27.1453
15.5857 8.66094 28.8528
15.2919 9.33996 28.0722
14.9694 9.83206 30.1491
16.0189 9.66453 27.5939
17.0727 8.41443 26.4423
16.2279 8.70035 26.1958
14.6782 9.70194 29.481
16.2099 8.45413 25.1244
16.0506 10.2735 30.8811
17.2626 9.08563 30.7254
18.1444 10.3537 30.2766
17.9843 9.75414 29.1804
17.853 9.51893 29.9115
19.2954 9.8719 27.7603
17.9701 9.91844 31.9208
18.81 8.99639 26.6807
17.1592 8.58234 24.7937
19.7463 9.66493 32.3856
18.2777 9.27846 27.3893
19.662 9.87505 31.2748
19.1107 9.66369 26.42
18.9251 8.90125 28.1046
18.4322 9.73148 30.9216
18.389 9.28934 27.3138
17.1995 9.5092 30.0277
18.7792 9.83113 31.4636
17.4398 9.28636 28.2537
16.8832 9.53978 29.8439
16.2007 10.3227 31.4046
17.5824 10.1278 29.8893
14.2495 8.37077 28.4777
16.1322 10.0085 30.3811
15.3345 9.35282 28.6242
15.4943 8.7584 27.2038
15.8513 9.34042 28.9398
16.1525 9.01158 27.7758
14.6329 9.34148 30.2848
15.0971 9.51343 30.1842
15.8117 8.80235 26.9866
15.6204 9.3177 27.7136
15.8868 9.78234 28.9141
15.4622 8.31042 26.6055
14.0848 8.86018 30.3012
14.3988 8.63691 28.3414
14.9888 9.02778 30.5025
16.6652 8.64837 28.471
15.5168 9.06904 27.8481
16.4554 8.78144 28.2408
16.4832 9.37679 28.1918
16.1649 9.01415 28.2695
16.6763 8.15581 25.5677
17.6694 8.32425 27.5111
17.1339 9.10608 27.3188
17.2465 8.70038 30.2558
18.0979 8.30458 27.7716
19.3528 8.5051 25.9878
15.971 8.45694 28.7341
18.1118 10.0383 28.7302
16.7711 8.65881 29.1045
19.2032 9.87186 32.2073
17.8457 8.774 27.8313
16.7941 8.80571 28.4279
16.2675 8.6346 27.5469
16.5406 7.92028 26.3278
16.101 8.64455 28.2871
16.8813 8.34864 28.1524
16.5356 9.1591 28.449
16.0501 9.40426 29.1409
15.9226 8.60405 28.0099
17.2471 8.28778 26.4731
15.3387 8.00504 27.6793
16.0477 9.4173 27.7921
15.4825 9.08492 30.5743
15.7701 8.79814 28.3665
15.4157 8.52925 27.083
15.7786 8.36187 28.248
15.1167 8.62227 29.535
16.2462 8.21308 26.6124
14.4355 8.36449 27.3039
14.2931 7.83129 25.9359
13.6901 7.99923 26.7648
14.1424 8.22584 26.695
13.1399 8.37731 28.6522
15.3161 9.16444 28.9046
14.0498 8.07178 27.7371
14.5577 8.61398 27.1258
14.7554 8.3345 26.5083
14.8106 8.15292 27.6692
14.9836 8.70625 29.4677
16.0787 8.3221 28.7192
14.5705 8.90576 28.2536
15.6699 7.71192 25.7536
15.5768 8.45968 27.5377
15.9106 8.47124 29.322
16.2733 8.67039 26.5613
15.8509 8.36742 28.4983
14.8111 7.76564 25.8528
17.0681 7.64793 27.7963
17.1968 8.64747 26.3713
16.9114 8.66009 28.6789
15.7022 7.6592 27.3072
16.9303 8.25269 28.846
15.966 7.75274 27.8027
17.3675 8.16327 26.9306
16.7182 7.78171 27.124
16.8932 8.73454 28.0509
16.9758 7.99331 25.4356
16.6025 7.95218 28.3308
15.8441 8.23059 27.061
16.1966 7.93681 27.3454
16.1665 8.11993 28.6015
16.4625 8.6271 27.2711
15.8918 7.2692 25.7986
16.1837 8.27611 27.3571
13.4178 7.13071 23.282
14.8686 7.75913 26.9495
14.0057 7.54075 25.9269
15.6604 7.96419 26.1831
13.8282 7.60342 26.8371
13.8097 7.91637 26.1885
13.9185 7.87115 27.4887
14.0711 7.858 28.0639
14.5333 7.79705 26.9571
13.4349 7.43187 27.3187
14.4942 8.9523 28.4494
15.0034 7.72511 24.6264
13.0059 7.2198 27.7556
14.6166 8.33573 27.9748
13.7691 7.3805 26.6029
14.8705 8.14144 28.1004
15.678 8.24079 28.102
15.7474 7.5462 25.4086
15.2354 7.36473 24.371
15.5599 6.90926 26.2439
15.7837 7.74052 24.7298
17.1993 7.55543 26.7728
16.1834 7.94709 27.4183
17.0204 7.47344 27.1524
14.9673 7.99551 27.1172
18.8597 8.35028 28.3432
15.7562 8.00849 27.3383
18.7407 7.61527 26.5538
15.9925 8.14801 28.6464
17.6643 8.23484 26.6569
16.6407 8.02866 28.9261
18.7276 7.96288 26.5941
15.7056 7.81392 27.4764
16.8962 6.9655 25.4602
15.0034 7.3933 25.663
17.793 7.22903 24.6686
15.3714 7.12281 25.0439
16.1535 6.20784 23.507
14.2058 7.02838 24.3662
16.4907 7.25856 27.0653
14.9517 6.70861 26.1321
14.5051 8.36636 25.4578
14.5427 6.93727 25.7366
15.9459 7.77366 28.135
15.632 7.82855 26.1002
14.3041 7.01129 25.0853
14.2362 8.22684 28.153
14.1812 7.27715 25.9637
14.3456 7.18042 24.3534
14.8516 6.89545 23.0898
13.9449 7.74849 29.6376
14.77 7.6755 25.168
14.2136 7.18952 29.1517
14.0644 8.4897 29.4561
16.0011 7.27884 26.1778
15.3634 7.82075 26.6783
14.2038 7.37294 25.1798
15.1037 7.60868 25.7598
14.4597 6.84398 26.2836
14.9536 7.65483 25.7668
12.809 8.0427 28.6556
17.1115 7.32045 25.4515
14.1885 7.55685 28.052
16.5689 7.38191 26.2745
14.7862 6.91179 27.4462
15.7431 8.05858 27.4593
14.0496 7.38232 26.3524
17.9252 6.9055 26.4921
16.4255 8.26448 29.1188
15.4792 7.74603 28.423
15.9191 7.98845 27.0492
16.2709 7.12704 27.3943
15.5705 7.72426 26.5925
18.685 8.27878 28.8464
16.0611 8.1325 28.1547
16.629 7.52451 27.0719
16.0571 7.32553 26.4549
18.8025 7.24985 25.6325
14.8166 7.06201 27.7627
15.661 8.05253 26.7045
15.0482 7.21404 27.0027
15.3779 7.11546 26.0497
15.0012 8.12699 31.1126
15.4266 7.464 25.2923
13.0903 7.47883 28.2037
13.8113 7.02522 27.6824
13.429 7.27429 24.3415
13.9844 7.46886 28.4899
12.0954 7.22354 24.3754
13.2151 6.65262 24.8416
12.4952 8.08362 27.8138
13.5091 7.84259 28.4154
12.8499 6.36308 22.5659
12.7171 6.6486 25.8388
13.3173 6.92979 25.1002
13.5379 6.69843 23.9964
14.3714 7.03592 24.7711
12.9729 6.82095 25.1484
12.0765 7.04704 26.3922
13.3566 7.92158 29.4215
13.8402 7.00118 27.1922
15.594 7.06437 25.086
13.8998 6.8911 24.5431
14.7329 6.87603 25.6486
14.1943 6.9555 24.983
15.6722 6.82018 24.3076
14.1694 6.67828 25.5929
15.2446 6.95759 25.2584
14.179 6.73419 25.9326
15.6673 7.18374 27.3607
15.0552 6.92308 24.1438
16.5765 7.30143 26.3404
13.8551 7.26982 27.0351
16.5797 6.89856 25.726
13.9086 6.45863 26.5452
16.5721 6.54937 22.231
12.6183 6.05018 23.82
15.9286 7.11198 28.8049
12.9588 6.8344 25.6776
15.1394 7.34975 26.0713
13.676 7.20555 26.4351
13.9153 7.5377 29.7607
13.3511 7.37617 26.5759
14.3388 7.05651 25.7763
12.6482 6.38045 21.7881
14.0211 6.37394 26.2537
12.3788 7.17371 26.6504
13.6482 6.82622 23.1585
11.7614 6.47491 23.1671
12.2447 6.92912 24.9679
13.2307 6.66247 25.762
12.517 6.74968 23.5272
12.3448 6.82577 26.0442
11.7267 6.63953 27.5083
12.4555 6.96345 24.534
12.1555 6.5801 24.2927
11.9612 5.98777 24.0228
12.814 7.01387 25.597
11.99 6.38213 23.4884
12.4119 6.8013 25.7228
12.7623 6.74628 24.5579
12.3041 6.95632 27.8047
13.3686 7.1404 25.5249
12.5913 6.2252 22.5807
12.7892 6.78148 27.1743
12.8169 7.0564 26.0647
12.7851 6.5135 24.1891
13.629 6.42658 25.5044
13.1213 6.99864 22.6575
14.4714 6.04431 24.3783
12.7102 6.21205 27.07
15.1697 6.69279 24.6573
13.3572 6.55283 23.6616
14.527 6.17766 24.5904
12.8053 6.05794 22.3556
15.0489 6.72742 25.6289
13.3861 6.27095 22.9138
13.8589 5.56126 22.062
14.0912 6.44434 24.7112
13.8585 7.18075 26.2635
13.551 6.77728 24.1565
13.7183 7.11703 28.2905
13.0847 7.26059 28.4576
14.1462 6.34796 24.1417
13.2544 6.95884 24.8324
13.1152 6.701 24.7671
11.798 6.89231 25.36
13.2657 6.33349 24.7673
12.2512 6.42354 25.053
11.6518 6.4727 26.1601
11.2429 6.44577 24.7428
11.7849 6.55399 24.7525
12.3076 7.00687 26.758
11.7142 6.67349 25.873
11.1576 6.18964 22.7022
10.9418 5.83582 23.8525
10.9797 6.22097 25.1805
11.5423 7.14479 24.9926
11.8343 6.19413 26.421
12.3507 6.82077 24.5652
11.451 6.31247 25.6089
12.0438 6.84914 24.6107
11.2914 6.66216 24.1721
12.3777 6.56122 26.1596
12.002 5.96686 23.7587
13.073 6.87667 24.1592
12.1924 6.35425 24.6016
13.288 5.79656 24.0456
13.0727 6.31771 25.9438
13.5609 6.62916 25.1906
13.0072 6.20944 22.5296
14.7647 6.59498 25.5642
13.6783 6.48052 22.8024
14.5368 6.17347 25.0855
14.1129 7.00532 26.4933
14.5247 6.79524 26.729
13.632 6.61935 25.1392
13.815 6.35589 23.9092
13.3228 5.94057 24.3151
13.3547 6.90192 25.3757
13.071 6.03241 25.9596
13.1262 6.69959 25.0801
12.8258 6.63761 25.1465
12.8885 6.44512 23.9211
12.3919 5.84093 22.0882
13.3177 6.17458 22.7613
12.6049 6.07788 25.1771
12.5702 6.20866 25.0059
12.714 6.49906 23.8216
12.8272 5.9668 23.9295
12.2475 6.33688 24.7252
11.5216 6.28639 22.9421
12.0613 6.1964 25.6985
11.9949 6.17199 24.8969
12.4679 5.87586 22.5341
11.2945 6.26887 22.6374
11.2639 6.06973 24.4796
11.9342 5.73016 24.6882
11.1903 6.40572 24.2753
12.7238 6.11344 23.3143
11.3422 6.37565 24.4304
12.1599 6.24039 24.418
11.8259 6.00411 25.194
12.3641 6.50505 23.1954
11.9517 6.13647 24.9656
12.6644 6.16917 24.3958
12.3267 6.50492 23.4496
12.2729 5.92309 23.1182
12.5582 6.61379 26.5004
13.4541 6.33459 24.4063
12.9061 6.36498 24.7148
12.8533 5.70363 24.8406
12.8924 6.65311 23.4768
13.326 5.66897 24.2458
12.4729 6.33678 24.7279
12.9498 6.18316 25.3147
13.0135 6.29462 21.7701
12.9329 6.03358 25.5641
13.4118 6.74828 26.6117
13.0609 5.78149 21.6533
11.9975 6.4328 24.969
13.8074 5.78862 22.842
12.9144 5.67832 22.3628
13.7695 6.52787 24.7711
13 6.61473 24.2642
13.6372 6.2441 25.55
13.7339 5.76886 23.1479
13.8623 6.25842 24.5737
12.8651 5.53038 21.8284
12.0265 6.31444 24.5843
11.5738 6.13419 23.4537
12.2154 5.90298 22.6455
11.7149 5.75716 25.1027
11.4341 6.4159 23.808
11.2801 6.38579 24.8823
11.3694 5.73442 21.2086
11.1598 5.33806 23.2526
11.493 6.1685 23.8558
10.9976 5.74225 23.1442
10.8796 6.20374 23.1111
11.1989 5.3258 22.5456
11.4101 6.46313 25.5998
11.1771 5.53589 23.7717
10.8525 6.57626 22.6805
11.1291 6.19077 23.7247
11.8641 5.89374 23.7019
11.0011 6.07339 25.3346
12.7323 6.51628 23.2893
12.1554 6.04263 23.8685
11.929 6.12874 25.8554
11.7725 6.8422 25.5203
13.0438 6.2377 23.9502
12.71 5.72344 23.0415
13.7251 6.30738 23.5555
12.67 5.83036 25.4214
14.1831 6.08844 23.7011
12.4349 5.89364 24.5477
13.9494 6.55971 23.863
13.5335 5.8035 24.4198
13.4886 6.10729 21.4692
12.9447 5.79425 25.2153
13.4456 5.83996 21.6222
12.9253 6.07445 24.2134
13.4481 5.78273 23.1746
12.8953 6.15086 25.3719
14.3876 6.34673 24.1478
12.461 6.2475 26.6401
13.3472 6.42057 26.9508
11.3659 6.47991 20.056
12.5446 5.24172 24.2978
11.7742 5.9862 22.4977
13.0978 5.81562 23.2968
11.3601 5.60998 24.4172
11.8831 6.08351 23.4319
10.9806 6.08759 23.2845
11.5635 5.96017 25.6013
11.1867 6.51923 24.3054
11.5172 6.57269 25.5951
10.9254 6.35313 24.8558
12.0876 5.92314 23.4505
11.2765 6.24242 24.7493
11.9338 5.79725 25.4346
11.5836 5.90207 22.3827
11.4994 6.45338 23.1556
11.9656 5.23263 22.3489
12.283 5.94716 23.7077
12.1831 6.02624 23.3151
12.1916 6.0132 23.8217
12.2787 5.96581 22.5282
13.4045 5.97126 24.3676
13.0691 6.09955 24.9072
13.1514 6.00248 25.3652
12.205 5.80219 23.8801
14.3967 6.38867 23.6418
13.1474 5.85663 24.0373
13.9825 6.12946 23.8812
12.4058 5.55799 23.0673
14.3354 5.46389 20.1715
12.1193 5.63768 24.2375
14.6064 6.47711 23.3098
12.3726 5.8398 23.5824
14.3371 6.14985 22.7303
11.8342 5.77225 23.7823
15.9432 5.42288 23.1007
12.8329 6.12396 24.0173
14.4077 5.59677 24.1562
12.4436 5.799 22.4264
14.2432 5.96886 23.5189
13.0313 5.63101 20.9805
13.507 5.98315 24.464
12.6865 5.63716 23.2991
13.3468 5.95774 24.4636
13.7215 6.26051 23.5784
12.9704 5.96697 22.6201
12.2356 6.29906 24.235
12.1653 6.17453 25.026
12.1392 6.36137 25.6806
13.0262 6.2019 24.0416
12.1929 5.82487 22.7173
12.4234 6.07088 25.0625
11.1653 6.84011 25.1493
13.0574 5.85942 24.1159
12.9408 5.99437 23.8256
12.4715 6.0456 24.559
11.8568 6.30638 25.7689
12.0115 5.95705 25.2024
11.7231 5.58195 19.951
12.4196 5.36324 23.618
11.2526 6.11015 23.1493
13.367 6.14133 24.2097
10.9474 5.59416 24.1897
14.0258 6.36699 25.9412
12.3569 7.07609 27.3227
12.6667 6.89076 25.7171
11.7976 6.38333 26.7222
15.0994 6.10267 22.7271
13.0514 6.52367 26.8004
13.4411 5.66986 23.4327
12.7857 6.35063 26.0427
14.3892 6.49685 24.9726
14.0984 5.97857 25.8719
17.4162 6.68381 27.9826
14.4801 6.94103 25.136
15.2662 0 0