# pn-170911/CsIIA-26-CsIIA-1280-1959.psd
# Power spectrum* (dif=0,1,2) (really just |FT|^2)
# NOTE: only the first half! (symmetric)
# weeks: 1280-1959
# 1 clock-days, 0 excluded
# PSD: 1441
0.418355 1.83454 0.00383779
3.86472e+06 79.0849 0.00570391
62552.5 32.7696 0.00613719
2.26919e+06 27.2925 0.00696905
4.41028e+06 238.317 0.0404452
1.00222e+06 41.4324 0.00734463
580702 185.398 0.0515622
122198 66.2684 0.010024
1.8833e+06 373.48 0.123935
2304.02 24.8835 0.0181557
349487 68.2402 0.0389129
330766 109.549 0.0392012
30076.6 46.2222 0.0549575
38974.7 5.58446 0.0199883
182075 83.2434 0.0550508
77400.6 41.5683 0.0795398
126319 62.8385 0.0677614
77096.8 99.0054 0.0874236
219731 214.498 0.281319
31350.4 10.6979 0.0109873
127913 140.338 0.3204
6440.39 0.715108 0.00841198
2399.26 17.6443 0.0617881
7431.51 1.11003 0.00133536
28413.5 20.3862 0.0420952
46502.3 55.6706 0.194314
12731.9 5.97816 0.0391446
42127.8 121.655 0.526523
19939 17.5482 0.0837324
33397.4 75.6483 0.39365
15431.7 34.416 0.0911013
1091.23 26.8012 0.154313
10369.4 28.371 0.0787088
43815.1 193.273 0.856528
14634.4 173.624 0.907466
7242.11 122.587 0.717501
3501.07 53.861 0.310692
23473.4 66.9837 0.378498
603.931 14.6978 0.123125
4187.33 19.1623 0.190317
15126.8 105.03 0.9579
20255 64.1508 0.474668
12544.6 33.2574 0.294477
10204.1 91.2015 0.652324
8367.98 116.979 0.98917
4980.4 22.7135 0.171909
14357.8 54.6016 0.54866
22369.1 117.98 1.25296
3648.45 51.8937 0.481366
1244.39 5.57962 0.0916066
4215.08 7.04133 0.0648143
4789.81 10.3656 0.143679
1103.45 13.0996 0.227673
8782.88 48.0614 0.557586
3551.75 12.9389 0.149055
2750.01 18.8292 0.327408
7355.11 39.7176 0.655672
2718.56 7.28192 0.0842757
4052.38 15.5546 0.304345
3016.75 17.1987 0.405607
1827.5 41.0235 0.534404
6033.65 119.99 1.93324
208.699 37.0225 0.653604
8557.9 202.589 3.85834
4598.1 97.6276 1.91737
6729.41 75.023 1.56808
5448.29 37.1472 0.778687
12807.9 159.874 3.40417
961.169 8.36885 0.187978
1151.45 51.9224 1.16879
3254.36 133.852 3.41602
7417.13 111.134 2.45224
1318.4 51.8911 1.30325
2179.73 53.0535 1.53559
1168.34 3.00195 0.0373913
2535.04 13.2767 0.336516
3770.79 129.216 3.81737
5320.95 57.6255 1.60188
4087.43 43.7679 1.39089
310.057 14.9483 0.485497
608.352 67.6744 1.94093
3585.86 152.124 5.36729
6071.3 151.202 4.30319
1012.53 12.5803 0.473898
198.356 53.2365 1.98907
1239.61 18.1274 0.504664
893.577 36.1516 1.41199
7738.16 153.063 5.17805
3744.76 50.1628 1.78249
1604.54 36.7416 1.66501
7920.98 175.084 6.58317
818.002 51.4374 2.23099
2027.89 25.7441 0.808413
1906.64 97.6747 3.82424
1140.66 4.38338 0.102436
7626.05 177.543 7.2322
5583.37 135.959 6.47894
31.3493 9.923 0.351793
3162.83 61.9797 3.04489
1739.84 57.1934 2.87668
551.131 31.3057 1.17813
262.28 36.3217 1.56214
1578.41 86.9396 4.54637
709.096 42.4476 2.03375
3966.4 192.753 10.1187
804.108 117.291 6.85421
861.174 13.0763 0.377872
1302 34.6856 1.57946
379.862 5.49905 0.285025
239.873 1.44369 0.103836
2451.36 172.781 10.7458
1836.29 27.8492 1.3514
1892.22 57.0098 2.97101
817.345 45.8582 3.39986
3148.87 134.093 7.13554
1790.27 62.5407 3.99579
212.594 66.2395 4.53538
3750.27 120.64 7.72505
283.983 65.6938 4.18166
442.101 9.96173 0.852238
3065.74 96.7955 6.21898
509.322 9.3006 0.727794
2616.27 93.715 7.16663
103.249 39.7641 2.34378
254.985 5.51298 0.401866
1081.79 159.987 12.1075
105.045 7.74849 0.9283
904.023 39.6638 3.07436
3523.89 148.602 10.8688
1162.21 38.9965 2.813
261.3 20.6954 1.93932
2579.47 107.681 8.43693
813.638 34.9403 3.04494
156.666 25.0636 2.03537
1968.48 70.7177 5.23423
3722.57 261.593 24.6351
2264.46 130.394 10.4179
126.339 1.54387 0.0872516
333.043 2.99083 0.375643
84.6794 55.0572 5.23545
1797.09 65.3313 5.54871
871.814 44.3078 4.49798
1352.27 57.0196 6.00564
243.345 20.017 2.04384
876.416 59.5915 6.39196
1374.08 239.028 22.9714
704.449 10.0828 0.646173
2343.77 160.908 16.4239
636.53 26.3124 3.91629
98.4681 34.7199 2.85865
530.458 61.7969 7.51573
373.214 38.6214 3.38242
332.52 14.3931 1.54876
667.852 18.0365 2.09752
178.868 27.2422 2.88085
1863.67 129.848 15.2357
1135.78 68.7298 8.22663
187.326 49.3201 5.17237
562.218 18.8299 2.59644
874.769 83.1408 10.8858
1401.29 148.884 16.3247
305.119 16.4481 2.41294
464.261 23.3556 3.63887
108.5 18.6224 2.51564
145.361 59.2442 8.18525
548.708 62.5921 11.3039
697.997 44.2808 3.14277
1838.89 169.05 21.5233
78.8152 2.64231 0.166093
33.7853 7.70247 0.764453
66.8483 15.0239 2.09391
105.619 0.680018 0.152907
343.017 16.0871 1.81359
286.051 44.7761 6.74952
376.966 10.5289 1.36805
74.8395 8.22092 0.923794
79.6873 38.8732 5.98436
168.583 2.10307 0.0938069
1237.92 151.252 21.0223
677.347 86.973 16.317
568.458 44.8479 5.78237
249.456 112.243 17.2801
470.068 13.0951 1.70391
24.5318 7.46763 1.28618
370.287 24.3739 4.22715
210.165 2.38111 0.242065
437.696 24.9783 5.1148
29.1749 23.8735 2.69004
183.519 107.143 19.0064
115.175 7.28297 2.22319
543.41 27.8945 3.82551
574.176 25.7592 3.6468
277.276 12.51 2.36134
746.562 56.2706 10.3978
695.074 48.7419 6.98463
1287.74 130.001 25.3511
151.374 3.86669 1.77326
170.958 5.08274 1.30542
735.43 78.5117 20.2022
896.753 210.035 37.0718
101.624 30.7527 3.20913
96.6951 15.9896 1.64698
259.923 74.8746 13.9758
101.742 26.0279 3.73211
63.1857 55.987 11.9993
1206.7 134.522 28.0343
44.0169 43.0294 6.2345
226.317 31.6817 7.93138
105.28 74.1185 12.7798
135.959 101.745 23.1701
814.699 115.085 26.1993
233.416 18.5932 1.63867
237.001 39.4981 7.60857
140.118 30.9468 6.86683
88.2021 78.1802 18.4046
364.325 19.6001 4.70626
1081.45 153.411 32.1971
23.1234 23.8126 4.24467
199.098 7.70132 1.38105
196.211 53.2784 12.6583
62.709 1.63024 0.848876
348.7 26.1042 7.18178
27.3458 10.9072 3.39704
22.4742 5.2861 0.952373
159.448 68.6033 15.0116
380.364 40.7139 11.2704
286.028 168.596 40.4646
97.7883 21.499 6.52529
290.048 14.7727 4.55327
589.257 86.6056 17.6022
219.711 23.9263 7.35122
68.3965 62.343 16.4401
897.229 127.421 27.5602
2.22756 28.105 7.3167
180.563 8.3668 1.48119
154.138 3.70891 0.631385
73.5713 51.6727 14.9107
404.92 31.439 6.31878
284.423 16.806 3.78959
276.62 27.4228 9.06942
468.03 81.6731 20.6019
209.893 12.9084 4.32523
14.869 4.23144 0.8422
12.8079 20.041 5.33684
130.124 6.21849 1.19676
401.895 53.2845 14.8133
251.576 21.1624 8.45061
500.773 169.887 48.4606
355.761 28.9662 7.12186
156.578 14.1305 3.77458
24.1019 8.72316 1.44975
391.857 67.2276 21.9775
31.1022 20.3747 7.96713
159.154 85.2005 17.9179
134.796 69.204 18.66
196.476 115.994 43.1249
152.374 26.9583 7.12101
376.545 34.1014 8.6121
12.4148 7.7905 2.54747
208.574 24.6779 11.8985
247.278 102.541 25.3116
13.1916 14.5927 5.4929
143.07 25.847 7.81115
28.3424 6.00908 2.90804
269.757 63.7005 24.1493
229.344 21.0177 3.64635
166.585 50.5704 16.7313
9.4967 11.2533 5.14592
131.863 6.12751 4.15644
581.856 237.657 84.4506
573.244 79.4019 18.1792
157.907 49.6615 18.7119
27.6875 8.64767 3.7515
96.4155 6.42141 5.12969
532.13 73.5891 19.471
234.617 30.3291 14.4228
231.848 84.5708 25.1897
12.5261 6.0074 1.72833
66.8643 2.60486 0.697211
32.608 17.2284 6.30968
51.5924 15.2274 5.49657
6.73809 50.8889 24.237
238.775 10.515 1.18291
422.993 111.864 37.6485
159.797 10.1602 3.10962
568.38 123.331 41.5004
123.204 63.272 31.0467
279.114 28.7088 10.0701
291.482 65.1404 22.0658
178.491 17.9387 7.50029
375.687 92.395 51.2735
167.616 77.3355 18.0969
96.8448 81.2061 28.7709
41.5151 80.5907 32.6083
37.2849 4.65871 4.72031
365.915 81.8643 33.8111
50.4259 4.16162 5.1238
277.095 52.6387 30.5887
104.457 95.191 29.4715
20.0214 34.9314 17.8322
244.533 20.0638 6.16479
416.382 113.079 35.8
166.6 65.8782 30.4337
20.1038 47.2816 15.4105
70.6831 41.3767 19.4358
1.18873 22.6847 12.1421
84.6647 9.10899 3.8793
99.8548 50.4369 25.4867
130.189 8.57059 1.81131
23.9526 34.0879 13.9776
77.9325 54.9598 34.4126
322.799 64.3819 21.2546
342.976 62.7542 26.8965
25.9656 11.3602 7.84258
92.8942 36.4668 10.8469
80.6352 67.618 36.9213
241.296 34.6072 17.5354
83.0014 9.72154 1.14096
272.288 57.9519 22.5049
91.4716 26.4729 14.4466
41.9883 2.3849 4.04651
5.48663 10.9096 5.43745
158.697 137.864 53.3912
3.793 51.3328 30.0242
93.0721 17.9929 7.04776
9.97819 63.9323 37.4174
132.301 58.3583 37.7354
107.064 25.5479 14.5815
151.251 5.78008 1.62888
301.541 49.18 15.9031
119.904 15.9743 8.56106
64.415 2.15924 0.83011
10.6083 17.0042 10.5593
140.804 10.9318 3.44711
23.8199 14.17 16.2337
683.747 219.985 102.949
73.3609 24.9528 11.7174
74.2218 6.43088 4.35809
36.295 28.4467 10.0216
42.295 7.43991 2.66479
109.604 61.5797 37.5862
91.0184 145.594 81.6247
78.5703 19.5855 18.4104
272.246 38.2893 11.3357
91.326 6.76432 3.68493
17.6665 9.67437 11.5742
240.838 45.2703 15.3646
59.0014 19.7554 12.1333
61.7796 0.258126 1.6957
396.495 117.65 69.7613
213.129 163.565 88.1644
47.7562 14.1597 10.2967
396.213 139.021 67.7777
82.315 14.9019 16.4422
108.265 11.7683 1.97091
225.461 109.239 59.981
112.882 22.5871 11.4461
167.169 50.1677 29.438
2.91494 14.6858 7.73686
154.388 44.0935 26.1073
143.708 31.1054 23.4918
12.3651 1.69031 1.866
24.2967 38.3231 18.0127
10.0997 6.7203 6.62026
69.6526 144.848 100.476
526.304 282.073 159.401
110.035 5.17946 0.0918332
89.5223 19.917 20.2063
173.318 95.1944 52.8561
148.785 20.1864 9.26035
23.7962 16.4114 9.423
45.53 14.8847 16.7517
124.216 25.9156 8.29509
56.3179 21.7648 15.0143
13.752 26.349 18.9194
53.7556 3.28491 6.19479
150.984 26.4657 11.6328
18.6203 16.7702 16.1341
92.8426 26.8665 13.7952
126.034 16.4629 6.19307
17.0197 5.8809 8.36321
147.491 26.6515 9.40649
174.213 52.9217 31.4083
101.559 8.79816 2.64883
212.986 79.2417 57.437
163.34 39.152 22.2531
70.7815 16.2756 15.5758
1.43102 23.4024 13.944
83.9683 24.3227 15.5108
32.3898 0.413408 1.96458
103.491 29.2187 16.4439
156.039 35.1486 22.6335
94.2634 34.6493 24.55
77.2862 13.6498 4.09896
136.481 35.3722 24.1268
50.6699 44.2491 26.5121
77.3293 51.5816 51.5382
149.467 25.0946 11.3575
114.724 31.6155 29.1354
12.0013 7.29672 14.1007
38.4603 17.9904 4.84488
58.2083 29.3622 20.279
97.7331 20.9082 15.3043
45.7028 18.154 11.6002
130.537 24.2192 13.0268
49.0933 3.49689 2.11978
69.0474 11.1404 9.73709
40.6043 2.67653 1.03457
87.3459 22.5969 18.6474
28.542 3.9877 2.83479
79.3407 27.6912 35.7319
69.1424 57.4541 32.3447
23.4571 23.9669 18.9949
76.7452 27.2042 14.5164
9.37503 9.03715 6.3985
41.0907 24.0153 23.8442
71.6421 7.45336 6.93436
39.2209 18.52 33.9836
167.838 66.603 30.2196
58.5272 15.3706 24.5396
210.538 137.042 83.4911
0.984604 22.5072 25.9165
214.353 65.6034 34.6128
108.325 40.5212 34.599
68.7012 34.4511 44.7684
38.3868 64.3735 45.8
7.44363 18.3605 27.2408
18.4278 10.2487 3.18875
22.029 33.3388 26.2539
96.2045 78.596 76.7399
40.0783 32.4866 23.7877
70.0702 18.2518 13.2988
80.6502 7.49002 2.32264
44.3689 8.07705 11.1429
94.6802 34.6425 21.7568
11.5068 5.24845 7.90876
121.234 48.624 33.9595
15.6488 5.17632 7.59294
74.2632 36.964 40.5574
155.244 44.6072 34.7474
139.425 47.168 42.8717
95.8918 34.0825 31.5618
19.7916 18.0151 25.4493
54.5077 23.118 56.4873
234.733 138.417 79.4432
4.96593 11.9132 6.78547
25.1113 0.326263 1.05862
17.5379 0.781959 5.85253
60.3881 80.8064 66.6639
142.075 42.0067 33.4584
31.2078 15.7184 12.3161
39.3425 2.47648 1.05535
101.285 40.4424 41.374
91.109 39.7705 55.2981
35.7886 63.617 34.8448
78.5223 33.0874 27.4991
43.039 10.4836 18.5331
26.6362 55.0916 38.434
31.835 2.28169 3.6512
10.4117 8.45859 14.6359
43.1677 30.6142 19.4546
15.7585 20.4342 31.8404
126.588 36.0033 32.6518
82.95 21.4997 21.9869
106.477 100.594 76.0346
17.1382 10.9794 22.5805
43.9331 17.1053 11.2382
35.3903 7.90405 8.93128
97.7287 31.8815 33.1847
2.80301 4.33201 0.702291
3.89817 15.2029 16.689
95.7843 43.996 50.0141
83.3029 88.8252 91.1945
108.969 61.1892 47.0626
56.2037 15.8486 14.4388
97.375 30.1023 24.797
44.5126 40.6938 42.6358
11.3985 12.8958 16.3647
161.078 75.666 78.3919
1.83144 21.7522 13.2963
50.7636 17.0568 16.0676
14.0892 2.87531 4.47535
79.2919 69.6493 71.0203
27.6028 7.00876 24.6147
25.5026 12.4176 11.3695
101.896 36.6312 20.8469
72.6038 26.8931 31.9658
3.32213 3.54244 2.87697
21.3941 1.1581 0.349268
81.4145 83.6463 102.338
99.2438 27.4731 12.9811
43.6044 11.0595 12.3669
28.6655 6.76131 11.6628
13.0723 6.74387 13.6703
14.7205 2.40254 16.1431
35.7791 27.5495 11.7882
13.3388 0.809403 0.070368
14.9615 11.5486 4.89025
16.3241 14.7421 9.56171
22.4808 70.3036 103.169
65.8438 70.3477 89.1124
167.577 53.8282 33.5371
110.705 45.0616 40.3362
11.4473 0.936748 6.66283
47.3627 50.4025 48.6007
34.0696 1.34661 8.98717
91.5395 17.5644 6.63865
110.205 40.5991 24.3841
120.992 85.7261 106.922
28.4602 21.5933 31.7194
29.6458 10.4484 30.0719
36.8507 53.2393 56.0989
40.6992 35.9047 42.011
52.6902 31.86 23.4201
11.1793 2.92165 3.00241
57.2303 33.1801 56.8446
7.86893 21.2142 9.91002
11.8285 8.48455 13.5811
46.5864 7.40423 2.33079
61.6822 32.6328 42.0414
2.94127 12.8263 15.3899
9.67201 13.4491 19.2666
93.0706 46.915 45.1554
20.8034 37.6219 64.3554
8.01666 10.202 16.8987
55.3099 13.5396 9.95665
3.47852 6.49704 6.91316
31.6312 3.75518 5.71047
36.6956 5.40661 8.01089
15.6592 0.011146 1.08643
40.0686 9.7332 16.8089
3.4089 3.8654 2.80677
16.9745 0.0991702 0.594214
23.5497 2.70392 4.31158
34.7086 33.4475 49.8994
90.1648 34.2919 30.0228
47.886 48.6591 75.3945
9.57127 4.72079 11.3242
71.7626 22.7768 21.5316
33.02 24.491 52.641
25.4838 24.1349 110.828
154.714 125.494 72.429
2.71217 15.0018 12.1166
93.512 95.0229 108.348
69.0296 35.709 53.4482
10.678 32.0675 31.4145
105.619 68.2516 94.9582
10.1726 12.4155 13.6578
33.7439 23.5901 40.7576
7.32287 8.5883 1.88759
4.79288 51.545 70.1797
72.3611 15.2824 8.39091
48.9667 26.9518 46.8292
21.3483 8.65497 40.4206
11.8316 31.1259 17.1005
23.0654 15.6739 16.9758
76.9942 44.0873 74.3167
30.0162 30.0565 22.6316
0.00261076 20.9872 24.0984
50.3378 12.2201 16.6159
22.2864 7.78034 2.80737
45.9051 33.9545 58.3312
1.50541 15.1341 10.7202
39.2273 10.7464 18.2354
16.7033 7.49433 10.7379
23.1852 12.7495 43.9328
0.850205 8.5861 7.01534
10.6625 35.2521 32.2719
16.767 0.399706 4.9186
14.3931 5.19323 34.8822
63.686 173.225 178.283
34.3888 30.0903 38.557
11.6625 18.3195 36.9869
63.8177 14.4152 9.06874
28.4418 10.112 27.5411
6.45008 27.6794 34.8552
35.3413 102.89 145.533
69.9777 9.32014 1.55798
44.4303 16.3832 19.3737
29.8253 18.0617 40.6241
12.5571 4.48346 27.0604
22.6581 7.62194 54.2858
44.9675 20.3322 0.229096
68.4783 53.8637 53.3213
6.0874 10.4697 5.45701
3.06108 8.84473 10.1743
71.8071 48.3887 77.1807
4.82044 3.12546 54.5386
56.2312 87.1108 42.4365
17.1136 85.0547 78.808
1.27914 28.4481 39.0209
24.2192 32.4264 42.2408
33.4964 13.1847 17.4937
20.7994 11.7724 30.7148
8.49204 8.14574 3.75043
0.422464 20.0858 25.6175
24.3544 5.23144 1.4242
14.0205 9.29038 3.5334
21.9608 59.9083 91.8043
22.5368 0.343034 6.89965
43.5898 14.7229 21.091
19.1821 3.50748 9.94726
12.1604 12.6574 33.3808
3.19808 35.2251 34.1621
15.3167 5.96185 7.2303
6.9237 18.0596 24.1548
10.5963 4.98122 17.7814
40.2209 6.9353 6.7953
38.5574 18.6949 42.4593
5.31003 35.889 62.2029
70.3344 66.7695 78.4122
1.48702 34.3782 42.629
3.28771 14.2006 27.3874
13.7501 5.82019 10.5355
14.38 2.65517 10.1361
16.8554 0.640787 8.40491
39.038 14.3893 16.4173
3.90972 5.40194 11.5238
16.9714 7.13501 8.59062
33.427 28.2006 43.2476
36.2354 17.2866 49.3436
49.4204 21.1076 17.7681
13.1709 13.0751 26.9255
19.1946 18.7314 17.6909
26.023 18.2984 39.866
21.6568 9.14586 52.0559
43.4406 29.978 15.4165
16.0109 3.04019 7.28386
16.259 9.04561 23.1089
2.16074 14.218 3.56729
14.8263 27.0108 42.3666
2.34008 27.1238 35.3529
25.5259 3.62011 10.9998
23.448 46.3017 70.5695
16.5964 0.543748 0.533797
13.9994 9.68019 50.088
11.6289 55.6097 47.2219
17.134 86.1105 138.708
25.4581 3.24012 34.9756
56.4754 12.603 11.3918
11.1959 7.50706 19.3027
62.6201 41.1172 37.5193
11.4399 7.86951 13.8829
4.04953 4.30371 4.07287
20.4323 53.6305 102.249
26.9698 0.172964 12.1448
34.3987 3.13023 0.380937
61.3554 76.2477 157.788
3.35533 44.1176 135.201
83.9064 36.1942 6.37598
27.8244 8.65173 0.766125
46.9344 39.9675 55.5615
14.4375 9.60011 23.4556
36.891 18.8099 14.7269
13.8763 1.26407 0.352591
31.6793 16.3376 34.6565
4.09698 2.69337 7.74997
76.7679 109.111 182.423
5.47247 0.430631 23.3969
4.99745 43.5755 37.0831
13.8141 17.7028 33.2022
49.296 34.9512 66.2912
1.78439 3.48317 10.2109
4.31254 2.02459 1.76505
37.6503 68.3459 208.899
23.2993 19.7708 5.97832
2.81667 27.9149 28.5805
23.7182 97.7558 100.122
7.59924 7.87506 8.47978
4.22297 81.6336 124.108
4.57495 46.6205 172.764
65.1027 16.5165 13.9946
17.4345 2.14751 24.2571
32.8638 3.94278 24.9998
27.0947 19.0296 64.8989
100.733 52.6009 23.2029
85.9763 114.802 234.037
40.1733 43.9122 53.3533
3.54206 18.9471 49.8627
9.93468 3.13522 1.18105
3.51456 31.4674 52.3156
31.3051 6.20479 14.9443
12.8491 6.00145 5.08505
25.9476 9.95072 15.4673
1.84059 9.17026 10.3914
3.2046 16.6095 57.8328
62.8903 38.9738 58.9864
8.24175 3.34373 0.578563
3.02869 19.5807 73.6378
82.5164 47.0335 46.2571
13.5805 20.6535 68.7158
14.1935 8.69147 19.5068
45.8603 13.6633 12.8492
67.8969 88.0378 106.09
23.088 30.4736 110.796
5.80205 20.5163 18.9416
1.26063 3.23255 0.781035
20.4665 62.6628 119.551
4.68364 14.9304 11.6103
6.6543 7.08937 19.2485
0.451321 21.2883 52.9089
6.31748 39.4582 93.6328
36.6163 3.96168 5.72713
39.0238 14.678 15.0514
31.1353 46.8114 116.162
14.0901 92.5295 127.955
18.7075 2.15674 8.39393
16.2623 0.726602 9.92205
16.4104 41.1199 78.8121
18.137 12.8297 18.0652
20.2773 11.3822 42.6846
14.8801 30.0024 18.8256
6.96741 43.0059 96.6535
17.0337 8.1685 40.452
37.1605 20.2828 53.0616
36.417 10.6451 15.4845
5.64842 6.51567 11.5116
21.7492 6.60395 4.61174
2.73029 16.9083 59.1919
57.2463 36.2851 57.5356
12.8997 3.17483 0.199008
9.38711 0.989338 9.198
41.2799 45.0437 82.9972
10.9766 1.62291 7.93297
1.53762 32.5365 95.8904
59.5103 43.1586 82.2311
3.94789 30.9513 31.2479
5.99124 23.9611 49.5025
19.6204 0.13248 2.0544
3.70714 16.784 49.4455
31.0816 3.26155 5.40876
16.3667 0.294923 2.50058
16.7086 7.75308 18.1682
38.14 32.5812 92.9363
22.1039 42.448 39.4247
9.60088 11.0154 44.3353
13.3631 23.5274 32.3463
7.7472 11.4351 67.8612
66.9153 57.0482 123.02
22.7179 39.1035 48.778
36.5139 31.5048 93.4409
23.4796 43.7932 69.4339
33.4216 6.71784 2.12985
17.1951 6.69823 5.3857
21.2934 42.6009 141.564
37.7069 16.717 49.9153
14.7694 18.539 2.69301
18.2466 21.3575 37.3295
0.0361676 25.3736 50.6804
25.645 16.7636 38.9239
2.77566 35.9485 100.785
55.1302 29.2924 38.3251
1.63146 20.2171 51.1474
22.1038 1.21875 44.445
66.2521 57.5193 62.1274
6.6405 5.72178 17.0296
1.01973 6.36348 8.2991
16.0836 4.80665 14.1343
2.75346 43.2366 82.2242
33.281 12.4885 19.2175
6.51194 16.1343 73.9412
55.3558 47.7578 47.4022
5.57821 7.81501 26.1458
40.7598 38.4501 97.9868
3.09719 3.27403 11.4449
0.521495 31.2176 38.9772
13.2599 1.56843 9.33527
0.746075 29.3673 62.0927
15.5907 2.05983 31.3821
23.4648 6.21827 2.44654
6.5027 12.893 129.047
88.1819 100.366 73.0485
7.15435 27.1236 57.4121
34.3625 19.651 11.5105
20.5598 53.5234 117.713
14.6634 4.90825 41.2519
33.5097 15.949 29.2988
2.89185 35.8946 112.403
29.2396 1.43165 4.02579
21.5599 4.19771 5.41981
28.5454 55.1805 211.077
42.6637 29.6846 13.693
5.70745 4.79603 31.6293
18.1621 0.945757 22.4281
48.1835 50.9197 72.5961
1.08465 16.6895 56.0069
39.1182 13.0805 4.39855
20.6082 13.5064 37.7894
23.9 9.56883 3.9744
18.1304 7.40656 15.3689
14.5264 9.44629 14.5194
8.28103 3.04983 23.397
0.386425 47.5151 157.256
80.9015 66.5995 76.0414
5.62583 2.75698 2.51096
19.5011 29.6524 90.8367
0.881204 7.66127 48.9916
18.9628 24.7824 22.2636
12.7025 2.62324 6.92576
19.8298 16.0079 72.8841
12.4337 17.6025 7.13375
3.84212 9.05383 21.5841
26.5946 13.7862 15.5565
8.48915 13.2379 29.202
1.25975 17.4845 48.2099
24.3449 17.2008 80.5582
3.88855 32.7869 86.3235
39.5419 40.5877 68.9758
25.7368 13.9933 36.2235
0.357167 7.92368 10.7411
6.38983 10.9095 24.9179
19.6232 8.78156 5.8692
19.0249 32.8712 72.626
20.1657 9.37585 39.9838
18.5154 6.75934 29.9219
2.20974 5.95211 41.3487
13.7013 39.1911 108.314
44.7492 28.9386 52.1542
6.60075 7.08682 33.9258
25.7589 1.70698 22.0619
63.2699 80.6697 158.392
2.64017 9.30713 6.22814
9.86139 5.54885 21.0786
14.3583 1.74801 0.591394
12.1079 2.97976 6.99468
6.02817 11.9394 40.55
11.2822 0.978161 0.671424
10.016 16.7413 87.4178
41.7991 29.9086 64.9522
8.8257 22.3747 49.0098
11.3713 26.4192 50.5817
8.75666 2.89845 31.2659
16.8444 0.4341 5.68032
10.1785 1.84452 18.0525
23.5666 6.21237 30.5216
24.9643 10.7215 14.114
4.10005 4.35127 35.0258
29.2457 7.20789 38.9607
38.427 48.7376 47.3992
12.2212 4.38911 16.8503
9.74943 3.0184 1.27765
11.3782 5.23727 5.594
26.4793 21.5354 9.9905
26.6036 38.8297 102.219
3.21019 43.0469 90.4617
27.0489 17.7769 73.7487
20.9163 23.6055 37.7712
18.5171 11.0616 28.0211
1.67177 7.21875 19.3904
24.0752 10.5642 4.44906
29.1933 39.8631 96.9188
0.726749 11.204 39.2392
20.6662 17.2772 55.5583
7.52171 27.9907 61.8377
31.7659 30.3925 73.9195
4.55263 6.32983 80.1247
3.40615 38.7304 68.4153
10.564 0.220841 15.89
9.72567 15.4672 18.0465
4.32826 15.8044 81.802
44.3304 32.492 86.8793
21.3275 45.8855 68.0844
23.747 24.1597 103.019
16.187 22.5395 21.1846
10.1701 3.03799 13.6038
8.26441 15.3716 54.3374
2.55434 3.17553 1.64375
2.8698 30.0425 96.9581
27.7206 9.51246 42.8217
6.73236 15.7663 41.6632
32.1663 25.146 18.4087
17.8004 26.3443 105.054
4.30702 22.8509 41.3509
19.2446 6.91459 30.1827
25.1858 13.7628 7.76633
13.4715 8.07065 18.0543
4.98959 0.139746 4.25992
22.6973 18.8563 43.6405
17.0499 27.5781 52.1506
10.3316 17.1623 115.387
19.4761 48.055 118.868
2.948 1.07756 34.1518
14.2152 33.8479 48.1898
22.6975 33.1513 134.018
0.0459267 7.19318 57.8626
5.39823 10.6262 2.56212
4.88992 6.73176 61.5219
6.59347 23.7437 27.2577
17.3915 5.68942 30.9087
8.11841 7.47903 9.83061
9.421 36.0202 74.7868
0.597925 14.0142 47.1261
7.97811 4.92508 3.53152
8.9217 3.89637 12.4488
10.6975 14.9672 67.6729
10.132 15.8693 30.2928
2.50788 5.60791 12.3212
8.04916 14.7082 59.306
1.67243 17.072 21.8939
9.49053 57.0492 133.21
20.2988 5.2175 0.121947
6.39746 25.0732 95.2963
14.1266 10.783 9.68183
14.3536 27.5039 52.6977
10.8864 5.59512 64.6643
14.9307 36.9743 75.1886
24.0406 10.2381 20.9575
4.61852 1.71964 49.9227
2.40334 29.0609 15.5031
5.00216 43.9333 139.05
28.3874 4.67667 1.45791
9.0244 3.2919 14.7455
6.59935 7.88087 27.724
9.86023 17.8931 28.2004
11.2619 12.339 78.6878
16.8577 8.92933 0.8388
3.7557 24.3353 96.5556
28.9745 9.16356 0.348762
14.3114 28.1023 107.535
8.90298 6.44019 17.8499
16.9414 12.4906 10.223
9.92738 4.61679 32.5159
1.34797 25.4292 72.8258
20.9545 14.6414 14.598
6.38023 0.31889 8.3335
0.4215 47.2404 151.045
32.554 6.62482 13.5056
8.7978 2.45629 19.2138
20.2111 21.1809 77.3967
23.0686 15.3603 11.4074
6.39291 0.270336 0.15562
9.8774 10.1206 57.1283
16.8057 24.2813 44.3979
8.71906 1.44403 30.7853
1.65292 34.9164 72.9595
17.0739 0.433896 24.4419
22.997 11.3469 33.6677
4.66004 29.138 51.6754
20.1935 28.7717 100.679
11.5628 4.72546 20.5039
14.1301 0.201084 23.3441
21.2937 7.77109 22.9468
15.708 14.2553 20.9582
21.4928 33.5714 111.279
14.1279 3.7322 82.0414
18.759 11.7477 2.41724
11.5622 25.1273 38.2207
13.7713 4.62294 37.9558
24.5078 9.75586 3.78946
6.99143 1.35444 46.3736
40.0156 37.9011 36.7376
12.0799 16.1614 34.6165
7.0602 34.7758 114.206
6.44393 2.94267 62.0728
20.3933 6.00012 4.55023
21.6072 16.5574 26.3668
8.44042 5.52637 21.5444
3.10251 1.30704 15.418
18.1097 7.63989 5.88638
13.0386 11.4708 71.6259
18.0963 27.6909 59.4997
2.44239 8.19614 4.558
17.5862 39.2575 52.4224
2.61823 23.0637 58.7319
0.448743 31.987 147.002
28.509 10.023 8.40423
7.39941 3.1961 5.19949
7.6458 1.03112 3.95973
4.88116 1.88784 3.99453
6.64357 1.79434 17.3755
14.6331 1.37711 22.7811
34.059 48.8443 67.2169
12.3503 21.5833 82.8195
9.00542 31.2584 78.3574
8.87149 7.02874 43.4688
3.98505 19.5776 48.251
22.7651 31.9787 101.656
1.07133 14.4167 58.5024
9.76211 6.4435 57.737
3.70914 1.52716 4.819
7.00516 7.33174 53.6052
1.02795 0.1525 13.6661
4.09421 7.45311 108.977
2.37374 19.9781 13.8587
5.79107 1.47107 15.8029
7.17653 19.9785 246.292
10.19 33.3604 1.8287
3.83419 29.172 75.061
4.27871 22.0706 7.10974
3.86612 8.23227 18.0322
4.45888 25.9469 90.5824
18.1247 20.1065 38.1136
0.25818 30.5095 68.075
18.3107 8.65881 4.5476
8.89086 20.0279 81.9045
4.05406 3.43382 21.4426
8.59519 3.44654 112.447
15.7215 66.3754 115.29
10.832 9.99703 8.93445
0.654987 33.4715 151.078
25.27 22.1302 16.9262
1.20513 20.4895 14.2176
0.553721 35.6825 73.2861
11.785 11.1301 30.8493
7.95943 42.5232 272.005
37.2745 2.65253 85.2118
42.0076 43.3127 9.19366
12.8741 32.4987 93.7317
7.89623 1.7566 1.96509
3.18186 4.48572 19.9735
14.6046 5.49303 5.56361
4.63721 6.06366 48.1837
24.9821 17.5915 42.461
6.74299 43.6085 148.893
20.4339 3.51193 2.97508
10.9925 1.71021 0.606398
12.3733 13.4289 66.4729
23.3853 41.0606 138.455
0.266545 4.03915 2.15155
4.23615 7.92044 61.344
10.7284 8.67922 10.3955
3.46813 0.519512 21.7711
1.77172 1.81682 62.3778
11.112 15.3963 25.7793
6.19446 60.3349 170.405
7.38866 42.7105 36.7606
5.43326 19.1543 69.5482
13.0023 4.43603 24.0236
12.5953 0.0636833 0.388157
3.38663 12.7505 71.6314
22.5758 7.385 9.21827
3.22409 12.0423 84.0634
24.3511 1.82119 23.7059
25.1646 21.8131 37.4015
6.01441 2.79231 6.22233
6.17815 17.8371 55.0387
19.6716 12.0722 24.774
5.19249 11.7727 26.5187
9.18484 2.62595 21.9301
4.11889 4.36536 57.1717
29.2329 33.3475 43.1473
3.78557 2.73817 13.5515
6.82397 10.2179 77.0437
0.474729 5.81574 12.3859
2.3828 4.26387 86.9449
9.7734 46.5882 89.3744
8.79995 8.62387 3.54968
4.06049 5.40673 17.1627
10.7931 0.39232 4.69215
5.18675 5.56819 24.2518
9.77375 8.21777 15.1316
5.9988 0.355368 8.5562
4.1172 5.93073 16.1509
9.90151 2.84466 69.8526
28.739 42.3226 95.132
9.18441 7.55366 5.73394
12.7205 21.0628 140.506
13.0948 50.9995 134.199
8.83257 4.3191 64.7138
1.87014 46.3819 102.582
15.3698 34.4692 91.7853
10.6862 20.1756 60.4359
14.6258 1.29735 30.1595
19.5356 15.0813 38.7356
13.9331 10.6764 32.8391
0.878421 5.95424 25.3765
15.3494 24.8093 82.197
2.61341 14.8119 120.046
27.3027 23.1475 11.8747
7.84724 0.506895 11.7616
13.2542 19.5457 52.9297
3.78749 4.95091 10.0648
11.3332 8.79416 85.5253
15.8019 18.0656 16.6123
5.0338 30.0392 46.8365
9.13992 7.88911 47.0132
4.86198 1.20843 22.8143
13.7236 8.48554 15.5611
2.97318 6.4228 42.9871
10.94 7.88393 1.84642
5.6296 5.65202 31.9958
26.6826 66.6511 222.313
1.46624 0.631379 53.1637
0.041883 2.29839 13.1692
1.27798 1.2867 33.0922
0.195257 23.7001 18.0638
9.06769 15.2551 38.8303
3.37416 5.12007 42.123
6.24939 1.95368 5.35708
3.20124 7.85318 20.4881
12.6383 5.07116 30.6908
4.85721 2.35559 3.30148
3.8174 1.50268 28.7418
0.397849 3.52023 25.3015
1.88931 39.9385 72.6679
10.0329 9.88638 17.9756
6.31544 12.5114 42.6604
10.3146 4.41143 47.1378
18.1019 2.00594 21.072
20.0133 17.626 19.6081
8.00687 18.0067 148.243
6.87425 45.0313 90.444
1.50453 18.4668 80.0351
11.6743 10.0756 16.6003
6.45795 12.9187 37.1972
10.2006 8.76231 113.729
1.37118 23.3348 23.8425
2.41633 29.533 144.575
24.2407 12.8331 0.122717
5.46164 6.25886 12.4161
4.69544 6.74438 25.3456
5.88867 5.99253 15.3951
9.08406 0.240779 28.9124
7.71032 27.8247 87.0745
22.5403 9.54102 14.985
9.14427 4.40833 14.9007
2.24971 1.03289 4.14982
5.06768 0.367768 8.00919
2.02662 1.65832 8.7955
2.66876 12.0748 21.5984
4.28593 3.55139 13.1115
2.99695 14.5942 66.0823
14.8608 15.7803 39.71
15.1127 4.75944 16.072
4.58163 7.54838 80.8131
2.3435 53.3545 92.333
14.2028 17.6728 74.5414
16.059 15.0464 182.951
31.2612 23.0465 203.293
17.8542 54.8119 33.0475
12.8981 5.18682 7.66318
8.33729 22.3889 20.8528
1.4712 16.2059 27.4268
1.08838 27.9914 45.9544
8.23818 16.3482 117.184
24.4108 2.70073 15.6138
13.7736 4.05528 6.30878
2.44035 9.97514 37.711
13.1312 0.0466702 11.303
9.48258 3.78196 82.3609
29.2722 40.2796 62.2059
10.056 10.1026 54.0536
0.52108 3.8792 6.58866
3.41094 5.7417 15.4266
10.3158 0.869119 8.52669
1.58642 19.3459 71.6029
17.6478 4.74201 26.205
1.01012 15.0636 25.876
9.49881 2.07644 6.20855
2.72457 35.8379 138.013
21.1007 3.41579 114.337
26.335 0.721177 68.7678
25.1583 10.7635 34.6117
18.8734 9.59907 21.5618
16.6165 7.82426 3.99745
13.9615 14.1756 33.2733
8.408 9.07146 7.03077
10.2707 12.9819 73.9832
5.59135 16.2236 10.344
12.0253 33.6614 139.595
12.4386 5.61282 11.2814
13.1886 7.14722 2.09062
8.30324 18.9621 113.702
1.10895 8.32629 32.4709
6.09141 5.33742 86.8263
19.2265 31.7568 49.555
15.4088 4.63479 20.1467
13.1219 16.5515 114.021
25.9737 65.5147 135.797
0.148857 5.08662 50.5276
5.44786 14.5267 48.0512
6.95462 0.966642 17.1385
4.60457 6.28529 1.9555
5.22575 12.3735 13.899
11.4683 24.061 109.751
5.70329 16.81 47.725
15.9483 2.61722 0.588605
8.13112 3.1817 13.0824
3.45659 10.0015 7.45778
7.95208 13.7388 63.7563
10.3116 0.657251 3.78844
9.8216 8.19981 52.1267
0.674241 13.5416 50.3576
17.1409 7.4015 15.0866
2.63015 3.50464 25.1754
10.6532 13.3747 28.727
7.73303 2.97296 27.634
0.964495 11.8817 12.799
7.42698 11.2242 65.916
11.7113 1.69364 85.4048
16.5824 4.66973 59.7784
11.3142 34.1236 32.9
10.3702 0.259178 26.9424
17.4722 32.2309 29.9225
6.10448 22.9687 180.378
11.868 13.0492 5.29544
3.28042 1.73643 45.0644
13.638 18.0633 15.6639
3.04612 4.31032 20.9115
1.56725 4.03452 31.941
0.527937 13.4912 17.696
5.30159 8.78917 51.8391
15.4637 3.40723 68.4249
15.6031 15.8038 6.08817
4.80599 1.57663 6.65847
7.99595 4.02209 15.1141
2.27097 1.843 24.5196
11.917 10.3795 7.59412
4.84442 7.6745 68.9753
0.574093 6.86267 7.04694
8.3543 7.01329 77.9124
0.509018 17.3665 16.4567
6.92965 20.8917 50.5785
10.9056 1.49898 42.7501
14.3957 5.11527 29.7485
4.51146 2.44683 24.8962
13.4907 16.248 42.5876
0.766125 3.85557 7.06144
4.92979 15.0445 5.54322
6.41737 16.2084 63.2858
8.37713 4.59718 96.014
0.444615 28.7411 18.1677
7.15891 39.9304 136.888
13.8741 7.02406 132.038
25.0854 24.048 31.5606
5.64758 11.0223 100.059
24.176 14.4618 2.14882
6.06427 5.15069 16.2815
5.76681 4.22001 24.8054
1.09781 9.40981 23.2006
12.1702 10.7499 68.8434
0.00255651 35.1843 155.272
25.1766 11.7269 69.8625
8.34481 8.46961 53.058
1.68164 16.295 1.21158
4.98191 9.31628 16.6701
7.48062 0.450151 1.41934
5.49048 6.67906 67.0147
11.4405 19.8475 132.11
32.0451 50.864 76.3326
2.84662 0.841572 10.5276
2.79959 1.83982 36.0035
1.78257 2.68218 35.2597
1.18772 12.3191 5.08268
2.73608 8.85595 2.74774
2.74047 36.0331 206.065
34.1922 18.5981 14.8233
5.15982 9.9377 210.061
25.6662 47.9488 37.4945
0.780898 25.2851 58.0737
6.69362 2.55325 3.18703
4.05284 11.7113 62.9215
17.5963 5.23309 20.0147
8.75309 1.77469 14.183
2.5761 4.68972 15.0368
6.22165 13.2693 19.0214
8.04243 13.5233 116.715
17.168 2.3952 62.8088
19.9732 10.8713 47.1911
7.88813 20.8338 27.0625
5.51482 2.35051 17.5257
11.4623 4.40091 49.1253
5.92906 22.4045 118.659
26.4294 13.325 5.16244
10.5154 16.1404 57.2629
3.57505 8.10114 8.8811
2.61976 2.54389 6.96232
8.54876 9.44426 15.3579
2.68484 10.6754 54.573
8.9795 8.22184 145.653
29.8491 22.1947 7.05699
6.43812 7.10152 7.66728
3.74657 1.00971 17.0514
8.23973 29.2536 78.7719
4.2209 1.93427 19.5621
5.54046 26.0655 77.1693
6.72341 2.19822 21.4976
9.80559 2.53683 21.4713
1.0818 11.339 34.725
8.77208 5.14064 144.058
26.7475 44.5025 190.456
1.8904 17.6882 48.5585
7.36434 17.5263 11.2946
4.31397 78.0165 296.755
35.9749 6.96367 94.0785
24.0393 13.3403 2.33096
8.28307 4.77456 0.682094
6.83788 0.470984 24.959
11.5379 21.3784 64.4639
13.9561 26.154 96.2575
2.30682 5.69282 6.30342
5.69947 18.5968 53.7101
11.8512 1.59917 6.42582
5.21657 0.795057 2.52528
7.6509 2.86097 19.7066
1.92753 11.8114 73.3121
15.8603 12.1592 12.2335
7.32982 0.421224 3.22769
8.51414 3.71397 1.29207
5.16557 4.6244 47.7003
4.82596 11.1223 14.6467
6.95152 3.30911 18.0563
1.69686 1.55367 53.5126
4.73952 14.6589 22.8512
2.05131 13.3652 41.47
14.1649 8.81353 22.9647
3.70857 0.565355 16.3517
0.934374 22.0952 44.8121
12.9971 3.70974 97.278
21.9767 8.50016 55.9025
10.1599 42.7209 59.3012
7.53095 1.44006 18.656
9.13003 0.854767 24.3049
12.1483 6.57381 4.68253
6.31045 1.59163 42.5871
16.7052 11.0984 2.89826
7.36791 9.68768 32.8395
1.07422 5.01088 40.2585
14.4767 17.385 13.0209
9.04045 16.8858 42.2894
3.93498 4.11625 56.3484
8.7358 1.79697 0.823718
5.24195 19.1855 138.302
9.34313 7.00706 189.371
28.4982 27.3881 23.1554
11.1637 57.2309 105.344
7.56897 11.0835 67.4532
0.968763 3.93899 2.97821
3.47656 1.09604 6.56319
2.83266 6.30867 50.3716
3.65201 6.33667 7.86345
6.34963 3.20065 42.4026
0.74266 12.8807 7.3748
7.32754 3.52192 20.3672
11.0389 0.985595 6.61415
7.02744 0.824168 35.886
14.1882 7.45076 19.121
11.9191 16.0341 26.0191
1.96177 1.78925 16.4199
2.78078 3.91422 19.5828
5.52677 2.87828 7.98431
3.1133 0.0839083 22.1132
2.47309 17.4058 87.2155
14.1175 12.2759 12.8676
5.05984 1.07211 8.6047
5.46432 3.05186 6.99999
8.10998 5.01866 10.8307
3.43232 5.08323 78.1324
0.736319 14.1018 32.373
5.0525 1.15594 12.7614
2.67275 6.7976 14.3154
8.76527 13.8131 39.108
6.22263 0.127079 9.82792
3.86634 1.4833 0.459702
4.4459 1.84789 8.01106
8.10437 4.14642 96.2219
9.95572 11.5763 63.7606
2.27133 35.8595 0.949585
3.79439 44.635 102.06
13.1857 7.16988 113.208
14.5547 4.79498 13.4426
8.17376 3.93036 75.888
16.5658 8.0941 19.5148
11.4441 0.575153 14.9071
11.0288 7.92371 55.0772
3.91848 15.331 30.4473
12.3859 2.9717 10.8696
3.34502 3.31063 2.95476
6.80544 2.94681 41.2507
14.2253 9.99831 59.1558
16.9991 15.172 18.8443
2.28837 3.42201 46.0586
8.60771 25.4617 163.639
29.617 50.1075 94.1696
2.20354 3.05056 24.8032
1.05109 6.65053 23.4995
12.2167 5.35266 9.41962
3.5912 1.1439 12.6464
3.22656 13.0216 45.9896
9.77276 1.93196 0.709435
6.3477 8.64649 79.0142
4.10187 5.5807 43.6735
0.485115 35.3815 81.3017
19.541 2.90149 2.25076
7.00112 11.1783 56.0362
12.4013 1.15776 28.1359
10.1206 6.32073 13.579
3.44319 0.520575 20.9961
7.53635 10.2469 28.8889
13.9086 39.3768 122.093
6.55759 9.58324 84.4203
0.0217022 12.886 28.6695
8.67824 10.3132 26.4138
7.37596 3.64441 41.4317
0.463743 9.94305 16.579
7.73649 2.37677 9.76356
9.11495 3.17527 18.4983
1.81042 4.18067 13.9596
9.54649 2.77389 13.7073
2.57287 5.01721 14.9703
6.63411 0.152939 7.58043
3.77257 5.29482 17.0881
10.496 0.0193424 14.0348
8.56093 3.24603 3.44324
3.19171 7.53234 49.8864
15.9947 2.49072 46.3976
14.9336 23.2347 18.9975
1.7163 0.940719 19.9579
5.60652 16.5304 64.5826
1.27014 2.33782 109.142
3.33771 50.3987 60.9483
15.9974 9.1056 61.8566
7.39923 1.58825 14.5147
1.77152 9.8169 41.4672
11.4961 5.22857 0.387137
5.15053 6.2935 57.9742
17.4082 20.4466 154.593
10.2327 33.8876 34.9973
12.2072 0.652155 71.1186
19.4292 24.1824 23.7482
3.05461 43.9313 216.279
9.34441 15.8359 7.97786
8.56469 1.97713 15.1656
10.4468 17.8173 126.91
9.85168 14.3483 277.106
35.2125 33.0622 21.7676
11.2345 32.9912 25.2414
2.0976 0.562072 5.75437
3.30323 0.930935 16.5068
8.70586 10.9969 9.00125
4.02862 1.82336 91.1195
19.5629 54.4461 92.6533
2.79265 3.99206 59.6264
11.8013 8.46422 107.556
23.5213 80.4594 153.831
1.84819 20.155 174.147
3.25927 6.45795 20.0939
1.30636 5.66288 18.5309
8.68397 25.8002 225.167
11.368 36.6074 26.2755
12.6019 0 0