# pn-170911/CsIIA-33-USN3-1280-1959.psd
# Power spectrum* (dif=0,1,2) (really just |FT|^2)
# NOTE: only the first half! (symmetric)
# weeks: 1280-1959
# 2701 clock-days, 629 excluded
# PSD: 1441
54981.1 1.46708 0.0401461
1.5615e+06 27.2888 0.0211893
7.08021e+06 147.047 0.0234513
1.47812e+06 54.3629 0.0227083
919046 61.1462 0.024981
525639 52.7823 0.026912
370525 52.9889 0.0305626
265755 50.8725 0.0323934
207095 52.2593 0.0364661
166557 52.0222 0.0406489
131536 51.0879 0.04524
107379 50.5054 0.0490347
91979.6 51.9281 0.0559924
79096.5 51.0307 0.0621573
69910.8 52.4601 0.0698281
58505.3 51.3775 0.0778667
48919 49.3202 0.0806773
45893.4 50.8632 0.0906467
40741.7 50.8467 0.0995989
36236.4 50.8172 0.108638
33333.4 51.6272 0.118962
29972.2 50.5368 0.127468
27202.5 50.8484 0.138845
24818.7 51.0237 0.150923
22609.7 51.2459 0.163466
20786.4 50.5308 0.169736
19106 50.2226 0.180133
18035.6 50.1731 0.196712
16791.2 49.7674 0.207098
15204.9 49.7101 0.218958
14435.8 50.9182 0.240687
13302.6 49.8756 0.24766
12780.7 50.438 0.265983
11761.1 50.3637 0.280649
11257.6 50.4675 0.293757
10455.1 49.8185 0.3113
10190.7 51.7702 0.339813
9658.11 52.2508 0.365554
8881.79 50.1269 0.364159
8954.56 52.1234 0.393609
8104.69 49.6211 0.391732
7857.08 51.8074 0.433571
7303.54 50.3523 0.445807
7004.78 50.2874 0.461267
6787.84 50.2746 0.480192
6415.49 50.4698 0.505023
6149.53 50.1975 0.526005
6091.26 51.3795 0.558912
5617.86 50.1607 0.572277
5676.95 52.9114 0.627031
5076.09 48.8738 0.600133
5037.39 50.8056 0.654376
4902.16 51.3395 0.678117
4534.89 49.7338 0.686674
4354.89 49.7336 0.714031
4223.06 49.7182 0.736292
4114.21 49.912 0.762823
4002.38 51.1536 0.807789
3752.81 48.6822 0.79828
3758.6 51.2922 0.865992
3472.98 48.6678 0.851164
3426.92 50.7705 0.923476
3428.08 49.7136 0.92657
3297.25 51.1165 0.982631
3206.68 49.834 0.989634
3021.53 49.757 1.01963
2868.58 48.6283 1.02652
3002.67 51.423 1.11277
2810.42 50.0025 1.12047
2791.79 51.3433 1.18555
2619.77 48.947 1.16783
2552.24 50.5423 1.22278
2494.52 50.1508 1.25192
2486.01 51.8041 1.33914
2405.1 50.6585 1.33743
2368.48 51.6078 1.40835
2328.63 51.7246 1.43819
2216.09 50.5873 1.44095
2134.46 50.4961 1.4757
2003.13 48.2667 1.44651
1988.21 49.2707 1.51949
1986.11 50.2533 1.59273
1903.24 49.5383 1.59752
1845.94 48.9847 1.61804
1828.14 49.5314 1.68031
1830.8 51.7944 1.79638
1766.81 50.52 1.79842
1729.73 51.3705 1.86575
1677.65 49.8159 1.84189
1648.08 51.0603 1.94451
1605.43 50.8453 1.97548
1562.07 49.7675 1.97751
1496.51 48.9537 1.97949
1452.51 48.2582 2.002
1468.39 50.1768 2.11091
1440.83 49.3964 2.13657
1388.01 49.091 2.16308
1368.07 49.5903 2.23149
1306.76 48.5179 2.23481
1294.7 49.5827 2.3356
1249.6 47.8182 2.28529
1250.93 48.8027 2.38396
1221.7 48.8672 2.42366
1191.89 49.2895 2.4875
1231.26 50.9282 2.63385
1125.28 46.822 2.46113
1110.35 48.6474 2.61959
1106.26 49.3953 2.69216
1118.31 49.8771 2.76924
1111.62 51.3073 2.91151
1058.91 49.436 2.84286
1029.19 48.062 2.82209
1014.64 48.0191 2.8794
1000.95 49.3411 3.00666
955.204 48.2826 2.98575
971.25 49.7097 3.11773
952.668 48.7737 3.13083
948.177 49.8349 3.25622
922.37 48.8942 3.23219
895.782 49.0011 3.31004
883.505 47.793 3.26718
880.443 49.0834 3.41774
850.834 49.8051 3.53252
847.991 48.9644 3.5287
836.317 49.9044 3.65876
807.48 48.6025 3.61739
800.305 49.4586 3.73593
788.091 49.0955 3.76232
778.228 47.7159 3.70711
742.429 47.2537 3.72895
767.08 48.8991 3.92807
755.326 49.3063 4.03342
732.875 48.3238 3.98833
681.888 46.5436 3.91768
709.301 48.6645 4.14661
714.243 49.0846 4.25085
684.201 48.0225 4.19468
653.927 46.7313 4.17357
667.379 47.874 4.31933
639.035 47.5655 4.32979
636.971 47.6949 4.41583
642.611 49.1987 4.62315
639.63 48.4557 4.65976
595.776 47.9531 4.65947
607.568 47.8142 4.70043
619.043 49.5237 4.94127
603.807 48.7736 4.92114
601.941 48.6945 4.9683
591.747 49.0927 5.07367
574.513 48.279 5.08991
539.664 46.808 5.01124
546.753 47.7653 5.15782
545.187 48.4064 5.28832
537.118 47.3088 5.23938
529.943 47.6979 5.36198
532 47.4389 5.37893
520.855 47.2333 5.43807
496.625 46.1512 5.37135
500.033 46.4279 5.49341
503.041 47.6797 5.71085
498.2 48.2679 5.86439
474.226 47.1593 5.73811
481.926 48.2896 5.9632
462.464 46.3929 5.86504
459.022 45.5661 5.77818
462.437 46.7082 6.02506
456.03 47.468 6.19391
441.731 47.024 6.17975
443.316 46.974 6.22392
448.603 48.2443 6.53033
431.352 47.4631 6.46378
409.541 45.3967 6.2525
413.628 46.0009 6.44192
424.591 48.7591 6.88569
412.81 46.5378 6.63122
396.531 45.5524 6.62887
395.032 46.1905 6.72542
389.002 46.1793 6.82692
378.278 44.5364 6.63583
389.393 47.5777 7.1549
370.943 45.1852 6.90272
372.302 46.0692 7.11416
354.821 44.9982 7.00184
370.352 46.7502 7.37022
348.284 44.6652 7.14105
349.765 45.6032 7.33913
351.092 45.6431 7.43927
359.943 47.1417 7.74351
355.532 46.6198 7.72883
340.102 45.5942 7.66145
352.475 46.8142 7.97961
334.677 45.8512 7.84732
340.565 45.914 7.94206
334.354 46.016 8.07327
323.639 45.6703 8.07236
326.829 46.1223 8.19232
311.453 44.8238 8.08709
314.057 46.4745 8.43883
311.908 46.0824 8.57399
302.407 44.7523 8.33375
309.373 46.3383 8.63359
304.69 46.0414 8.73074
300.914 45.5346 8.69827
295.531 45.2095 8.75887
291.623 45.6449 8.93092
278.171 44.9146 8.81102
283.553 45.7718 9.08373
285.593 45.1368 9.09345
270.084 44.6979 9.0783
274.691 45.0116 9.23397
281.091 45.8807 9.45338
269.395 43.8615 9.17083
266.605 44.0155 9.22128
270.035 45.7068 9.7815
271.726 46.5863 9.93353
263.344 45.6685 9.79065
263.942 46.4604 10.1951
251.469 44.4727 9.76154
251.199 44.7323 10.0191
259.65 46.113 10.3737
256.834 45.3965 10.1982
254.164 45.4909 10.3943
233.742 43.182 9.87514
237.72 44.1549 10.3119
247.234 45.7306 10.7626
237.023 43.3712 10.2336
225.472 42.8562 10.2543
227.035 43.6221 10.5235
227.604 43.8865 10.7504
225.296 43.761 10.7362
232.799 44.6772 11.0171
229.354 45.0089 11.2144
215.453 43.4558 10.929
216.576 42.8312 10.7464
214.405 43.6862 11.2041
216.598 44.1072 11.3085
219.138 45.7402 11.8869
214.895 45.1134 11.8229
208.598 43.4591 11.4742
207.352 43.1679 11.4601
208.084 43.7606 11.8267
208.015 43.7039 11.68
206.873 44.4606 12.2352
207.051 44.9691 12.3955
198.759 43.7368 12.0357
198.79 44.6576 12.4584
199.169 44.9151 12.6342
190.634 42.4066 12.0246
196.465 44.249 12.6786
189.158 42.7081 12.2855
190.706 44.265 12.9492
187.538 43.623 12.7024
184.334 42.7241 12.5984
184.671 43.38 12.9009
188.09 45.1508 13.5024
182.565 43.7138 13.2011
180.913 43.8985 13.3292
178.645 43.5096 13.4194
175.928 42.7661 13.1042
176.796 43.8828 13.6344
170.5 42.6244 13.3383
167.987 41.705 13.2086
174.821 42.8691 13.6619
170.678 42.8828 13.7235
169.727 42.9131 13.775
165.379 42.6965 14.0259
162.697 42.8193 14.0073
162.456 42.8526 14.1155
161.807 42.2113 13.9444
157.399 42.8591 14.459
160.253 42.0528 14.2552
161.908 42.5949 14.5306
158.29 42.5618 14.5492
157.501 42.5151 14.6014
153.506 41.6306 14.4469
153.15 41.8169 14.6812
152.939 42.4187 14.9217
155.139 42.8116 15.2376
150.666 42.334 15.0803
153.781 43.0681 15.5475
148.597 43.0848 15.5394
148.58 42.5619 15.5388
144.025 41.2428 15.0472
137.966 40.1948 14.9529
145.674 42.5829 15.7087
139.741 41.899 15.814
143.867 41.8058 15.682
143.749 43.1244 16.4116
139.114 41.7336 16.0287
137.954 41.6655 15.859
136.297 41.6059 16.1602
136.637 42.3127 16.5179
133.634 41.8481 16.5317
135.985 40.9751 16.1912
135.348 41.6291 16.4474
136.229 41.9841 16.8711
134.979 41.7888 16.7069
125.638 40.2393 16.5437
129.179 40.373 16.3524
128.343 41.1791 16.9904
128.513 40.321 16.5293
129.155 42.5424 17.7502
124.073 40.8121 17.0859
127.245 41.8259 17.6243
125.636 41.8416 17.7564
119.258 40.5246 17.1833
124.307 40.9044 17.5286
120.2 41.2715 17.9627
121.419 41.0754 17.8051
118.892 40.9133 17.9125
118.631 40.5513 18.0042
116.726 40.0598 17.6996
115.929 39.7472 17.8121
116.112 40.4487 18.1788
115.155 40.0275 17.8636
116.009 40.628 18.5004
115.615 40.2292 18.3523
112.089 40.5824 18.6259
112.101 40.3324 18.6527
108.504 39.077 18.2839
113.468 40.8601 19.1782
108.989 39.9384 18.9169
108.318 39.8386 18.783
106.734 39.4982 18.8823
108.679 40.0197 19.073
110.973 41.151 19.7979
106.581 39.627 19.1775
103.216 39.0331 19.0503
107.401 40.8422 20.0718
104.044 40.239 19.8811
102.222 39.577 19.617
102.705 40.1681 20.1115
100.33 39.7412 20.0823
102.777 40.0521 20.1245
98.5363 38.4091 19.5781
98.6653 39.3098 20.1886
98.6398 37.8505 19.5229
98.6848 39.2874 20.1453
94.4669 38.9091 20.4428
96.361 38.5028 20.2321
99.2553 39.5112 20.6697
96.7376 40.4993 21.5976
96.2858 38.9502 20.5504
95.9012 39.8855 21.3492
96.24 39.3594 21.2584
92.6049 38.6298 20.6646
93.455 39.1445 21.2381
95.047 39.0907 21.324
93.3937 39.1806 21.5546
93.078 39.7402 21.9461
92.2889 39.3106 21.7099
90.4315 38.6182 21.6789
89.5112 37.7526 21.2257
90.3173 39.1634 22.1264
90.2973 39.7317 22.756
90.2022 39.2234 22.4654
90.6037 39.3648 22.4786
86.2906 38.1148 21.7431
82.3264 36.8711 21.6077
87.308 38.3208 22.1349
86.1713 39.2554 23.0779
84.3172 37.8731 22.2679
83.9063 38.1509 22.3292
82.4606 38.2417 22.8902
83.326 37.5962 22.885
84.2284 38.024 22.6438
81.282 38.1169 23.1003
80.6238 37.3571 22.63
80.0383 37.5537 23.082
81.7595 38.3671 23.3517
78.1783 36.1704 22.2596
78.8907 36.751 22.8252
81.7605 39.1314 24.3485
77.6157 37.5328 23.7414
78.903 37.7574 23.9328
77.7942 37.0977 23.6285
76.5147 36.6338 23.0943
77.2007 37.1028 23.6086
77.0008 37.0799 23.7766
73.7183 36.8768 24.1169
75.5851 36.7712 23.6458
74.2352 36.4589 23.9679
74.1619 37.511 24.6899
73.9846 37.0636 24.4215
72.5545 36.144 23.6896
72.7044 36.8763 24.5378
72.4433 37.4908 25.1184
74.3618 36.7707 24.2838
71.7564 35.6941 23.9624
69.8018 37.0873 25.5112
72.3141 36.6076 25.0732
71.9217 37.7648 25.73
70.8397 37.2197 25.5312
69.3739 37.4147 25.8377
69.1886 35.9063 24.8452
69.2223 37.0207 25.9932
69.4136 37.3301 26.1897
69.3292 36.2822 25.3723
67.229 35.9335 25.5831
68.5726 37.093 26.2834
67.9712 37.1533 26.5059
67.8518 37.7205 27.1648
65.5246 35.8914 25.903
64.8172 34.7542 25.4244
66.3773 37.3947 27.4993
64.1028 35.0526 25.5057
65.0581 35.4619 25.9181
63.5176 35.9173 26.7563
64.9013 36.149 26.7774
63.1188 35.8986 26.9483
64.2773 35.882 26.806
62.8441 35.0409 26.3154
64.7171 36.6574 27.3155
62.096 34.9639 26.9613
64.1597 36.3364 27.368
63.0767 35.9757 27.2252
60.8798 35.4101 27.3622
59.3275 34.8837 26.8944
60.4306 35.6854 27.7837
60.5385 35.8371 28.4587
62.233 35.0039 26.8287
58.8238 35.7642 28.8368
61.3226 34.8688 26.9573
56.5617 34.5355 27.3877
58.4302 34.9501 27.938
57.814 35.0888 28.2262
59.943 36.1913 28.8901
58.4202 36.1167 29.4383
57.9066 35.0073 28.1848
58.7938 36.5557 29.7501
55.8401 34.5127 28.4782
57.8283 35.1843 28.7521
55.4377 34.919 28.8126
56.2193 35.5149 29.5393
55.9756 34.7821 28.9238
56.7363 35.4745 29.7849
57.2183 35.6004 29.8108
55.4064 35.0734 29.6255
53.1958 33.673 28.3518
55.686 35.7384 30.3152
53.8911 34.7668 29.7286
53.0529 34.5495 29.6938
53.463 34.2666 29.4069
52.8124 34.6275 29.5165
52.3109 33.4437 29.4005
52.4348 34.5878 29.8973
52.296 34.2731 30.0413
53.0007 34.0696 29.888
51.5796 34.6008 30.7261
52.6199 34.9599 31.0396
52.0113 34.9274 31.1249
51.4809 32.5074 29.0559
50.4433 33.7272 30.437
51.6344 34.2311 30.4269
50.7554 33.4664 29.8898
51.0765 35.1019 32.1415
49.5965 33.6881 30.4643
50.2103 33.9803 30.9428
50.6659 34.6327 31.7018
50.3053 33.1702 30.4226
48.3621 33.4851 31.2896
49.5908 34.046 31.5983
48.0542 33.0703 30.8336
49.5997 34.024 31.8346
47.3603 33.3034 31.3762
46.5809 33.2654 31.8387
48.149 32.9339 31.1624
48.9082 33.3198 31.087
46.7579 33.6568 32.3762
45.5702 31.8258 30.7291
46.959 32.8434 31.5344
47.3995 34.2304 33.5709
46.8502 33.1588 32.0393
46.1318 32.8623 32.1806
46.15 32.3754 31.6981
43.9324 32.6062 31.9153
42.908 31.072 30.7893
45.413 32.6079 31.704
44.2214 32.6952 32.6622
44.8574 33.313 33.3733
44.2624 33.0823 33.3017
44.8221 32.2779 32.5854
44.3279 32.6399 32.6794
42.3074 32.1286 33.1971
43.7337 32.4353 32.3221
42.9786 32.607 33.2516
41.9829 31.8321 32.8211
42.8086 31.9909 32.6277
43.4301 32.3272 33.2535
42.7854 32.0344 32.983
43.038 33.1904 34.5634
41.2451 31.8453 33.4495
42.8773 33.1719 34.9379
42.1721 32.2455 33.5244
40.7784 31.1899 33.0731
41.4009 31.821 33.7765
41.1506 32.2534 33.7845
41.4154 32.0367 34.2925
41.685 32.137 34.1982
40.435 31.9768 34.5515
39.8149 31.4737 34.1602
40.8616 32.082 34.5939
41.3876 32.7446 35.0452
39.5421 31.7795 34.9676
39.2583 31.9436 34.5415
39.4769 32.1298 35.3218
39.349 30.5422 33.8216
40.4974 32.2588 35.3793
38.2608 30.2703 33.6455
38.5361 31.0215 34.5861
37.78 31.1369 34.9186
38.4908 31.8908 35.6396
39.0652 31.8369 35.3302
37.1047 30.7649 34.4703
37.6241 30.6174 34.7936
36.9037 30.5039 35.1046
38.4353 31.4126 34.9071
36.5152 30.1255 34.5059
35.6541 29.7083 34.8024
37.2474 31.5723 35.8258
36.2089 31.1648 36.4195
37.2683 30.3945 34.9335
36.5387 30.8378 36.112
36.7437 31.9975 37.3256
35.7584 30.5856 35.4455
37.5159 31.9189 37.4704
35.8165 31.0694 36.7324
35.6763 30.2037 35.9301
35.0004 30.4514 36.2376
37.1848 31.183 36.6503
35.0925 30.724 36.5388
34.479 30.1521 36.8932
35.7062 31.3921 37.7344
35.6921 31.631 37.6545
34.3421 30.4147 36.5076
34.427 30.395 37.1193
34.6755 30.53 36.9959
34.4413 29.9143 36.9436
34.6723 31.1148 38.0711
34.5834 31.1249 38.4636
34.5973 31.5855 38.588
33.9487 30.8004 38.8796
33.4012 30.4915 37.7104
33.6989 29.8163 37.1049
33.4393 31.0315 38.6011
33.5151 30.6255 38.72
32.9613 29.9546 37.9453
33.3584 30.9123 39.4438
33.99 30.5684 38.1664
32.6488 29.8138 38.5093
33.7082 30.3327 39.3055
34.4376 31.0571 39.811
34.5906 31.4975 39.8793
32.202 28.7518 36.5108
32.0401 28.6628 36.5111
32.0768 29.8497 38.0404
29.6039 28.8299 38.674
31.7558 29.4767 38.1576
31.846 29.7474 39.0112
31.5148 29.6327 38.4095
32.0161 30.5828 40.3829
31.7659 29.375 39.2261
31.1087 29.8023 39.6083
31.4448 30.0192 40.3124
30.6363 29.6373 39.2846
30.3643 29.7121 39.241
31.1903 30.1795 40.6587
30.9922 29.2376 38.9809
29.6551 28.5696 38.6291
29.5063 28.8586 39.3119
30.4355 28.1513 37.8925
29.6861 29.4566 40.2476
30.8867 29.8387 40.4422
29.4159 28.85 39.399
29.2966 28.6251 39.4492
28.9012 28.2166 39.1439
29.0379 28.0645 39.0055
28.3565 29.4274 40.9361
29.4563 29.1068 40.8536
29.862 30.3869 41.5078
28.0086 28.4338 40.4671
29.7485 29.4411 40.5542
28.4023 29.13 41.5512
29.4018 28.9164 40.3753
28.3041 28.7973 41.3503
28.8558 28.2264 40.4636
28.2934 28.8949 40.399
27.9689 28.5016 40.1844
27.6704 28.965 41.6557
27.6507 27.9786 40.5897
28.0081 28.9623 41.2211
27.5334 27.8029 40.0529
27.6037 28.5705 41.3162
27.2966 28.107 40.8793
28.2464 28.2629 40.7372
27.0698 28.3228 41.5714
27.9459 29.5104 42.4304
26.3601 27.391 40.892
27.3667 28.2872 42.7543
27.0834 28.0917 41.6619
26.8744 28.3068 41.9001
26.9371 28.0548 41.2536
26.7513 27.5513 40.5988
25.8818 27.5583 41.3814
26.3473 27.8279 41.5017
27.0782 28.634 42.9409
25.9358 27.2087 41.3189
25.6574 27.6424 42.4532
26.1102 27.5261 41.4767
25.7478 26.9525 40.7856
26.0874 29.064 44.4604
24.926 26.8785 41.1486
25.6101 26.7232 41.1684
25.1936 27.5481 42.4803
26.0271 27.1568 41.6227
25.7525 28.2121 43.3638
25.431 27.4307 42.0897
24.9794 27.116 42.7683
24.9093 26.3636 40.5294
23.9871 26.4917 41.3508
24.6321 27.2535 42.7766
24.5507 27.1122 43.0488
24.6472 26.598 42.0487
23.6113 27.3879 44.3017
25.0022 26.9327 42.6934
24.7258 27.2617 42.5425
24.0519 26.4293 42.5587
24.104 27.0487 43.4385
24.6732 27.2139 43.7942
24.9081 26.8935 43.4519
24.6394 27.5047 43.9966
24.5128 26.9607 42.6827
24.4719 28.4671 45.6696
23.3175 26.2462 42.4458
22.6533 25.9337 42.3531
23.1796 26.3603 43.3594
23.3953 25.8961 42.0445
22.7278 25.9475 42.7944
23.2573 26.4087 43.1375
23.536 26.4846 43.6518
23.6895 27.2254 44.6037
23.193 26.964 44.2255
22.5855 25.6303 43.4601
23.4421 27.2727 44.851
23.0875 26.4988 44.2742
22.8058 26.0871 44.2514
23.4266 26.7134 44.9398
23.1249 26.8768 45.0763
22.0794 24.8682 42.0931
22.9802 27.1575 45.3668
21.7483 25.4579 43.7469
22.3883 26.2941 44.0582
21.9691 24.6581 42.1169
22.6267 28.1623 47.5832
21.4742 24.7811 42.6464
21.5015 25.4941 44.4217
22.1217 26.4123 45.7688
22.233 26.4273 44.9527
21.5902 25.5658 44.6905
21.7758 25.5001 44.3958
21.6826 26.1458 44.24
20.6457 24.6634 43.9626
20.7785 24.9341 43.9761
21.3192 26.4358 46.1948
21.423 25.895 44.6204
21.2724 26.123 46.9286
21.2634 25.5361 44.7023
21.2582 26.5247 47.0955
20.9943 25.8693 46.5956
21.3446 26.0052 46.2851
21.8062 25.5871 44.6923
20.9095 26.2487 46.6385
20.8029 25.1162 45.5269
20.5881 24.7993 44.074
20.3684 25.4856 44.6242
20.2515 26.313 48.3561
20.6333 25.275 44.9335
19.8746 25.2913 46.0761
20.4482 25.3297 46.6254
20.6514 25.2563 45.352
19.6701 25.4826 46.9807
20.3426 26.1695 47.637
20.5332 25.5749 47.4325
19.819 24.0257 44.2357
19.5644 24.7795 46.0596
20.5583 25.7944 46.6155
20.0724 24.8492 46.4556
19.9902 25.1757 46.1829
20.0314 24.8682 45.8244
19.1155 24.1656 44.9666
19.3756 25.105 47.2935
18.8559 23.8076 44.7683
19.1085 24.9098 46.6649
19.2042 24.0945 45.1916
18.8239 24.5308 46.8113
18.9617 23.7054 45.109
18.3195 23.9797 45.8901
19.0009 24.48 46.5528
19.7385 25.4357 47.9472
18.794 23.9166 46.0385
19.0008 25.0426 47.2481
18.3363 23.6236 45.6069
18.6199 23.7988 46.5433
19.1549 25.2513 48.7231
18.5424 23.9472 46.4338
19.1592 24.6123 47.2515
18.5702 24.7971 48.0192
18.7115 23.792 45.6178
18.3334 24.683 48.3494
18.218 23.9978 45.7959
18.4972 24.762 48.6029
17.3392 23.734 47.3237
18.558 23.7953 46.2651
17.9736 24.1821 47.2831
17.6368 23.8357 46.7006
17.9039 23.4876 46.8429
17.9369 22.9644 45.5182
17.3806 23.3046 45.8597
17.2666 22.7773 45.9571
18.1444 23.7346 46.9288
17.6599 23.9084 48.3069
17.5123 23.3864 46.341
17.5158 23.8065 48.421
17.7409 23.7288 48.1778
17.5017 23.8562 48.0116
17.6276 24.3414 48.4225
17.163 23.3704 47.5826
17.736 24.5686 49.0727
17.1774 23.381 48.1344
16.9326 23.3284 48.6607
17.1951 23.034 46.9937
17.0774 22.7866 46.8674
17.2097 23.2624 47.6246
17.0953 24.0808 49.5569
17.2657 24.053 48.4261
16.9211 23.3081 47.4651
16.8846 23.4698 48.9051
16.4789 23.4061 49.6104
17.1342 23.8842 48.9612
16.6097 23.3304 47.7943
16.2771 21.8887 45.5185
16.7272 24.0621 49.4354
16.3956 23.5253 50.6014
16.4397 23.4459 49.1732
15.9711 22.169 46.5589
16.2182 22.5368 47.463
15.6964 21.9241 46.9351
16.5873 23.3111 49.7699
16.4393 23.7687 49.0494
16.1651 22.6111 48.7857
16.4883 23.2454 49.5741
16.1767 23.4976 49.7378
15.8744 22.1967 47.9838
16.3907 23.1559 49.2637
15.7347 21.963 47.5191
16.0035 22.9791 49.047
15.3412 22.3358 48.8193
16.1772 23.0785 49.8249
15.9657 22.512 48.9231
15.5354 22.5477 48.9105
15.7644 22.1233 47.9328
15.7203 22.3712 49.5248
15.5936 23.498 51.0702
15.6923 22.596 49.0158
14.9857 22.1934 48.7346
15.3096 22.1802 49.5874
15.7725 22.7596 49.2558
15.498 22.517 49.202
15.2077 22.6607 50.5039
15.0678 22.2526 50.1363
15.4614 21.7714 47.6577
15.1166 21.9452 48.0238
15.1663 22.9918 52.5869
16.007 22.5711 49.5288
14.8809 22.056 48.6849
15.1257 22.3686 49.0805
14.7565 22.4845 51.4475
15.4752 22.7208 50.3979
15.018 22.2395 50.6416
15.338 22.9388 51.249
15.08 21.9455 49.9608
14.9993 22.002 48.8271
14.7641 21.5813 49.713
14.8433 21.3269 48.5044
14.7537 22.1171 50.4248
14.8822 21.3676 49.4628
14.4264 21.9407 50.4582
14.776 22.6471 51.3108
14.8605 21.3259 48.2987
14.4126 22.5183 52.1031
14.3737 21.9432 50.4267
14.0817 21.4137 49.1565
14.4911 21.9348 50.9427
14.2739 21.2413 49.8028
14.4547 21.3237 49.3749
14.3292 21.7096 49.4205
13.9258 21.347 50.1822
13.7735 21.0148 49.8415
14.2302 21.3497 49.7248
14.3033 21.4424 50.3647
14.0933 21.4596 50.8108
14.1298 21.3545 49.8519
13.8484 20.4515 49.8719
14.3331 21.5473 49.7803
13.8402 21.8366 52.2595
14.5158 21.7939 52.1583
14.0655 20.8568 47.949
13.8904 22.0298 51.8348
13.6774 21.0997 50.3779
14.0208 21.4329 51.9904
14.102 21.6038 50.9179
13.481 20.7919 49.3336
13.2199 21.1561 50.9219
13.9322 20.9747 51.2602
13.5551 20.3034 49.4845
13.8263 21.1592 50.7305
13.4786 21.2799 51.2906
13.708 20.635 50.5453
13.6255 20.6014 48.3553
13.513 21.3371 52.0372
13.587 21.4759 50.7044
13.1726 20.6119 50.9909
13.4805 21.1105 51.0879
12.813 20.5291 52.1717
13.2487 21.2137 51.7587
13.4019 20.5708 49.4986
13.0304 20.871 51.3775
13.1247 20.7861 51.1525
13.1368 20.5938 51.1908
13.3687 21.8568 52.5559
12.7531 20.0177 51.1531
12.8246 20.6904 51.7894
13.2455 20.9239 51.9311
12.9043 20.5873 50.3019
12.7278 19.6738 50.1264
12.8454 20.431 51.3244
13.1422 21.0887 50.6838
12.9953 20.9652 51.703
12.8855 20.9566 52.9771
12.6283 19.823 49.4589
12.7111 20.5415 50.9693
12.7119 20.8166 52.16
12.1153 19.8695 50.8258
12.5471 20.405 52.2494
13.0322 21.1441 53.0428
12.6281 19.9662 52.1158
12.758 20.3575 52.3776
12.5701 20.3041 50.3025
12.5015 19.9903 50.4493
12.2735 20.0919 52.4034
12.4722 20.4572 52.7737
12.7448 20.4661 51.98
12.2387 19.9022 50.5902
12.3763 19.9404 51.2453
12.3977 20.2474 52.3227
12.2893 20.3548 51.7897
11.905 20.0965 53.1797
12.4738 19.5529 50.8223
11.9904 19.37 49.9209
11.9783 19.1387 50.5612
12.0358 20.1836 52.3965
12.6374 20.9716 55.5
12.788 20.842 52.7896
12.3905 21.0453 54.1757
11.9714 20.2243 54.6889
11.9806 19.9702 52.7929
12.374 20.0442 52.8598
12.3184 19.9037 51.977
11.7544 19.1409 50.7561
11.7699 19.7537 51.8116
11.7643 20.0029 53.827
12.2145 20.4783 54.0057
12.2008 19.7437 51.8583
11.9397 20.5133 53.6664
11.6362 19.2528 52.0795
11.8516 19.3547 50.6978
11.5105 19.429 51.6208
11.7475 20.022 52.5846
11.5725 19.084 52.6843
11.5563 18.9412 50.4547
11.8476 19.9806 52.3489
11.5792 18.8813 50.6522
11.59 19.8997 52.8349
11.6872 19.5006 51.5742
11.0521 18.8381 51.8863
11.3455 19.3921 51.3571
10.901 18.3991 51.4363
11.4186 19.6397 52.8509
11.2838 19.1056 52.6718
11.3643 19.5769 53.0941
11.413 18.8913 51.6441
11.4305 18.5344 50.7012
11.1866 18.2313 50.3513
11.3006 18.8619 51.8218
11.2035 19.2407 52.0337
11.075 18.8729 51.6306
11.4264 18.8724 52.6651
11.2813 19.0441 51.5803
10.9139 18.0868 51.1578
11.3015 19.2548 52.4153
10.8666 18.5947 51.8839
11.1307 19.9497 54.5252
10.8548 18.4564 52.2096
11.0621 19.4851 55.1543
11.183 19.3274 51.7774
10.8965 18.9553 52.3099
11.0847 18.8199 53.9044
11.3146 19.6598 53.3796
11.1552 18.5044 51.85
10.7109 19.5058 54.8459
11.1266 18.9142 51.5027
10.607 18.2903 52.4724
10.7001 18.6381 52.2158
10.4918 18.5491 51.1424
10.3474 17.7658 52.0743
10.7758 18.425 50.6286
10.2945 18.3332 52.016
10.5149 18.1782 52.1436
10.6126 18.147 52.5891
10.6463 18.3173 50.7664
10.2648 17.816 51.3924
10.7023 18.6163 51.8945
10.3467 18.2705 52.9868
10.919 19.2578 53.8056
10.2716 18.3096 53.1487
10.451 18.4858 52.0884
10.2674 17.7685 51.9228
10.4692 18.3826 53.7558
10.2595 18.5507 51.985
10.1188 17.6668 52.0278
10.4603 18.2864 52.7522
10.4416 17.8069 51.0831
10.1132 17.6169 51.7582
10.3889 18.1402 51.9523
10.3985 18.6192 53.3956
10.2951 17.6384 51.5633
10.5375 18.0606 51.4036
10.1499 18.1769 52.8944
10.0429 17.5437 52.1395
10.2119 18.2943 53.2321
9.92739 18.001 51.9685
10.204 17.7043 51.5073
10.1104 17.5722 51.666
10.0789 17.7555 52.0343
9.82153 17.4051 53.5831
10.2155 18.4803 52.4628
9.70234 17.5902 51.4739
10.2109 18.0528 52.7979
10.1494 18.2635 53.6559
10.0767 17.9703 52.7314
9.99811 18.2262 52.6546
9.56638 17.07 52.1823
9.86835 17.9865 53.126
9.50191 16.9744 52.8715
10.2592 17.9417 51.3667
9.7091 17.3319 52.9925
9.89109 18.1496 53.8
10.0611 18.1119 54.4463
9.6513 16.8711 50.7918
9.76357 17.7905 53.4811
9.76499 17.5119 52.9986
9.63062 17.4842 52.2256
9.76139 17.1485 51.0363
9.4444 17.2933 51.3361
9.45946 17.3543 52.5899
9.65176 17.7599 53.0561
9.85319 17.5847 53.0868
9.44097 17.0129 50.7493
9.43594 17.3253 52.5925
9.4334 17.6179 53.0863
9.63076 17.7691 53.5989
9.50347 17.2503 52.8755
9.34918 17.3324 53.7656
9.47978 17.0399 52.4292
9.42772 16.8736 51.4864
9.384 17.4824 51.9731
9.14256 17.0979 52.3177
9.35554 16.7448 52.2691
9.25431 17.1372 51.2575
9.16069 16.7449 52.1577
9.35169 17.3622 53.8263
9.57662 17.4181 52.684
9.18846 16.6547 52.2527
9.37769 16.7363 51.6679
9.30849 17.0404 52.0747
9.19736 17.3702 55.479
9.42068 17.6554 53.3941
9.05776 16.907 51.7435
9.04443 16.9384 53.9489
9.3874 16.5622 50.7877
9.08325 16.9404 53.9406
9.6853 17.083 53.402
9.59581 18.076 54.6786
9.25409 16.855 52.4231
8.93765 16.5974 52.866
8.92057 16.5461 50.9043
9.09883 17.0226 53.6398
9.1178 17.7099 54.5519
9.18023 16.5246 52.4159
9.32779 17.2869 52.7006
9.04012 16.632 52.2317
8.87693 16.5433 53.1874
9.19909 16.8235 52.4308
8.90316 16.5762 53.1507
9.01178 16.894 53.05
8.99801 16.7596 53.9783
9.20267 17.3339 54.5167
8.94522 16.8627 53.1019
8.82635 16.2183 50.81
8.96538 16.6533 52.7702
8.5391 15.6609 51.2367
8.87777 17.0417 52.6816
8.95174 17.0839 53.7479
8.65128 15.8128 52.0675
8.73439 16.2129 50.4776
8.67558 16.4696 54.2418
8.96165 16.5969 52.4167
8.92899 16.7905 53.4764
8.85928 16.6865 53.6783
8.73669 16.4678 52.017
8.67121 15.8349 50.8045
8.59045 16.4729 52.9426
8.90954 16.5103 54.3326
8.83797 16.5391 53.111
8.67836 16.8121 54.7701
8.61937 16.3071 52.0422
8.40395 15.8667 52.7243
8.89789 16.6702 53.5321
8.8249 17.0981 55.9085
8.77888 16.3796 53.6898
8.64472 16.3835 52.9358
8.90371 17.1039 55.547
8.83967 15.9092 51.5702
8.45391 16.4319 53.8907
8.36582 16.3327 52.9908
8.58893 16.0755 51.783
8.56806 16.097 52.642
8.36043 16.009 52.594
8.34782 15.7714 52.1531
8.70421 16.6793 52.4783
8.41312 15.4783 52.3702
8.43675 16.2022 53.0165
8.41179 15.9298 51.8248
8.11896 15.7634 51.064
8.08819 16.0209 55.1302
8.5516 16.1604 51.9813
8.38795 15.7856 51.7222
8.20946 15.9331 53.5788
8.38174 16.2674 53.7893
8.34733 15.8265 52.2341
8.23698 16.5701 55.363
8.19135 15.79 51.0805
8.02823 15.9275 52.9008
8.40165 15.968 51.7354
7.9804 15.8009 53.7748
8.24108 16.1132 54.3958
8.39013 15.9574 52.9431
8.44672 15.9698 53.2248
8.28546 15.8855 52.7818
8.15333 15.345 51.3749
8.15488 15.7162 53.8111
8.27165 16.1929 52.5986
8.09249 15.3348 52.3296
8.03523 15.5339 51.3189
7.92804 15.3475 52.3101
8.13271 15.9219 54.1942
8.29364 15.3931 52.2865
8.08862 16.471 55.5547
8.15747 15.8688 53.3628
8.1926 15.5309 52.286
8.1015 16.2836 56.2485
8.3259 15.7871 53.3442
8.05806 15.9459 53.659
8.15691 15.9628 53.4343
8.04454 15.2174 51.7387
8.13131 16.219 54.3679
7.86465 15.4822 52.5819
7.95947 15.7942 53.6442
8.1151 15.4901 52.472
7.88506 15.5417 53.2255
8.13125 15.5153 53.0451
7.87509 15.1613 53.3579
8.12342 15.7903 53.1143
7.70639 15.2489 53.5735
7.97118 15.1406 52.5737
7.9744 15.8001 52.7021
7.86892 15.567 52.7831
7.91017 14.8061 52.114
7.81603 15.4303 53.7234
8.13339 16.0856 54.3061
8.10169 15.911 52.6091
7.62336 15.6158 53.8567
7.86225 15.4563 53.2251
7.85759 15.1652 52.5707
7.7223 14.8032 52.2872
7.69704 15.5155 53.0903
7.74843 15.0671 50.7945
7.59156 14.8978 51.8307
7.64078 15.6614 54.1824
7.83164 15.0261 54.2658
7.94227 15.6574 52.825
7.73803 14.9641 53.169
7.63947 15.2671 52.3643
7.67191 14.998 53.222
7.64636 15.145 53.4437
7.7622 15.4044 52.6424
7.64108 15.1564 52.3878
7.78962 15.4508 54.3296
7.48316 15.1057 52.6127
7.82095 15.6283 53.965
7.48011 15.4175 53.449
7.50598 15.3836 52.7588
7.46326 14.9224 52.3952
7.542 15.4052 53.9748
7.70422 15.3184 54.4391
7.6185 15.4188 53.1836
7.47482 15.0127 54.9006
7.52579 15.1303 52.9534
7.6856 15.0205 52.7441
7.60243 14.7243 52.0487
7.49082 14.9143 52.8512
7.78827 14.954 52.9992
7.60571 15.5778 54.4402
7.55918 15.2939 52.4658
7.44501 14.7802 52.3349
7.49566 15.0438 53.5104
7.6815 15.4071 54.2733
7.43915 14.4262 52.7896
7.62342 15.2004 52.908
7.31211 14.2409 52.0875
7.48265 15.241 53.589
7.39477 14.9722 54.509
7.56617 15.0815 53.6624
7.35029 14.5615 50.4539
7.16035 14.4458 52.6673
7.36099 15.1187 53.8116
7.33425 14.654 52.0884
7.30382 14.7118 54.5175
7.29975 15.1795 52.5446
7.34556 14.6529 52.9852
7.35782 14.8947 52.9985
7.40764 14.5217 52.2238
7.33129 15.2278 54.0562
7.64527 15.2302 54.0314
7.16574 14.5045 52.9119
7.25362 14.8892 52.4629
7.29682 14.1276 52.6067
7.26844 14.8259 54.2137
7.54528 14.7522 53.4116
7.33503 14.934 55.8135
7.31876 14.904 54.9394
7.48455 15.499 54.8067
7.26378 15.2091 55.1855
7.56871 15.7648 55.7635
7.4486 15.2629 55.2083
7.45284 15.1957 53.818
7.42703 15.1689 54.9625
7.42376 14.0956 52.252
7.29005 14.9657 52.2204
7.03454 14.3654 54.0875
7.38875 14.732 52.1979
7.16348 14.7242 55.3138
7.47545 14.7207 52.9174
7.24629 13.9751 50.3427
6.97666 14.3114 53.4128
7.31533 14.1298 52.4283
7.23701 14.6488 54.5161
7.23101 14.7515 52.2866
7.28034 14.2937 52.562
7.14957 14.5796 52.3932
7.08312 14.3357 52.9477
7.20877 14.7487 54.2188
7.37906 14.7296 53.275
7.02099 14.3952 52.7726
7.32975 14.3757 51.7083
7.09894 14.3132 51.1135
6.67833 14.1433 52.3886
6.98446 14.4543 53.916
7.13988 13.9162 51.4252
7.10125 14.301 52.9744
6.96431 14.3256 53.004
6.91437 14.4075 53.1976
6.95697 14.0806 51.9997
6.92125 14.5074 52.3931
7.10655 13.7598 54.1205
7.07145 14.5141 51.4368
6.80205 13.917 54.3639
7.25277 14.8853 52.2576
6.89616 14.0093 50.9457
6.87916 13.6762 50.9287
6.86205 14.059 52.7391
7.12545 14.02 51.5361
6.98678 14.0498 52.4781
6.97564 14.0229 50.8861
6.85085 13.8593 52.6986
7.00275 13.7604 52.393
7.07685 13.9642 51.2972
6.86882 14.2549 52.7301
6.85855 14.0273 52.4734
6.73284 13.6254 53.136
7.17546 13.9916 51.5425
6.88212 14.0336 52.7339
7.18383 14.6396 53.2592
6.87491 13.9126 50.5062
6.71045 13.898 53.7243
6.89872 14.4616 53.6712
6.95239 14.0758 52.4135
6.99583 13.802 52.9803
7.05263 14.5223 52.5775
6.7161 13.6804 52.5403
6.67641 13.7505 51.3478
6.72759 14.047 51.9057
6.81529 13.8781 52.4849
6.85864 14.2597 52.7675
6.88879 13.639 50.9937
6.68467 13.9083 52.2025
6.84465 13.8394 52.7434
6.97165 13.7217 51.0214
6.78242 13.7133 52.0982
6.75031 13.4276 49.8155
6.68258 13.852 51.2435
6.6095 13.8542 54.0546
6.8193 14.1221 54.0614
6.84583 13.5825 51.8525
6.91838 13.8275 52.5095
6.79286 14.4675 52.3529
6.73756 13.6712 51.9708
6.61029 14.0419 53.1867
6.79717 13.625 52.915
6.75943 13.9852 52.2384
6.7129 13.7788 53.1323
6.78275 13.5466 49.2397
6.62144 13.4436 50.5812
6.55325 13.5083 51.4174
6.7104 13.684 51.6672
6.70272 12.9897 49.5099
6.41906 13.7881 54.6039
6.87825 13.972 51.7201
6.63241 14.1514 54.8578
6.84559 13.7489 52.0911
6.56297 13.6774 51.5215
6.60522 13.4283 53.3178
6.79896 13.8627 52.2262
6.70561 13.686 51.9631
6.7466 13.262 50.2724
6.5752 13.451 52.199
6.74819 13.8607 51.6164
6.67432 13.7508 51.7994
6.53643 13.9321 54.2662
6.82593 13.7383 51.9564
6.51507 13.2805 49.8738
6.53061 13.5357 53.936
6.70677 13.4451 51.4733
6.61651 13.8165 52.4421
6.63533 13.8225 51.5415
6.60263 13.5466 53.0226
6.49872 13.3967 52.2782
6.53475 13.8643 53.5053
6.5983 14.0275 52.5261
6.58819 12.6285 51.2228
6.55297 13.7726 51.743
6.55882 13.6225 50.5336
6.49989 13.3272 52.3465
6.55475 13.4998 51.4849
6.54829 13.1765 51.6517
6.32407 13.4894 51.5905
6.43069 13.2207 50.9487
6.66716 13.5901 53.4306
6.82827 13.8581 51.492
6.45523 13.3201 52.5331
6.60165 13.7263 52.9016
6.50047 13.7217 51.6258
6.55147 13.0499 51.7381
6.56594 13.7046 52.8988
6.55635 13.2024 51.3134
6.57045 13.6796 52.0687
6.50607 13.805 52.6681
6.47263 13.3037 53.0458
6.45456 13.6478 52.1286
6.63313 13.6321 52.1231
6.42119 13.2074 52.2704
6.4662 12.9935 50.0581
6.28061 13.5131 53.469
6.57107 13.8272 52.9918
6.49423 13.6951 50.9658
6.15241 13.4373 53.5168
6.56285 13.6692 53.0449
6.5722 13.566 52.6356
6.63314 13.4878 51.8785
6.41583 12.9653 52.5282
6.61945 13.6353 50.8961
6.56124 13.3348 53.3827
6.50745 13.7422 53.07
6.58747 13.0536 52.4063
6.42177 13.619 50.4198
6.35185 13.0703 51.6438
6.46893 13.0633 51.4741
6.46144 13.7846 52.6946
6.35235 13.2517 51.4008
6.49421 13.1314 52.617
6.48301 13.6578 53.1659
6.50623 13.2133 51.2757
6.29836 13.1812 50.2257
6.18146 12.9979 51.8887
6.25194 13.3536 51.2212
6.54269 13.3092 50.7247
6.19727 12.9962 50.961
6.23352 12.803 51.5614
6.39664 13.1219 51.7504
6.35317 13.4402 51.4866
6.4265 13.3823 52.4492
6.47344 12.8541 50.8851
6.17065 13.075 51.8228
6.28114 12.8403 52.8023
6.46137 13.4006 51.2883
6.38072 13.3106 52.2371
6.58807 13.4368 52.5946
6.22198 12.6617 50.5144
6.26531 13.0356 50.4894
6.32981 13.3287 51.2463
6.24508 12.8918 51.8334
6.19635 13.2894 51.3338
6.37563 13.3393 51.0079
6.14607 13.1557 53.8983
6.47742 12.6682 50.9436
6.34161 13.436 51.2627
6.28534 13.0961 50.4083
6.25337 12.9261 51.7198
6.42619 13.416 53.1576
6.48007 12.8784 50.1438
6.21615 13.029 51.4681
6.20103 12.907 50.521
6.15447 12.9091 52.1744
6.40241 13.5658 53.0156
6.35532 12.9596 51.5493
6.33163 12.9466 50.7874
6.20193 13.0982 50.7977
6.10093 13.2654 50.2399
6.10489 12.8653 51.4434
6.25296 12.5747 50.2437
6.15618 12.8876 52.1593
6.33375 12.9907 52.4215
6.31495 13.6542 51.5286
6.12365 12.8451 51.9989
6.29148 12.754 50.9111
6.22544 12.9723 51.3435
6.19384 13.0293 51.1574
6.06079 12.8615 52.0424
6.44346 13.7699 52.3701
6.30527 12.904 51.4402
6.22905 12.8405 51.518
6.27029 13.0064 52.093
6.2463 12.7343 50.7125
6.24495 13.245 50.2489
6.03678 12.822 52.4809
6.40462 12.9219 50.8383
6.22272 12.855 52.0447
6.44 13.1663 51.1342
6.19475 13.1241 51.8286
6.16528 12.9653 51.6462
6.26489 12.9552 52.9146
6.3613 12.7038 50.4008
6.12761 12.9958 50.7235
6.01781 13.0828 52.003
6.27027 13.0474 51.2104
6.08819 13.2993 52.1935
6.22692 12.7739 50.5136
6.13136 13.1529 52.3551
6.22262 12.7651 51.5005
6.28219 13.6247 51.3818
6.17131 12.3925 49.781
6.00113 12.9115 51.4422
6.26013 12.9799 52.9159
6.18563 13.375 53.5807
6.26129 12.7916 50.3097
6.14204 12.6416 49.3157
6.10256 12.8051 52.8259
6.28256 13.3133 53.166
6.19854 12.8821 49.6291
6.12993 12.7472 51.5161
6.1964 12.9258 53.176
6.31396 13.0961 52.3698
6.21229 13.2332 51.4701
6.35646 12.9808 51.6467
6.17445 13.3934 53.5643
6.28392 13.1984 53.7223
6.30563 13.0484 50.8649
6.27501 12.8908 50.8702
6.15179 12.8764 51.2356
6.10776 12.9121 50.6407
6.07782 12.979 51.694
6.12701 13.1615 52.8394
6.25766 13.0895 52.2963
6.35364 13.2834 53.0953
6.21088 12.7967 52.2543
6.13722 13.2195 50.0804
6.07036 12.5539 50.5341
6.09783 12.9324 51.5363
6.03588 13.0214 51.7213
6.28102 12.6842 52.6395
6.31301 12.9925 50.7391
6.22577 12.9542 52.597
6.27336 12.9381 51.3613
6.04627 12.8317 50.4224
5.98995 13.1738 51.4453
6.236 12.888 50.8537
6.05378 12.8427 52.2362
6.16567 12.8136 52.0249
6.11969 13.2802 52.7174
6.23896 13.1569 50.8746
6.16787 12.6192 52.5277
6.25547 12.8496 51.36
6.25117 12.6248 51.5619
6.28433 13.2492 50.2436
6.05122 12.6764 54.112
6.28269 13.8136 53.4198
6.28218 13.4157 51.8376
6.1331 12.784 52.0194
6.10514 12.6623 50.2738
6.13425 12.8826 52.2958
6.38086 13.5658 53.8558
6.36024 13.6679 53.017
6.29792 13.1766 49.7835
6.08633 12.5797 50.4188
6.08074 12.7251 51.5571
6.2535 13.3832 54.1679
6.36692 12.9386 51.6941
6.13923 12.9165 51.3288
6.27806 12.9861 53.3166
6.19067 12.978 51.561
6.12115 13.1511 55.1034
6.45858 12.8434 50.3213
5.93093 13.2873 51.7376
6.14578 12.9907 49.8712
6.0346 12.9351 52.7672
6.1464 13.1657 54.4389
6.29649 13.4594 52.5373
6.19099 13.2773 54.5794
6.42854 13.7888 55.4274
6.36509 13.2108 53.5045
6.21999 0 0