# pn-170911/CsIIA-39-CsII-1280-1959.psd
# Power spectrum* (dif=0,1,2) (really just |FT|^2)
# NOTE: only the first half! (symmetric)
# weeks: 1280-1959
# 597 clock-days, 157 excluded
# PSD: 1441
79878.6 2.60684 0.0573507
4.06964e+06 81.3089 0.0531635
1.56897e+07 303.427 0.0587244
3.93941e+06 155.697 0.0573819
3.4591e+06 234.026 0.0675928
1.42538e+06 143.704 0.0677854
1.05903e+06 152.78 0.0762252
745991 143.094 0.0856223
608083 153.364 0.106273
434264 138.376 0.0986177
405677 158.346 0.12077
322025 144.5 0.134115
252546 141.346 0.151015
235557 152.564 0.16312
200808 138.483 0.175391
179891 150.926 0.214184
163701 158.004 0.249186
133588 144.602 0.239077
122811 144.397 0.272893
105275 134.659 0.275663
91940.8 129.985 0.298736
86474.7 141.078 0.346519
79652.8 142.636 0.369554
68934 136.826 0.387362
72215.3 146.748 0.433671
59109.1 141.578 0.481249
55533.3 131.329 0.463551
53486.4 140.455 0.532221
49418.9 139.011 0.548179
46717.6 145.533 0.630686
43801.4 145.028 0.67194
41360.4 146.518 0.726679
36644.2 138.696 0.732457
35482.9 150.705 0.8177
30758.6 135.915 0.791411
29359.5 139.263 0.873574
29278.6 140.659 0.922794
27321.6 139.645 0.958881
26134.2 137.153 0.967954
26028.4 148.342 1.11169
24573.7 146.335 1.14257
22891 144.788 1.21719
21505.8 139.324 1.24603
20779.9 147.046 1.33187
18619.6 138.789 1.33127
19652.7 147.646 1.48461
18764.3 150.046 1.54158
17630.7 142.576 1.54098
17609.8 146.056 1.65719
15431.9 134.439 1.56011
14783.3 140.739 1.70345
14333.6 136.544 1.77159
14013.4 138.084 1.80912
12808.2 131.718 1.78808
12292.8 132.205 1.84623
12219.9 138.572 2.0342
11640.8 136.345 2.09216
10795.8 133.698 2.12196
11628.7 138.118 2.2528
10233.4 127.772 2.13445
10859.9 139.092 2.43001
10286.9 134.529 2.41188
10202.2 132.305 2.43919
9783.9 138.915 2.70012
9874.65 135.29 2.67176
8635.52 127.616 2.62066
8988.85 140.962 2.96786
8499.84 133.981 2.92899
7989.77 126.501 2.83386
8050.24 141.039 3.25289
7420.33 129.53 3.06597
7297.84 130.683 3.14718
7775 144.496 3.60059
6793.41 132.594 3.34651
7156.95 136.224 3.52977
6593.32 131.222 3.55414
6603.88 138.919 3.91157
6645.57 141.652 4.01975
6064.91 134.063 3.8983
5293.21 124.465 3.76279
5556.04 128.675 3.9464
5614.89 136.144 4.30265
5138.68 125.917 4.09497
4913.16 129.684 4.25375
5236.23 134.089 4.55552
4808.73 128.127 4.42309
4604.6 121.526 4.31804
4681.64 132.35 4.76705
4732.17 129.79 4.81851
4249.97 124.323 4.69185
4655.09 129.706 5.07414
4035.95 125.284 4.92188
4270.82 124.628 5.02467
4086.48 129.602 5.36144
4190.21 129.803 5.52765
4071.23 129.735 5.6084
3883.76 123.937 5.44474
3848.67 127.266 5.70997
3818.09 126.921 5.88514
4069.5 138.451 6.41582
3616.05 128.267 6.10286
3380.83 128.169 6.25918
3273.45 123.828 6.15394
3394.06 123.989 6.28708
3396.45 118.98 6.13364
3308.56 123.414 6.50135
3220.13 123.876 6.68817
3078.68 118.43 6.44703
2965.93 118.626 6.55818
2986.26 123.019 6.96299
2869.01 120.587 6.92322
2896.96 121.451 7.07241
2767.5 124.856 7.39192
2868.14 128.104 7.81854
2798.15 121.842 7.53296
2738.09 119.453 7.57505
2522.75 118.623 7.51754
2394.56 114.263 7.47706
2368.02 112.61 7.50946
2338.18 114.222 7.61086
2415.95 118.274 8.21112
2275.36 118.652 8.31205
2369.38 127.898 8.91963
2152.92 122.473 8.84263
2213.92 119.551 8.67575
1960.42 103.95 7.64665
2001.59 122.239 9.28184
2189.05 127.465 9.76369
1948.51 113.063 8.87629
2075.61 118.036 9.20882
1882.29 111.411 8.95268
1989.87 117.396 9.60164
1829.41 109.005 9.03856
1767.68 108.627 9.18446
1794.36 106.852 9.02084
1913.12 121.472 10.4915
1843.4 116.113 10.1631
1783.89 112.794 9.92192
1641.28 103.539 9.38954
1791.2 115.33 10.5279
1707.57 112.214 10.2874
1628.04 107.866 10.1759
1605.44 111.409 10.7534
1589.68 108.793 10.5038
1590.44 108.267 10.5873
1666.9 109.865 10.8917
1612.91 105.242 10.6459
1611.27 112.987 11.5304
1565.34 119.344 12.3926
1600.52 121.475 12.6975
1350.86 100.271 10.6237
1320.14 97.5241 10.4772
1425.34 111.647 12.3479
1428.87 105.404 11.4319
1325.06 105.559 11.8309
1326.77 106.502 12.1948
1239.19 98.8117 11.3322
1221.37 98.4456 11.5351
1247.85 110.701 13.0204
1330.74 113.058 13.4884
1127.82 96.3889 11.6371
1212.33 106.515 13.0502
1154.39 103.166 12.8546
1062.03 97.2778 12.3133
1197.14 107.793 13.7201
1114.15 97.6821 12.6213
1046.42 101.267 12.9165
1086.89 98.7915 13.0017
1058.5 103.336 13.7814
1064.57 99.3696 13.3212
1066 101.551 13.7927
1010.04 99.757 13.6634
985.365 93.9995 13.0438
1002.54 100.011 14.1942
1004.68 99.4424 14.1536
1010.64 104.913 15.1549
961.7 94.5707 13.9181
1029.79 102.291 15.1672
941.666 95.056 14.066
954.125 100.984 15.1242
891.058 95.2804 14.658
927.224 96.8982 14.6706
944.055 95.7832 14.7718
866.179 96.2481 15.1536
855.597 88.0152 13.9005
882.93 90.8446 14.7327
839.986 92.8754 15.1126
905.221 95.5721 15.8142
852.264 98.4793 16.1564
828.179 91.7664 15.289
828.702 92.1956 15.6683
821.89 95.5858 16.4126
823.889 94.5118 16.5769
785.239 91.6952 16.1084
792.662 93.534 16.3995
746.669 89.676 15.9471
806.665 98.446 17.7983
750.241 92.6037 16.7203
717.603 91.1525 16.585
704.423 89.8775 16.9483
731.291 91.5849 17.2385
736.311 90.0425 17.1052
690.236 90.4326 17.2183
667.465 88.6354 17.2703
652.901 86.5325 16.8625
653.057 83.498 16.511
636.971 86.9472 17.2387
653.424 86.8687 17.3696
707.864 95.9375 19.249
585.648 80.9668 16.6032
644.435 93.4447 19.3161
613.154 86.8463 18.0332
577.748 89.9 19.156
576.729 89.7766 19.1702
573.281 89.5004 19.0258
592.689 84.0642 17.9931
560.141 86.2015 18.7254
612.973 93.0693 20.7954
572.499 82.6182 18.189
579.512 84.7547 18.9394
574.866 85.7472 19.4331
557.462 86.4362 19.558
556.636 83.5288 19.0527
575.323 85.8572 19.9176
544.146 76.8672 17.9973
553.488 84.7422 20.1244
548.384 83.1049 19.9996
513.264 82.9158 19.897
529.577 82.49 19.8935
519.941 82.3905 20.3323
530.841 82.2601 20.3171
534.827 84.0553 21.0045
488.579 80.3479 20.4044
487.914 80.6856 20.8022
520.879 82.9601 21.0464
507.49 86.0724 22.0884
537.174 86.3689 22.0368
454.303 78.2525 20.5986
405.307 76.0983 20.0065
440.933 73.9799 19.9143
450.254 75.388 20.1478
440.35 77.7609 21.0712
452.335 79.0592 21.3401
411.184 75.4931 20.7894
429.433 78.1909 21.7568
431.883 80.3506 22.3506
374.48 69.8919 20.1641
400.174 78.896 22.0648
387.616 71.5064 20.5297
419.557 80.9431 23.1577
404.256 73.6859 21.1905
412.751 75.3737 21.9178
346.609 68.5923 20.4172
342.325 68.5334 20.0486
383.634 77.22 23.068
358.134 76.0585 23.0177
378.694 70.5965 21.7515
358.58 70.8204 21.4828
387.163 75.8408 23.3234
371.458 77.5271 24.1642
375.826 76.5462 24.1845
345.023 74.0793 23.3278
364.003 74.7796 23.4885
342.865 73.7296 23.8097
353.478 69.0946 22.0757
353.073 73.3261 23.9225
333.754 67.6237 22.2152
335.599 68.4029 22.7616
349.678 73.7807 24.5241
340.163 69.7002 23.1582
367.2 73.5446 25.1343
348.91 74.942 25.2264
330.407 67.3924 22.8423
314.69 70.8731 24.6913
326.218 71.234 24.663
336.252 69.5935 24.4529
331.699 70.0004 24.5569
318.712 67.7197 24.067
300.881 64.8571 23.7511
305.073 70.7701 25.382
310.869 74.1807 26.531
296.282 68.2748 24.9113
274.324 66.5222 24.8027
288.386 65.9865 23.7463
298.043 68.844 25.4973
294.842 73.6473 27.3063
284.593 68.8649 25.6298
263.22 62.6133 23.8991
274.703 65.8368 24.9372
274.254 69.0153 26.5065
240.303 64.3527 25.3036
271.875 66.9248 26.1343
268.375 67.0733 26.3506
262.811 67.093 26.5825
244.691 65.0731 25.5971
241.007 64.2521 25.8094
255.458 67.3256 26.9544
243.669 63.2265 25.7515
249.764 62.2592 25.4131
254.001 69.257 28.0225
249.798 61.4842 26.157
255.822 65.4741 26.8203
250.28 60.8342 25.0691
254.183 67.2409 28.4597
244.908 60.4257 25.8333
236.593 62.3586 26.2147
242.199 69.0013 29.7798
238.189 63.6538 27.4748
232.608 63.2171 27.5898
245.574 61.1999 26.3704
241.027 61.3209 27.0677
241.7 60.8367 26.7207
220.765 61.1772 28.0686
229.428 63.7386 28.4201
246.806 64.583 29.6702
219.618 59.3598 26.2242
236.032 62.5435 28.7484
204.031 59.7116 27.1811
220.809 61.1629 28.3
220.76 60.7942 28.6408
229.14 62.1738 28.7168
203.193 62.1151 28.4062
216.956 61.7667 30.48
225.152 60.9631 28.6467
193.198 56.9239 27.6432
205.806 55.3685 26.5231
215.654 60.916 29.6602
194.162 58.5342 28.4677
198.229 56.0706 27.5909
198.92 61.3539 30.2381
204.92 61.6417 30.0737
188.277 59.0154 30.2146
191.794 58.3465 28.9532
195.962 61.5599 30.844
180.48 57.0886 29.5944
194.639 60.5666 30.3442
176.34 58.1062 30.3785
178.292 57.2733 29.504
186.068 55.7574 28.574
175.908 54.3529 28.064
183.663 56.2827 29.8896
174.648 53.9501 28.4329
179.938 55.0885 29.0817
166.123 53.358 28.7767
178.062 56.1652 29.8449
185.119 57.4984 31.0647
164.069 52.0253 28.8009
171.58 55.9874 30.3087
180.128 57.3356 31.882
177.088 55.1789 30.7801
178.745 55.8511 30.3607
164.965 56.4239 31.8215
181.982 51.5494 28.61
175.651 51.8663 28.5952
172.779 55.4839 31.7692
171.682 51.3032 30.1296
177.521 56.7452 31.9139
167.993 55.6172 32.3296
164.021 51.8866 30.2304
166.21 54.4418 30.6024
163.37 51.5486 31.5037
159.511 51.1415 30.4554
162.114 54.8785 31.7253
164.924 57.5861 34.0728
162.85 56.392 33.8333
152.793 49.7805 30.5461
154.082 50.4245 30.4694
152.22 50.7114 30.1422
148.559 55.7231 34.0943
144.261 49.4443 30.5727
147.692 47.3296 29.035
136.948 48.6216 29.4423
138.617 50.7215 32.2121
139.301 48.6876 30.1463
143.444 53.2948 32.96
142.186 53.6479 34.3814
137.072 48.7416 31.1733
128.88 49.2679 32.2578
139.465 48.6417 31.3804
137.991 49.7316 31.6329
138.542 52.0083 33.2515
132.485 47.7123 32.0646
134.717 44.73 29.4244
139.172 53.2571 34.2195
144.007 52.2981 34.5388
140.252 49.5804 33.1387
141.391 50.2004 33.7687
140.674 47.5183 31.2926
132.468 47.8348 32.2771
130.721 46.8153 32.4296
129.853 48.0198 31.4147
145.042 52.3157 36.1957
142.995 48.986 34.637
133.486 47.8455 32.7584
133.711 46.9752 32.5079
135.509 49.0465 34.6155
136.444 48.9577 33.3393
128.239 46.3521 32.9436
131.072 49.4062 34.4566
134.307 48.5327 34.6412
129.411 47.9569 34.7625
125.556 46.4797 32.9042
123.52 46.9387 33.4909
121.013 44.9992 33.3306
130.267 48.7397 35.008
123.781 47.1783 34.6055
117.717 45.113 33.7468
120.26 44.8738 32.2177
119.44 47.2366 34.9506
123.614 48.0306 35.4474
112.927 44.335 34.3402
114.589 44.6957 33.0273
113.687 46.3585 35.101
110.996 44.7626 33.9021
122.924 48.3357 36.3484
108.88 45.9984 34.8567
102.759 43.1346 33.4933
117.127 45.6729 34.8211
106.976 41.9687 32.3354
111.309 48.1768 37.6779
117.509 47.7891 37.6818
104.124 42.4311 33.5348
103.668 43.9954 35.1147
122.417 48.7219 37.1113
114.285 48.6793 38.7459
111.526 42.9987 34.4942
109.013 43.8614 35.6684
110.878 41.8705 32.9498
108.809 44.4841 36.1172
102.718 43.5333 35.9032
101.91 40.5525 33.0236
104.58 42.2524 34.9474
116.795 44.8448 37.2917
111.976 44.5827 36.8688
113.812 43.7302 35.9946
100.919 41.4096 34.4502
102.556 41.4898 34.0716
113.525 44.3051 37.0404
102.814 43.9278 37.459
102.236 42.755 36.4592
105.417 38.5519 33.3157
109.783 44.1877 38.0309
101.15 43.343 36.6987
98.4849 43.4233 37.3204
100.57 41.8037 37.1244
100.451 41.4729 37.0411
100.002 40.976 35.1031
99.1202 43.384 38.0018
97.6286 41.5156 36.4194
91.48 41.0214 36.062
103.547 43.8399 39.0439
94.7015 41.7509 36.8495
93.6777 44.6372 39.7341
90.3294 38.5507 34.5473
93.2648 40.8426 37.8376
93.3663 39.5345 36.5127
89.487 40.0513 36.294
91.6115 42.0614 37.4616
85.4883 39.5478 37.4897
88.3797 40.2905 36.8717
89.1615 40.8625 37.9684
87.2348 37.0532 34.2102
85.0792 40.2611 36.8922
92.2578 41.8913 40.0079
92.5725 41.4937 39.7765
86.9008 40.5886 38.3233
89.3761 42.4317 39.5626
81.7813 38.3543 37.2903
89.6764 41.8934 39.3971
87.5503 38.5285 36.7978
89.524 42.5464 39.4142
85.787 39.4276 37.2189
85.9343 38.1847 37.7262
89.9285 41.7031 40.8934
83.8191 39.6496 38.1583
86.8085 35.8152 35.7617
83.2947 37.7079 37.5099
87.2174 40.8261 39.4472
92.2839 39.7367 38.9965
88.2469 39.1444 40.6465
90.5705 40.4843 40.1202
85.4297 39.2722 39.6646
91.0952 38.7144 38.4178
85.3287 39.2949 39.3409
85.6765 35.813 36.1237
80.2009 39.1086 40.0288
80.9376 34.0924 34.0399
80.9655 37.441 39.3945
85.7403 40.4391 42.1518
85.4213 39.8515 39.82
79.8426 36.0656 37.8763
75.2729 33.2636 35.1446
81.2204 36.0063 38.6814
76.355 34.4609 35.6682
78.9305 38.5253 39.3878
66.9975 37.0198 39.5745
71.242 38.0815 41.6554
73.6912 40.089 42.1445
81.6235 39.2389 41.2439
67.0515 37.197 39.6566
67.9945 34.5931 38.0284
65.4201 36.2131 39.4911
71.9834 35.848 37.0907
70.8227 33.8925 38.4177
72.3476 37.4917 41.1363
71.526 37.3231 40.8518
74.8245 34.4527 37.1477
71.8681 35.5185 38.0725
70.0367 35.1824 39.1032
71.5969 34.2835 39.4344
67.2127 35.6943 40.0864
76.0992 39.2487 43.282
72.8669 33.2895 38.9602
72.6922 35.3258 39.2333
74.2346 36.4472 39.6842
69.9521 36.2555 42.0263
78.1274 37.9588 41.4208
76.4915 37.6951 43.1992
74.035 36.2745 42.3452
70.5467 32.2569 36.7336
68.8612 32.9493 37.7286
67.0317 35.867 41.6389
70.2029 35.5826 41.2157
73.5781 36.5353 41.6976
72.5704 34.7214 40.8226
73.9396 34.8521 40.3668
69.659 33.6143 39.7313
68.0473 36.22 43.9572
68.4555 34.3536 39.2773
65.7367 34.2431 41.4399
63.268 35.2479 42.456
66.3612 34.6902 40.3217
66.8741 34.7994 42.0374
63.4143 33.5172 40.3662
63.0471 32.4815 39.531
60.2459 34.731 40.945
59.2356 32.4098 40.3368
58.463 36.1589 44.1714
60.5305 33.8578 41.1512
62.4419 35.6275 44.0904
59.6628 33.0974 41.1592
63.716 35.6016 43.4158
57.9014 31.7523 39.1599
59.5606 34.2061 42.1648
60.7728 35.6988 44.3314
56.1627 34.5938 43.5425
60.211 31.6286 38.8263
57.4237 31.66 39.9974
57.7598 30.6043 39.3414
52.856 33.1835 41.9732
58.6671 32.9093 41.4675
58.3453 31.7117 42.3328
62.404 30.3269 40.241
58.1532 31.283 40.6354
60.2876 31.5834 38.6347
55.9928 31.396 41.4517
59.5372 33.0872 41.4979
57.8689 31.986 40.3525
57.8929 31.4491 42.4807
59.3148 31.8946 42.1428
61.4821 31.1895 42.214
56.907 31.7318 40.8866
58.3394 29.6436 39.7681
60.2583 32.3251 42.3523
60.1356 34.9291 46.35
55.3174 30.6595 42.1522
55.8667 29.118 38.4099
53.341 29.8666 39.5439
52.779 29.4721 41.3522
55.075 31.5372 42.3129
55.4867 30.1361 39.0381
52.5268 31.5722 43.6667
56.9735 31.5285 41.6648
45.2997 28.4336 38.2813
55.3382 30.537 43.4263
54.6235 29.0188 41.0705
51.2181 29.0748 40.3484
51.5863 31.0848 40.9371
50.7113 29.2385 41.7357
48.9149 30.5691 41.5154
50.4717 30.7816 42.8917
47.5004 28.8696 42.2494
48.5632 31.2106 43.1366
47.1552 29.1727 42.5584
50.6423 31.2186 44.1202
45.1834 30.2622 45.0117
48.7981 32.1254 46.3412
50.779 29.4238 40.0756
48.7262 28.3913 40.4155
45.9353 29.2073 42.2551
47.7933 26.5847 37.2835
44.3094 29.5149 42.6448
49.8278 32.4338 47.4871
48.6632 30.1597 43.4616
50.6975 31.2067 45.8707
47.2353 29.2735 41.7054
47.6781 26.9598 39.72
47.7746 28.3892 41.0774
47.783 28.9179 42.445
47.6634 27.5688 39.6464
47.5271 28.0771 43.7281
48.85 28.7896 40.215
48.7379 27.405 40.5458
45.8123 27.8907 42.9873
50.199 27.5784 40.0789
45.1022 29.6445 45.285
50.6755 28.2027 42.0962
51.0389 28.8135 42.6264
47.4032 27.4378 42.2853
44.7339 28.872 44.0506
49.434 29.3699 43.7994
45.9379 27.1869 42.6469
44.7481 28.7984 42.6719
43.9788 28.7025 46.381
49.2355 27.9699 40.7367
43.5465 27.2305 41.9489
44.4803 28.3012 44.1511
44.6236 29.783 46.5577
41.9435 29.5499 46.4651
42.1524 28.07 44.6414
41.934 26.5823 42.3722
39.282 25.4756 40.8358
41.4718 28.4355 43.0307
42.0409 27.8361 44.9493
41.3599 28.2076 45.1722
39.0541 26.4954 42.6663
43.1719 28.3193 45.0811
43.3269 28.3211 44.1051
40.5822 27.2649 43.3939
40.6006 29.0897 45.7768
38.6786 28.3291 45.1533
39.5533 27.5356 45.5696
38.5508 27.0406 44.5023
42.0671 27.2728 42.8048
42.543 27.8934 44.4928
38.513 28.0068 47.2865
43.1148 28.4298 46.4911
39.1475 26.8713 43.0438
41.2725 25.3339 40.6726
39.3421 25.6614 43.8258
42.9144 28.0699 47.0668
42.5251 27.8897 45.4505
42.0121 27.3111 44.7676
42.0504 26.335 43.2174
41.8894 25.2732 42.6681
42.151 28.2526 49.7585
43.8626 30.1526 49.8616
42.4223 28.5115 47.096
46.1092 26.8572 45.0954
40.4711 26.3315 45.931
42.6557 25.6908 43.3517
41.1817 25.0356 41.3775
41.9674 25.0172 43.0973
41.6495 25.272 43.1606
40.0241 27.7211 47.8861
40.5573 26.2768 44.1378
37.8878 26.364 45.3662
39.5118 27.7191 48.1681
36.8064 24.7643 44.9787
38.6994 26.2069 44.9307
34.2321 24.871 43.8616
37.1727 25.7462 44.3609
36.9613 25.4708 44.2206
37.3118 27.3705 47.5893
36.5979 25.3517 42.5036
35.08 26.1817 46.5403
37.9248 25.5815 46.027
34.8283 24.7537 42.2798
37.052 25.3833 44.5814
31.8492 24.1796 44.7203
35.1297 24.6563 44.1572
35.1168 25.1284 46.9356
35.9166 25.4618 43.2333
34.0396 24.6324 43.6988
34.2514 23.6789 43.8053
36.4335 24.3747 44.6602
37.729 25.3397 43.9211
35.3764 25.5361 47.8798
38.0544 27.1242 48.6954
36.6159 22.2644 41.3574
38.7638 24.5635 44.3081
35.2285 23.2147 43.7143
34.9473 24.5815 44.0699
36.9179 25.8443 46.2728
37.2238 23.6369 43.3536
35.0146 25.4911 47.7402
37.641 25.5958 48.792
38.3495 23.3105 42.5645
34.7175 22.8635 42.8477
37.3126 24.5378 45.9285
35.2644 22.6226 43.0681
34.521 24.7227 45.3033
37.6087 23.8265 44.9472
36.5364 24.4252 44.7237
35.0513 24.8066 46.1845
34.9241 24.4106 46.4417
34.4775 23.1045 44.1643
33.1574 24.4447 46.0065
34.9795 24.9285 46.9479
33.7058 22.4692 44.1977
34.1045 24.1927 46.8016
32.6514 22.416 41.9988
34.6774 23.5872 45.7021
33.4113 24.1075 45.3434
32.1791 23.4798 48.4575
32.685 23.1719 41.8244
31.3356 25.0085 48.7169
34.989 25.5394 48.1582
31.7272 22.7689 45.473
31.2907 23.7541 47.3791
32.1471 23.1467 44.6344
32.0053 21.7079 42.8468
32.7187 25.1206 46.5258
30.3573 22.814 44.3694
29.2266 22.0334 44.4375
32.9936 22.9751 48.2326
31.8545 23.5092 45.2682
32.5239 24.0376 46.2657
31.8818 23.0983 46.6261
32.2715 24.1867 48.6531
33.7754 23.8242 46.9814
32.1105 21.404 43.7934
33.5515 21.5391 44.1749
30.8507 23.1582 44.1342
30.4964 23.2376 49.6307
33.9283 22.8444 46.6291
33.45 23.2957 47.44
32.8595 25.5555 51.3197
35.1544 23.3963 47.4094
34.9142 22.5866 46.3869
33.9839 23.0561 46.9493
33.4503 21.4983 42.9329
31.6692 22.4752 47.2963
31.327 22.0019 42.7053
34.5806 23.0908 48.6986
33.024 23.197 47.802
34.0684 23.3176 46.8633
29.9192 22.2047 45.562
33.315 23.8309 49.9357
31.4432 20.4799 43.1009
30.5604 23.3762 48.1958
31.1355 21.1849 44.9903
30.5939 23.2448 46.2912
30.955 20.916 45.4564
31.0137 22.2986 46.4472
30.1081 24.3502 50.9716
30.9626 23.0152 50.2929
30.1566 21.8504 45.7713
28.6896 22.1473 45.5149
29.3161 21.4037 45.7896
28.8246 22.9797 47.7563
29.811 20.6134 45.3756
28.8293 21.2713 45.8715
28.9291 22.6862 48.0408
31.0947 21.9916 45.7624
28.0042 20.7366 47.1387
27.3595 22.6465 47.598
26.9283 19.3163 43.5917
30.347 21.8376 47.284
28.907 21.0656 45.4221
30.9437 22.3027 50.0166
30.1674 22.1153 46.858
30.244 22.6974 47.2088
29.853 21.7528 48.1337
31.3006 21.0079 45.8391
30.0522 21.3289 45.8965
30.0131 20.6168 43.431
30.772 19.9928 44.9908
32.7334 20.9999 47.0668
30.8346 21.6155 48.1892
31.4245 19.4584 42.6307
32.1118 21.9155 48.0025
31.8385 20.6549 46.2696
30.1501 21.3886 49.0949
32.2849 20.5192 44.5645
28.377 20.3958 48.7787
32.3724 20.9731 44.8897
29.7319 21.6757 47.9379
30.3114 20.5724 46.1477
27.9363 21.0892 47.065
27.4652 20.746 45.8969
28.3548 19.9365 48.2142
28.2937 21.679 46.4002
27.735 20.3533 46.174
26.5829 21.3471 51.791
28.6255 20.7344 47.9514
29.1498 19.6105 43.4242
26.7846 20.602 45.4488
26.6165 20.1554 45.5309
26.8098 21.3468 50.9311
27.6921 20.0001 45.3956
27.7345 21.1216 48.6834
28.2786 19.4859 43.6329
27.6037 21.5351 49.4389
24.2659 18.3688 43.7358
25.0408 20.2958 45.5751
25.5336 19.4952 44.9244
24.3282 18.8823 42.2402
25.6699 19.7559 45.44
26.35 18.7969 49.0678
27.1868 18.6757 45.5771
26.4116 19.9163 45.4343
26.1234 19.7417 47.9134
27.5483 21.8005 52.9533
27.26 21.5396 51.028
26.5833 21.1306 49.1617
26.8599 19.4493 45.696
27.2822 19.3025 46.7955
28.6783 20.3895 49.7889
27.9241 20.2886 44.1386
27.1994 18.8379 46.6946
28.2999 21.2671 48.6733
30.1002 19.942 48.6298
27.7282 18.766 45.9801
28.6293 19.0042 44.8947
26.9967 18.7727 44.864
28.7337 18.8179 45.6306
28.2139 17.7099 43.3857
28.7768 18.5982 43.9042
26.7424 19.7107 47.4391
27.5035 20.3099 50.2481
26.1378 20.7268 48.5722
27.4795 20.0852 48.7191
24.8882 19.8988 48.332
26.2269 18.8391 45.9852
25.7675 18.5476 44.6444
25.489 19.1974 47.7387
25.9575 18.0882 45.5751
23.7081 19.1145 47.0093
24.3922 19.8226 48.5026
26.3802 19.3051 50.4499
25.3241 18.7443 48.0472
27.1649 20.8841 47.8648
22.9071 19.4047 48.7746
25.6388 18.7556 46.2552
23.8488 18.8508 47.6052
23.785 17.0495 41.3819
23.2515 17.7396 45.2755
23.5077 18.7213 46.1375
23.0251 17.3686 45.5413
25.8413 20.4938 50.666
22.6183 18.2798 47.3582
25.9746 18.3596 45.6434
24.7746 21.005 53.8404
25.117 18.2683 44.8995
25.0312 18.9888 48.2087
24.9407 18.2119 46.5306
24.6694 18.5034 47.2655
25.8968 18.1403 46.5292
25.6172 16.7374 42.691
27.2751 19.0369 49.3511
22.4896 18.0274 46.18
25.015 19.3725 51.8312
25.9822 17.5859 42.8084
25.8581 19.3861 48.1504
24.4451 18.6716 49.2436
25.1315 19.3166 48.8401
24.1263 17.8697 45.6128
24.7529 19.2786 51.0607
25.789 17.7728 47.3175
24.8006 17.5476 47.9243
24.0457 20.1823 52.1372
26.6084 20.068 50.3724
25.5243 18.0952 46.2708
23.3913 17.6668 47.5793
23.1804 18.0965 46.9395
26.1154 19.6683 50.0356
24.5928 17.8383 48.3282
23.0103 19.1862 51.5032
24.2139 20.3492 50.7865
22.2055 18.1639 49.4025
22.4721 17.1656 43.29
22.0971 17.1921 45.4797
19.8411 17.0212 46.7305
21.6581 17.8803 48.3628
22.0631 18.1688 46.6565
21.7169 16.9444 48.281
20.6374 17.5475 46.744
21.5054 17.8473 45.8761
18.8025 18.3223 49.5352
21.3805 17.439 44.4905
21.2807 15.7654 45.0636
21.2408 17.552 45.6778
21.2627 18.2734 50.6585
21.917 18.168 47.21
22.1549 16.3143 46.0326
22.2125 17.3502 46.6409
19.6478 16.4076 44.3458
21.4031 16.6897 44.9735
19.8339 16.2384 44.8837
23.8627 17.3347 47.3274
21.8725 17.7992 50.8786
22.2769 17.0332 43.4808
20.399 16.4606 44.6721
22.4764 16.0768 42.8327
21.75 16.3609 47.7669
23.4915 19.1562 46.8111
21.2146 16.833 48.7919
24.5624 16.4431 45.2088
21.7075 17.2803 49.4487
23.7016 16.2591 44.4606
21.5686 18.0034 46.6245
23.7112 17.6336 51.3902
20.901 15.164 44.8793
22.4344 17.4496 44.5585
20.1308 18.1045 49.981
19.9499 15.3421 47.0864
19.7978 17.0527 47.8269
20.5521 17.6664 51.1653
20.5438 17.3968 49.8462
20.6058 16.7981 44.7319
18.6663 14.8543 43.6331
20.0623 18.0678 47.9894
19.2781 16.558 46.6745
19.1046 16.0143 44.6582
19.0647 16.2157 44.1504
18.9766 16.5143 46.451
18.4202 16.6902 48.647
18.5823 18.6178 52.7783
19.2428 16.979 45.7557
18.4757 16.9598 47.9
18.6357 16.0338 45.5743
17.5316 16.1873 47.1279
18.9282 16.182 44.5411
19.3408 16.886 46.7813
19.1231 15.567 46.7752
18.8694 15.4051 42.7676
18.7412 15.2574 44.0179
20.3246 18.7906 54.3619
20.0128 15.5952 46.6467
20.2614 17.799 48.895
19.552 16.5799 49.0604
20.5226 15.6233 43.1464
19.0789 15.4124 47.6828
20.6583 15.9504 46.2434
20.2233 16.436 48.279
22.3106 18.2547 49.9115
20.9585 17.4742 51.1888
19.9257 15.0795 46.998
20.506 15.6534 45.0566
21.3861 16.0582 45.7234
20.5451 15.2709 45.1794
20.3987 16.5569 46.7889
19.5458 15.0109 44.5496
19.4109 15.6798 49.0961
18.9393 16.0195 44.6347
18.9895 14.2063 44.8577
19.2256 16.0489 47.631
17.8357 16.4646 45.0447
19.2767 15.4659 47.4134
18.6125 16.9126 51.5957
18.0713 15.618 48.0431
18.7875 14.6886 43.1137
18.0212 14.6259 40.5721
18.09 15.2286 48.3706
18.6839 17.579 48.6718
17.2312 15.297 47.3195
18.9558 15.3351 46.3142
17.7408 16.5528 46.7564
17.1413 14.5049 42.6407
16.7779 15.2395 45.0147
16.5558 15.7329 49.581
18.1425 15.5751 47.4753
16.6448 14.5947 42.0716
18.0802 16.2465 44.2385
15.5292 14.7632 46.1111
16.59 16.1606 51.2954
19.066 14.8772 45.8271
17.586 14.6951 43.978
18.0332 15.7724 46.2926
18.2021 14.152 47.3209
18.2772 16.4273 46.6842
18.2191 15.7981 49.8789
19.494 15.676 44.7343
19.2044 15.2465 47.1467
17.9623 16.4295 47.4994
18.5833 15.7882 50.166
19.9488 15.4153 47.7756
18.8845 17.7975 53.2004
19.0157 15.6383 48.7578
18.8513 15.3171 44.1375
19.4357 15.8339 49.8612
18.3626 14.0186 45.9423
18.6533 15.5956 45.9007
19.3338 16.8248 51.5085
18.9326 15.6859 44.5377
17.9942 15.1665 49.2836
18.1295 15.2484 45.6007
17.9921 15.7758 48.5217
17.8539 15.3336 51.7979
18.242 15.6243 45.6658
18.2774 14.8428 48.7245
17.5809 15.9462 49.1422
17.869 15.6028 47.0529
18.3663 14.2021 42.9345
16.7508 15.5071 48.8143
17.3077 15.2508 44.8755
16.0967 14.4869 48.7015
17.5754 14.788 47.2873
16.2127 14.4287 46.6382
17.6618 14.5793 45.9231
16.9097 13.9637 43.0371
16.544 14.5811 46.8362
16.1717 15.7895 51.009
17.4562 16.7623 50.7257
16.7644 14.3753 45.7207
16.964 14.9555 47.6906
15.7555 12.9293 43.0671
16.9475 14.5992 45.4708
16.4098 14.3268 48.1049
17.8275 13.3734 42.8642
16.8577 15.2914 46.0791
15.8293 14.0421 42.8539
17.6058 14.0314 43.9611
17.4531 14.0491 46.8318
18.0818 14.4315 46.3416
19.0742 15.9328 51.5649
18.0851 14.7222 48.3807
18.6345 15.5034 51.1777
18.3033 14.7205 44.9074
18.4212 15.2542 49.0096
17.5907 14.0149 42.4747
17.1043 13.1593 42.0449
17.982 14.2174 45.0763
18.2262 14.3901 46.623
17.3859 14.4209 47.2925
19.6588 14.6247 48.5819
18.2227 13.2812 42.5078
18.3128 15.0354 48.755
19.6912 15.0659 44.0954
18.9392 14.5268 49.6722
17.6585 14.8909 50.1074
18.1498 15.0779 45.0586
17.1163 13.2531 46.0026
17.1602 14.5028 48.0389
17.1326 14.3385 48.398
16.8155 14.175 44.3154
16.1691 14.2617 48.0732
16.5594 14.2167 44.4009
17.2662 14.6662 49.4778
16.0205 13.7162 45.7876
15.5458 13.4516 43.8195
16.324 14.8863 49.356
15.0249 14.309 46.6749
16.6163 13.7761 43.7502
15.3867 15.7544 52.6576
16.1299 14.2627 46.5873
15.8243 13.5534 46.849
16.7654 13.7263 47.7564
16.5931 14.1825 42.7391
16.1574 12.8738 44.4137
16.5997 13.9521 46.5817
16.8388 14.1621 45.4327
16.1777 14.1011 46.2121
16.5003 12.9648 46.3853
16.7396 13.597 41.5611
17.6469 14.0441 47.8235
17.6335 15.2975 49.051
17.2781 13.7069 47.5062
18.8456 13.8916 44.898
18.3741 12.8132 47.5989
18.6684 15.1968 50.423
17.9389 13.8041 43.5899
17.9508 14.8363 50.2406
18.633 14.3166 48.9695
18.0127 13.4616 44.1191
18.6017 13.6305 46.6108
18.0113 14.5712 47.622
18.118 14.8265 50.5947
17.991 14.1314 47.6862
17.3628 14.427 45.8653
16.3107 12.5947 46.6264
17.1492 14.1839 45.9159
17.0368 13.3261 44.1393
18.2864 14.4444 48.8028
16.104 14.7661 51.2553
16.7408 14.0935 49.1518
16.4881 14.7077 49.2013
16.0105 13.0389 44.5927
16.274 13.5479 49.0809
16.488 14.2684 43.8921
15.0478 13.4213 46.6713
16.0084 12.1078 41.0583
15.8695 13.837 47.6712
16.2143 13.3945 45.8696
15.7149 14.604 45.0782
15.235 11.9815 44.2517
15.9775 13.8569 48.9215
16.414 13.4254 45.9066
15.17 13.6062 43.7866
14.7423 12.6109 44.6589
16.1006 12.7312 40.6592
16.3443 13.279 44.6073
16.2688 12.3388 43.6801
15.4918 13.4289 45.1732
16.4154 13.7542 49.2596
16.5761 13.481 50.2721
17.415 14.3071 50.1223
17.0038 13.582 46.9619
16.2358 12.7865 44.3306
17.0125 13.3595 45.9918
17.3231 13.225 43.7576
17.3103 12.3398 41.6814
16.0393 12.5901 48.0155
17.9756 12.5995 43.1047
16.7802 12.9038 45.6996
18.445 13.5159 48.5595
17.2072 13.2658 44.2993
17.3871 12.907 44.1487
15.9755 13.069 46.1616
17.3791 13.5799 47.4921
16.7265 12.323 41.587
17.6942 12.7681 45.6321
16.2021 13.0447 44.2388
17.741 12.5701 46.4188
17.0535 14.0452 47.3773
17.3381 14.3959 49.027
16.2849 13.3351 48.8241
17.3289 12.7064 46.6365
16.2495 13.3756 45.6534
16.5749 12.4945 45.404
15.2627 12.7483 46.7789
16.3899 12.5944 42.3112
15.3423 13.0264 45.2362
15.3786 12.0074 45.6459
15.6241 13.134 43.4619
15.483 12.5077 45.9106
14.6512 12.8403 48.1892
16.6097 13.9114 44.4991
14.9819 11.9115 45.0617
14.8995 13.2748 48.6318
15.9125 13.4642 47.4044
15.5337 13.6412 47.2668
16.4611 12.5705 45.7949
16.1979 12.8652 47.2486
15.6731 13.0107 44.6337
15.9479 13.3922 48.8479
15.6377 13.6565 48.7459
17.7797 13.7623 45.241
14.8586 12.4299 47.4684
17.9731 13.1764 49.9863
16.9238 13.0164 47.0037
16.1834 13.787 46.6161
15.4164 12.5581 44.5561
17.612 14.2501 48.3491
17.0527 13.8514 47.3028
17.6655 12.6826 48.1926
16.7253 12.8244 47.3284
17.4952 12.484 47.1791
16.2131 13.9339 45.4776
18.232 13.227 50.4143
18.0141 13.7608 48.1674
16.8999 13.2207 45.69
16.9592 13.3568 49.3382
18.7233 12.4269 46.2369
17.4251 13.0544 49.0595
15.8681 13.2545 47.2589
16.198 11.6285 42.4123
16.5652 11.7533 41.3128
15.0608 12.4293 43.7834
15.6671 13.6123 51.9406
14.5903 12.5372 47.0696
15.4091 13.2174 47.3164
14.5569 13.3147 48.2772
16.1177 12.3803 48.0427
14.9785 13.3774 43.5361
14.5155 11.777 44.8036
13.3145 13.2095 48.3325
14.8302 12.8416 49.2146
14.2283 12.7316 43.5364
13.7761 11.0756 41.3156
13.3873 13.0001 46.6951
14.3097 12.6085 46.6158
15.4931 12.7081 47.0221
14.3325 11.63 40.4451
13.8281 12.6416 46.906
13.8866 12.3717 47.4994
14.6237 11.7413 44.0343
15.0361 12.582 45.4709
15.4145 12.6455 43.1397
15.6681 11.4655 43.3682
14.0238 11.3868 42.0844
15.5799 11.7992 42.6145
15.8591 12.9848 46.281
15.6002 11.4298 46.4222
14.9715 12.993 43.0037
16.4355 12.1243 45.9664
16.2729 11.8409 47.29
16.1343 11.9421 46.148
15.4337 13.5261 48.4782
17.0653 12.5526 45.8955
14.6003 12.6689 48.0723
16.4973 12.2951 43.8257
14.8903 11.8729 43.5513
16.2517 12.3152 45.0948
14.8541 11.4286 45.4478
14.9065 12.1362 43.2196
13.7984 12.1765 49.5774
15.9874 12.3766 46.0953
14.0573 11.8517 41.6643
14.0524 11.1145 42.0319
13.8003 13.3841 45.7592
14.4958 11.6219 43.4857
13.5847 12.5378 46.8898
13.8725 13.1338 48.1336
13.4315 11.7899 47.4478
13.0823 12.8527 42.7453
13.876 11.8267 48.3589
13.7329 12.0159 46.5701
13.4629 11.4903 40.9791
12.5539 11.3471 47.3726
13.4876 12.8097 46.2876
12.6765 11.0177 40.0261
13.7877 11.0135 41.2803
13.0261 12.056 43.3851
13.1231 12.3725 48.2335
14.289 11.2238 44.5845
13.0463 11.4624 41.8807
12.9244 11.7267 44.143
13.4069 10.9747 43.6222
14.3718 12.4571 45.9341
14.6684 12.615 45.5083
14.9118 11.4459 42.5228
13.6086 11.4511 46.0562
14.945 12.1735 46.8669
14.9425 12.4796 46.7439
14.9765 12.1458 43.687
13.8847 12.4233 45.621
14.9807 11.5317 43.7528
14.2766 12.5856 48.6527
15.7003 11.7066 45.391
14.397 12.0277 43.0293
14.732 11.5581 45.6979
14.0406 11.8738 44.1297
13.9176 11.5766 44.1731
14.5485 11.9672 42.6698
13.1579 12.5353 46.0061
13.813 10.997 45.0302
14.8973 11.8728 46.1672
13.5857 12.7016 46.2316
14.0503 10.8343 41.709
13.2973 11.6598 46.2293
13.6796 11.462 42.9637
13.669 12.2347 43.5113
12.9703 12.0924 47.662
13.6175 10.8752 44.5511
12.8371 12.7841 46.7939
12.7172 10.8578 46.2725
13.5944 13.2681 51.1621
13.3052 12.9002 45.181
13.0974 12.1538 44.8318
12.284 11.6461 48.057
12.7663 11.553 43.6705
12.2122 11.8126 45.0274
12.576 12.5212 47.2108
12.7555 12.6175 46.2007
12.6054 11.4454 45.8354
12.7646 11.0135 42.3692
12.7827 10.8952 42.0328
12.8647 12.0809 46.2432
13.7597 12.8394 46.2044
12.613 11.09 45.78
13.5485 11.1939 44.76
12.8772 11.6226 42.9336
13.328 11.9302 45.0501
14.272 10.9488 47.3657
13.9798 13.3884 44.5144
13.3336 10.5414 42.8405
14.2017 11.5933 45.7854
14.145 11.9317 43.8432
12.9142 10.5582 39.7637
13.9928 10.9698 45.293
13.923 10.9467 41.5026
13.9985 10.2413 41.2492
14.0197 11.1511 41.9981
14.2042 11.7597 47.0084
14.797 11.4673 41.923
13.6768 11.3639 41.5299
14.1048 11.2736 44.0628
14.0802 11.2299 43.5138
13.7111 11.2078 44.3526
13.3509 11.2449 43.795
13.825 11.3675 42.9508
12.6372 11.0838 46.3815
13.3579 11.6573 43.6448
13.5234 11.7056 45.8861
12.9043 11.8386 45.1937
12.0173 11.1938 41.0971
12.9928 10.9793 44.9706
12.3841 11.5445 46.0814
12.662 11.5614 40.7361
11.9465 10.3272 40.6524
11.7147 10.1879 40.8315
11.9735 10.7394 44.8429
12.2707 10.9556 42.1033
11.6375 11.9276 47.2373
12.6843 11.9228 44.2907
12.3983 12.0633 45.6331
13.0242 11.5035 44.1868
12.1244 11.0506 45.5961
12.3403 11.5231 43.1816
12.8488 10.9053 41.4893
12.1631 10.8596 43.4146
12.9157 12.0077 45.0577
13.3579 10.9174 41.2337
12.7233 11.013 44.9161
12.5942 11.6546 44.715
13.475 10.9905 45.511
13.539 12.5584 48.1002
12.9608 11.6204 45.3695
14.5291 10.7405 37.926
12.8976 10.2453 43.4817
14.3567 11.6823 43.13
13.9325 11.5935 47.4455
15.2849 11.117 45.4728
14.1367 11.3074 46.6438
14.0349 11.6964 41.7853
14.4342 11.1251 46.8845
14.0055 11.5934 43.3326
12.9756 11.0837 44.2379
13.4469 12.2193 48.8093
14.4355 13.121 48.1852
14.5692 11.3341 51.2531
13.9243 12.6847 44.799
14.0188 11.3434 44.478
13.2016 11.1175 43.6026
12.6941 10.3295 42.503
13.3879 11.1973 44.1976
13.6152 10.9271 44.5064
13.1968 11.8003 42.3772
12.2127 11.3386 47.1092
12.1098 11.1841 40.198
12.2243 9.60692 40.7646
11.2283 11.5112 45.9341
13.4985 12.4797 44.6758
12.312 10.2213 44.1048
11.8372 11.3861 42.4172
12.1944 10.7946 45.0782
11.9083 11.3121 45.2814
12.165 10.1567 43.9691
12.6412 12.8544 44.4318
12.4471 12.1226 49.8706
13.5354 11.2878 43.8189
11.6603 10.9264 47.8413
13.2104 11.5976 42.7538
12.6689 11.4863 43.666
13.7033 11.9414 47.3597
13.5329 11.8827 49.1907
13.7301 11.6663 42.646
14.297 10.7039 42.896
13.9643 10.2506 46.1391
13.5752 12.1802 42.8236
14.0108 10.2272 42.0899
13.9615 11.7887 47.1532
14.8316 10.7878 40.3197
13.8297 10.0026 40.4277
13.0584 11.1198 43.0383
13.9426 11.3261 48.9039
14.0868 12.3681 47.2056
13.8057 11.7344 44.2644
13.1161 11.727 43.3582
13.4736 10.2601 42.9343
14.7452 10.6647 42.5326
13.2654 11.0988 44.34
14.2785 11.9456 46.3749
12.8599 11.67 46.6573
13.8977 10.4874 45.9071
13.6044 11.3762 44.2815
13.4421 11.7094 43.6793
12.6645 10.0048 42.2164
12.8868 10.4199 41.9821
12.6307 11.9907 42.9777
13.2193 10.4467 44.204
11.6906 11.0906 43.1069
12.6422 10.8554 46.6693
12.6762 11.949 46.5534
13.6426 11.6649 44.3413
12.2189 10.4684 41.877
12.2907 10.8538 46.0853
12.5085 12.2075 48.4183
12.5636 11.8468 44.4457
12.9244 10.982 48.0376
12.8774 12.13 44.0565
12.6207 11.4209 42.6146
13.6741 10.3641 43.6723
13.9135 11.0979 41.8346
12.8307 11.2881 48.7851
13.3159 11.7879 43.5305
13.5577 10.7039 44.7683
14.3089 11.8636 47.3915
13.5598 10.622 41.2815
13.9719 10.5208 42.2189
13.5655 10.6865 47.3748
13.4047 11.7807 44.1397
15.1572 11.6709 46.2139
13.8749 10.4747 41.3041
14.3825 11.107 42.9535
13.4521 10.3232 44.7215
14.6418 11.3287 44.7345
13.7514 10.9859 46.3394
14.8094 11.7208 45.7174
14.3085 11.948 46.2492
15.5194 11.4038 45.3327
14.7115 11.6833 43.9026
15.0904 10.1617 44.3178
14.019 11.59 43.2518
14.7806 10.5968 42.431
13.3694 11.4888 44.4709
14.2687 11.6463 46.0081
14.2057 10.7771 45.1053
13.7971 10.9181 42.9636
13.6692 10.0278 42.796
13.3074 10.9182 44.9027
13.5465 11.6152 45.4355
13.4257 10.9369 41.5802
12.791 11.2012 44.9823
13.6069 11.7566 46.2675
12.8158 12.2878 47.7879
13.3913 10.6734 47.7298
13.5382 11.8166 45.9909
13.5567 11.7864 42.3473
12.7125 10.7528 48.0708
12.8891 12.2391 45.9484
12.9093 10.735 42.6434
13.898 11.3613 46.3692
12.8737 11.2658 45.4654
13.8304 11.2633 43.053
12.3083 10.4058 39.9021
14.2057 10.9451 47.3677
13.7948 12.3022 49.052
13.4909 12.3846 50.3781
14.0372 11.1181 42.8102
15.1929 11.8682 45.2709
14.3493 11.8265 49.8774
15.4188 11.4852 48.9713
15.2647 13.0245 47.068
15.1986 11.2614 47.5854
14.7513 12.0196 47.9751
17.1946 12.2188 48.5728
16.1858 11.4516 43.4124
16.7121 0 0