# pn-170911/CsIIA-38-AMC2-1280-1959.psd
# Power spectrum* (dif=0,1,2) (really just |FT|^2)
# NOTE: only the first half! (symmetric)
# weeks: 1280-1959
# 75 clock-days, 174 excluded
# PSD: 1441
75682.6 1.95016 0.0303432
2.06272e+06 37.4146 0.0333148
9.71541e+06 180.115 0.0372762
1.42024e+06 55.6146 0.0363628
1.98378e+06 130.586 0.0425723
691057 68.9601 0.0361126
470152 66.1359 0.0384217
284569 51.6271 0.0465599
227844 56.7475 0.0529739
196124 67.523 0.0570366
171259 62.3945 0.057287
144549 64.1049 0.0643748
110889 62.9358 0.0604707
81956.9 48.3384 0.0741741
71709.5 52.1795 0.0841623
69212.7 60.2038 0.0913823
69373.2 66.3345 0.0938612
58937.7 66.6752 0.124999
51159.7 64.5597 0.139012
40337.5 47.6341 0.119078
38920.4 64.2256 0.133049
27814.1 44.8522 0.129547
36705 60.0958 0.172073
31233.7 64.1292 0.209931
25470.1 54.6803 0.180698
21141.3 50.1403 0.197524
24181.9 60.9217 0.233058
22161.7 62.519 0.245621
20053.7 58.6076 0.239674
21767.3 69.0244 0.337345
18473.6 57.2714 0.264923
13534.5 48.5104 0.250207
17182.8 67.5177 0.367723
14466.7 60.9651 0.368219
11942.4 56.7551 0.319878
15761.3 74.8558 0.469391
12159.1 54.0345 0.376696
13097 64.7914 0.460412
9560.71 56.0924 0.41627
8103.03 49.2463 0.349151
8213 55.419 0.447489
8461.63 54.1201 0.479079
8197.2 61.5233 0.579493
7917.36 55.1988 0.512066
9902.1 67.9217 0.654809
6621.77 51.3758 0.53201
7520.78 55.8772 0.596478
6375.92 57.413 0.62652
6004.97 52.6633 0.611266
5097.07 47.4854 0.571327
4979.33 50.3938 0.64428
6418.02 62.2404 0.801272
4997.09 57.2454 0.787293
5114.46 53.0843 0.770472
4512.4 43.6169 0.619237
4453.55 65.5091 0.956477
4833.91 61.7001 0.938581
4945.14 63.3755 0.989526
4718.1 67.2679 1.11996
3986.42 54.3422 0.894348
3207.7 46.0229 0.834544
3682.45 53.7168 0.977916
3828.13 62.379 1.2301
3532.87 55.2365 1.09889
3632.24 58.3586 1.21582
3339.72 55.2549 1.15121
3347.16 56.4919 1.21177
2810.23 44.1051 1.00811
2543.63 46.7543 1.0564
3115.85 65.3846 1.4902
3255.18 64.6475 1.5601
2779.65 53.8398 1.30435
2809.69 59.8137 1.47133
2603.69 55.4724 1.50174
2805.37 57.8987 1.54675
2355.33 54.3907 1.52747
2475.62 49.672 1.41327
2165.24 51.0499 1.42016
2288.17 54.0969 1.5851
2237.15 57.9431 1.70705
2521.88 57.0208 1.76225
2577.84 62.9009 1.93823
2574.82 60.2016 1.94008
2419.81 68.687 2.31778
2141.33 57.6833 1.91952
2016.89 48.2759 1.62769
2037.69 58.851 2.06788
1890.04 52.7421 1.87562
1804.92 46.116 1.7511
1634.93 53.8688 2.08677
1694.75 51.4772 1.96999
1533.69 44.7889 1.79065
1799.09 57.3465 2.36295
1728.02 56.7583 2.33114
1951.29 59.089 2.57375
1552.41 51.2249 2.1646
1424.24 53.4255 2.40618
1476.34 54.6389 2.52946
1630.29 50.6113 2.35789
1534.9 55.5204 2.71445
1635.55 58.2522 2.87318
1837.22 71.4218 3.46584
1131.48 45.548 2.22365
1269.19 55.8015 2.88852
1437.4 58.3533 3.02758
1336.14 59.3847 3.17262
1703.17 62.1678 3.34333
1401.45 62.8609 3.44432
1546.4 66.9061 3.73984
1071.14 48.4298 2.7989
1185.43 56.4394 3.20781
1077.36 52.1436 3.0543
1192.83 50.3406 3.13816
942.57 46.7328 2.91605
1056.7 53.0771 3.20714
1044.84 51.6271 3.27479
974.671 46.9284 3.09534
1295.88 69.0947 4.38732
985.891 58.7793 3.88543
965.387 53.1003 3.5884
1216.44 59.0263 4.08916
987.136 51.798 3.66188
1020.27 57.7485 4.06908
770.795 45.2663 3.30892
936.652 57.4897 4.3159
922.206 48.358 3.54544
1278.39 70.8749 5.16765
895.569 55.6906 4.18715
918.57 61.293 4.8957
804.909 42.0475 3.32629
835.882 48.7696 3.99939
734.331 47.3701 3.82683
964.861 66.6722 5.49743
784.953 52.1393 4.39909
858.952 53.1932 4.60981
794.945 55.6216 4.82753
796.848 60.0598 5.21073
801.939 59.5133 5.23126
847.331 59.9599 5.51443
744.379 58.7032 5.39864
650.036 50.5085 4.77541
727.677 55.099 5.20494
636.515 46.2453 4.31643
716.215 53.467 5.20706
660.109 53.8817 5.26429
695.224 53.1877 5.32369
734.132 50.8419 5.14862
594.045 42.9717 4.20015
732.709 64.0805 6.65226
619.181 46.9153 4.97307
615.719 48.2336 5.11486
711.541 54.6183 6.06641
591.224 51.9027 5.71823
773.467 73.612 7.99832
586.366 54.7496 6.12922
655.726 58.3706 6.43824
631.812 55.0916 6.15921
579.476 55.5062 6.34304
524.099 43.8168 5.20707
541.265 54.5005 6.49996
601.136 49.1716 5.84734
625.351 56.1355 6.8078
600.644 62.8743 7.84914
530.247 48.6798 6.09178
462.617 45.5226 5.77678
579.637 61.4437 7.78236
626.593 64.8466 8.43429
533.039 53.7573 7.25229
542.363 53.9279 6.80433
507.898 56.6559 7.4299
530.71 59.9762 8.30802
468.694 52.718 7.19733
485.538 53.9413 7.70665
437.837 47.8838 6.71042
557.482 58.5759 8.69334
493.08 51.6776 7.41636
506.339 56.176 8.27762
393.556 53.8642 7.67412
485.709 60.0765 8.86224
433.884 57.7384 8.76458
574.502 67.0901 9.99321
375.264 46.1834 7.18013
457.787 60.4795 9.47924
379.891 47.5861 7.23984
329.808 45.1689 7.0751
431.987 52.4958 8.47145
415.258 62.5881 10.2801
380.368 50.1991 8.40834
352.55 44.0561 7.64452
389.869 58.4399 9.81159
359.121 47.0071 8.02541
365.144 51.5085 8.67367
378.631 47.9579 8.20453
358.402 48.8569 8.48149
339.438 48.8806 8.74458
366.671 51.5974 9.15423
333.374 46.1759 8.08397
351.774 44.5896 8.15503
411.435 53.6957 9.66767
354.995 53.5905 10.3053
341.496 51.8656 9.28391
379.87 51.508 9.70727
287.988 48.6877 9.68754
310.453 44.3422 8.48606
319.799 45.7342 9.07386
343.319 53.2104 10.4017
370.063 52.5907 10.5732
375.64 61.2333 11.8854
308.32 48.402 9.9998
293.819 51.1517 10.2758
291.426 45.4587 9.40288
282.848 43.089 9.062
327.779 49.2599 10.3987
309.103 45.5688 9.47403
267.631 41.0698 9.06442
322.68 52.4613 10.9921
354.574 53.5959 12.0058
289.557 49.0147 10.9557
309.566 54.9025 12.102
309.067 49.8198 10.983
277.45 49.7876 11.4189
289.803 52.7207 11.834
235.094 40.1812 9.41293
238.809 40.8437 9.29003
269.327 45.85 10.6997
295.354 56.2955 13.8306
275.832 50.1615 11.4277
230.227 44.9747 10.767
241.913 42.8983 10.5938
201.003 37.0226 9.03096
239.759 52.7919 13.0152
254.47 52.894 13.0467
213.132 44.2494 11.1938
292.055 57.3186 13.995
266.422 49.9 12.934
236.374 45.2562 11.9407
231.774 38.2934 9.95669
244.723 49.6749 12.8456
233.202 44.8272 11.9773
212.501 43.5663 11.9247
249.655 49.4109 12.9843
242.957 46.8824 12.7327
213.074 43.3119 11.9825
206.817 45.1049 12.5029
237.218 43.7521 12.1311
252.916 53.2852 15.0164
249.232 51.1015 14.2492
241.997 54.6537 15.2594
218.559 42.8872 11.8048
230.805 54.2243 15.8104
209.484 47.334 14.1851
197.647 45.9467 13.6128
186.023 42.0055 12.194
222.519 50.2867 14.8173
236.697 48.4258 13.9216
204.42 46.4651 13.7838
176.419 49.0765 14.8235
224.654 48.1576 14.3662
241.777 51.8856 15.7073
209.114 51.8847 16.0055
167.067 47.4064 14.9974
168.068 36.0487 11.2354
200.667 45.7818 14.5539
189.78 43.4861 14.3716
237.176 54.4666 16.9545
175.058 49.2802 15.976
173.026 41.2018 13.6552
160.87 41.0469 13.8392
203.436 44.4966 13.8954
188.048 48.0979 16.5118
160.481 37.5849 13.0401
175.346 52.3714 18.3605
189.102 47.2631 15.3063
148.977 41.317 14.1282
154.549 38.9156 13.7116
200.599 51.4465 18.3783
148.615 38.5874 13.4212
171.121 47.736 17.1866
195.129 49.6042 17.9674
230.394 64.6338 21.846
171.478 46.9065 16.8924
137.294 41.2574 16.1826
195.85 48.3389 17.2556
144.431 46.1326 16.2876
137.611 38.8936 15.1497
148.653 32.8049 12.2018
171.574 50.4105 18.6994
152.052 40.7833 14.9256
149.95 42.3565 16.8782
177.725 49.5963 18.8299
155.465 49.6767 19.9065
172.234 50.832 19.746
154.853 38.7679 15.0049
132.857 40.1844 16.9215
148.053 45.3612 17.798
139.212 40.7995 16.7912
216.151 56.5112 20.864
133.734 41.6339 16.8662
154.4 47.1421 19.3032
114.077 42.0501 16.7901
140.832 45.6644 18.9993
119.63 34.8067 14.6267
127.683 38.2491 16.1826
147.782 47.0211 19.0174
153.647 46.0675 19.4852
118.719 35.2542 15.2468
133.722 44.6413 18.8745
146.019 46.4019 19.7333
119.027 39.1202 17.8889
123.583 36.1281 16.1766
124.159 44.6563 19.3183
135.529 41.2841 19.328
137.158 41.2667 17.696
121.202 36.0024 16.4695
128.038 47.8733 21.6865
131.895 47.9592 21.9332
119.589 39.0935 18.4726
128.547 44.187 19.4449
130.494 42.8454 20.5296
132.409 44.547 19.6916
129.611 40.1241 18.513
126.669 46.6586 21.2598
141.935 46.0673 21.4054
100.769 36.9745 19.0527
104.684 36.665 17.6317
125.183 39.836 18.6009
114.105 43.0025 21.4886
127.62 46.1402 21.6048
100.757 31.751 17.439
114.695 41.5222 20.4199
144.604 53.2128 24.4861
90.7534 37.2422 19.5185
125.727 42.0523 21.0888
99.8191 34.1128 17.1289
111.308 43.0645 21.6087
115.727 44.6672 22.6433
114.838 40.2229 21.3202
140.151 49.925 24.899
102.993 40.44 21.5465
96.2344 36.1382 18.8747
125.992 42.9277 22.7033
128.025 48.4766 24.8137
90.6964 38.6342 21.6706
87.8755 31.4878 18.1837
110.048 40.4373 21.3449
107.559 38.2042 20.0031
92.8413 40.1316 21.4492
86.7875 33.3416 18.3905
92.4085 39.4127 22.3405
92.7039 40.8078 22.5932
98.2013 36.9115 20.0633
108.112 43.0378 23.3582
119.461 50.2722 28.6837
81.2348 36.257 20.8981
97.8142 39.8097 21.746
94.2318 38.3876 22.4027
93.9892 39.1821 23.9818
84.0018 37.5139 21.2577
103.769 41.2178 23.752
98.499 44.1269 24.2871
85.5333 38.3991 23.4796
89.8105 40.5356 23.7986
76.6944 35.5261 20.2452
97.0938 43.8285 25.9635
90.4215 40.1936 24.4644
78.5527 34.2845 20.2846
89.4355 32.8009 20.5742
86.7419 42.5557 24.7601
91.9875 48.709 29.1956
88.9211 31.078 20.0488
68.2285 30.8373 20.6827
86.6332 39.2901 23.5268
98.316 43.212 27.7433
90.6271 36.3092 22.9653
77.4528 40.0524 24.3012
78.1647 36.394 22.9639
86.1348 45.3157 29.6942
95.3137 45.0829 28.0778
87.0904 35.6862 22.8773
83.1457 39.8211 24.9132
86.4016 40.5351 27.6131
88.3596 41.0926 26.8882
82.8042 37.5647 24.1415
82.6253 36.1012 24.1429
80.9757 40.6983 27.0681
66.4936 28.4868 19.1403
67.6054 32.2224 21.3474
74.9526 34.6559 23.6685
83.3724 45.1395 30.7368
78.7212 37.8976 26.4458
82.4064 35.456 23.4198
66.8041 31.8917 20.7909
69.7427 35.0503 23.1613
79.7177 42.6726 30.1703
83.0858 38.8367 26.3471
68.8362 34.2632 26.1938
88.8382 39.0013 25.7506
72.3768 38.7679 26.7522
67.1476 37.0274 27.7144
83.7895 37.5186 24.8957
70.2764 36.6049 27.5019
65.5018 34.9633 27.0026
63.1296 33.347 22.6895
91.8278 38.9293 28.4159
68.4568 33.7322 24.9996
74.8441 36.2635 25.7838
73.2284 38.7448 27.2031
44.3941 26.6648 21.2539
77.5157 38.2835 26.8738
68.2665 33.9909 24.8491
63.5711 34.4998 25.6834
78.588 40.5977 30.2485
62.7599 35.3807 28.0574
75.4199 41.0357 31.6841
62.1479 35.4844 25.3536
66.8052 34.5752 25.0425
56.4107 37.4454 30.0795
66.9029 39.7742 30.6387
53.1371 29.311 23.5867
59.0441 36.2351 29.7038
72.3375 35.9006 26.5196
53.5011 38.1205 32.2626
67.8104 33.588 23.8954
61.0475 34.9208 28.4249
64.9206 34.8023 25.6242
55.5783 35.4223 29.9082
59.1552 40.1362 32.1073
62.2684 32.855 28.5026
66.3252 34.4431 25.9578
59.3986 31.9872 27.1422
60.2992 34.1106 28.0042
63.0302 33.4886 27.6685
67.8093 36.682 29.8091
56.3249 31.878 25.8635
58.1711 34.8515 28.5809
57.2596 31.5324 26.9802
61.0905 29.8556 25.8787
54.4086 30.6829 27.5472
58.5581 34.6379 28.4655
69.6071 39.1183 32.023
54.3669 34.1148 28.4839
59.8302 32.4717 28.3231
56.3155 33.6912 28.891
54.2441 33.2776 28.1579
43.5793 26.002 25.6494
61.5537 39.2826 30.6684
44.9839 28.5877 27.0967
64.5143 34.1223 28.7799
55.2654 36.5506 30.1333
40.6565 24.4987 21.8918
52.6854 35.4529 30.3275
42.9414 30.1275 28.8316
40.3046 27.2165 26.9879
65.1611 36.8042 30.6663
50.8801 32.3938 29.1243
50.7902 41.8275 37.8251
47.7562 29.1962 27.3424
54.9147 34.4907 32.3839
55.9885 36.2243 30.9082
52.3807 36.3043 35.7466
51.5505 29.6553 25.5076
52.1854 30.5307 30.2742
51.5753 30.097 26.8526
47.9756 32.1816 29.1561
55.4072 28.4506 27.8656
46.1914 29.7866 30.0473
53.9476 33.3943 29.4554
41.442 26.7051 23.9795
44.3754 33.4234 33.852
49.4925 30.7115 29.7149
50.4743 33.004 30.6496
47.1177 35.2249 37.4925
57.5843 34.4637 35.2347
57.873 35.4498 35.1197
57.9413 31.5102 29.6548
53.5137 35.0531 30.8889
49.5499 36.5742 37.3298
54.0032 30.8614 27.6842
41.6193 27.93 29.6935
43.282 28.8122 28.2645
44.6751 34.8271 36.4932
53.5125 34.4502 34.3407
58.6438 36.4778 36.8538
46.433 30.3115 30.8231
51.7867 34.7048 33.4512
42.3754 30.1084 31.0637
51.6459 36.9655 37.4888
45.5394 36.0334 36.8038
53.6566 37.0236 37.9885
48.8705 36.045 36.2062
41.8318 27.0545 31.2962
43.6301 29.5013 27.6303
45.5652 36.0694 38.7389
54.8602 32.669 33.6037
46.1724 33.5397 36.3547
42.3394 29.6315 32.2595
54.143 32.2141 33.2005
44.3334 30.5839 35.4095
51.5676 32.3479 33.9666
47.5183 31.4824 33.8861
47.0286 32.6396 34.6488
49.0665 30.9654 34.8007
45.0576 34.1785 38.3472
42.9272 30.3208 32.2841
40.6642 30.6059 33.8204
40.7588 28.9144 29.5107
35.2802 25.3576 29.0081
37.0992 26.2742 28.4849
37.7285 30.722 35.5647
36.9894 27.6158 31.8295
45.5424 28.0171 28.9776
50.2281 32.8724 36.5898
36.905 33.0375 36.7775
36.9513 28.5129 33.3071
38.2954 28.5073 32.2827
45.0561 29.0446 32.5637
40.4364 28.1374 30.7676
36.1679 29.3103 35.4948
42.9676 31.1122 34.0313
29.0989 28.0261 33.8982
45.2705 27.0115 28.4595
37.128 27.1946 29.4498
32.1418 25.96 30.7773
42.9814 32.3164 37.8212
39.575 33.6942 36.4293
34.7715 25.6793 32.5027
34.5682 31.0185 35.0531
36.5341 32.8513 40.2074
39.6155 29.141 31.0711
31.8131 27.8683 33.7713
32.9094 26.2428 33.465
32.7528 22.9188 27.5979
29.7974 25.3864 32.5564
44.5588 33.2433 39.019
35.0937 34.2701 43.3183
38.5715 25.8773 31.5162
30.6185 25.8047 33.9568
39.9115 29.3508 33.8254
37.8509 26.0896 35.1998
37.5229 34.2477 39.5102
32.7533 29.0636 35.5271
38.1038 30.3298 35.9106
34.9095 27.9921 35.8923
35.9567 29.5132 35.7335
35.4726 29.503 36.5112
33.7421 29.1771 37.275
35.7569 23.7774 31.92
34.0365 31.1844 38.0095
39.9386 34.2887 40.8667
33.0152 29.2396 35.5062
30.0128 27.2289 34.3971
31.4898 23.447 33.0075
33.9308 27.1279 34.7651
36.4519 30.2735 39.9547
31.4837 27.0865 35.8727
36.7563 27.7689 34.6458
35.0263 29.1396 37.534
31.2349 27.5788 36.3815
30.2157 30.23 39.0486
32.6202 30.5338 40.0249
37.2504 25.119 33.6218
29.7119 26.6272 34.8052
34.9858 33.3323 40.9343
26.4681 22.3035 32.3959
30.6171 24.7522 34.441
35.905 30.1912 41.2337
29.1094 24.5759 31.8068
27.4864 23.4119 30.9285
36.8696 28.8489 37.5917
36.4709 33.5739 44.4784
26.9823 29.1803 41.1512
25.3872 23.8347 37.1498
34.7835 24.578 29.3072
32.7136 26.5206 39.3386
32.8428 23.0647 30.1757
22.3848 19.0898 25.7723
26.1772 21.4437 27.1788
30.3417 26.3859 36.9378
23.9388 23.4668 36.0084
27.7459 29.869 41.6117
28.8035 28.1241 38.7058
35.0535 30.5743 39.5803
27.5488 23.9389 31.5446
32.6036 30.5503 43.6556
27.6762 29.5508 42.1349
27.1113 28.9852 42.4197
32.4553 32.4295 47.0018
23.708 25.8118 40.1431
23.0624 22.6056 33.3229
30.6667 26.1041 40.8322
32.4637 27.4403 34.6709
28.96 25.9951 35.5485
28.3759 27.1134 39.522
28.351 28.8196 45.6109
34.5336 30.3181 40.8158
28.0493 28.1886 43.5862
25.2033 22.8788 35.0699
24.0413 19.1303 29.8719
27.1062 20.7303 28.773
28.8627 26.9534 38.3886
23.6309 23.7972 33.0648
25.398 20.5877 30.6798
25.6702 24.095 34.0566
27.4171 27.0724 40.2965
27.8533 28.1823 40.7849
27.2604 25.1287 38.7569
28.0766 23.6405 30.2566
23.3762 23.2781 38.7344
28.699 26.2558 39.5665
28.3942 24.9028 37.138
23.4652 20.5132 34.3759
23.5888 21.2245 34.1778
22.5765 21.7891 32.7739
29.1725 27.2486 42.3943
27.0435 22.9062 32.8162
25.7548 27.843 40.9043
24.0045 27.8581 43.0915
32.9448 30.8635 46.6831
22.8578 21.6329 40.4004
28.1762 29.1588 47.8052
30.0473 28.0154 42.5489
27.7423 27.4546 38.7173
20.8054 24.448 37.507
26.4236 22.6861 36.1636
24.4461 19.4588 32.8147
28.0835 29.6772 44.2527
22.7752 26.8983 46.7805
22.8622 21.9925 36.1575
27.8792 22.8108 33.5001
24.0368 22.8842 37.3707
24.8939 20.7043 35.8359
23.9348 21.3219 30.9034
23.1086 20.4659 32.2213
25.0707 26.8567 39.1926
25.0675 24.027 42.155
22.4815 21.1233 34.8795
19.9316 19.6234 36.1191
21.6076 21.2392 30.9223
20.0955 23.2186 36.4717
22.5972 22.207 39.9815
20.158 20.855 35.22
22.0601 24.3807 41.0824
20.923 21.4969 36.4553
24.367 27.6104 46.951
25.4631 27.7651 46.0835
21.6286 22.8446 39.2316
22.5771 20.8383 36.1386
25.2498 25.8609 40.3299
19.2332 20.972 34.955
19.7482 18.5486 31.3452
20.4603 24.5837 41.029
19.9644 23.1339 42.249
29.3561 31.4794 43.167
17.7503 18.7716 35.406
19.6522 21.7652 36.4167
17.1504 19.5891 34.2363
20.2524 22.1178 43.0052
24.6291 26.799 41.8695
18.4432 20.0722 37.9439
22.3435 22.0783 41.2097
20.9827 25.2619 43.8668
21.9371 22.532 33.9815
17.1764 18.4169 36.1228
16.8406 17.6026 31.8905
20.3913 22.7292 39.2601
19.4519 20.7692 35.5722
21.5601 22.1614 38.8896
24.3692 23.437 39.9593
18.6417 22.3031 40.2883
17.8336 21.4469 39.649
18.9473 21.1089 38.0202
19.0164 22.8471 44.3262
20.881 20.0262 35.5706
19.6649 22.395 38.9519
20.394 22.8915 40.3175
21.4208 23.8892 40.1517
17.7319 22.2889 46.2965
22.6463 21.7946 43.0261
22.0667 21.9954 39.1081
22.1495 23.6303 34.5283
20.4157 20.0536 34.4296
19.8038 26.4019 44.2808
19.561 20.5518 41.1823
21.8149 21.416 37.6129
16.9202 19.551 37.9869
16.8475 21.2725 35.9426
17.9992 20.9171 45.0939
24.626 24.416 40.9396
19.8889 19.1392 38.0154
18.6455 23.2448 43.0273
23.2839 25.3882 42.9593
16.0801 21.7125 41.8167
16.5212 19.4408 35.6977
19.9606 20.6373 41.0515
18.4404 19.982 42.0314
18.784 20.1871 36.5028
16.415 20.5675 43.3483
18.7465 23.0688 41.3593
19.9128 23.0064 40.1896
16.5439 19.0889 41.2732
19.3275 20.6378 36.1966
19.3174 25.011 51.5623
21.0481 22.527 42.6299
17.6884 16.2095 30.6289
20.4937 21.179 41.6169
19.585 19.3159 34.9978
15.0647 18.7175 39.257
18.6098 20.3787 38.8322
20.6845 23.8097 47.3601
20.8396 22.4525 44.2089
18.5433 23.0135 42.5941
21.477 28.911 57.9341
22.8437 22.9216 40.6211
17.7704 18.846 40.4503
14.7085 18.2601 37.947
16.0958 20.5786 39.5061
16.7085 22.4477 41.7188
18.0097 21.4668 41.0819
16.8345 15.6335 33.3034
13.7803 19.241 35.4113
16.3822 19.7221 38.1482
17.6624 19.8256 43.9458
15.4712 18.5087 34.2582
14.627 17.3908 38.3563
16.2482 18.6158 33.4308
14.7973 21.9603 47.686
18.1158 22.6016 49.7123
20.9766 26.0235 46.6867
19.41 19.333 33.9147
17.2192 18.652 42.5816
17.2172 17.3021 35.7227
14.0281 16.3351 34.3975
15.3033 18.3774 37.794
16.6932 19.1464 36.8716
14.7342 19.7655 41.001
14.4468 15.1251 32.5124
14.9802 19.4338 40.8639
14.7748 16.5991 36.6433
16.5294 18.6862 40.7669
18.1799 21.2628 40.1614
16.2956 18.7787 42.0537
17.7738 22.218 46.9078
18.3095 19.4565 36.6936
14.4617 19.3961 46.151
15.5638 20.706 42.5493
14.9788 19.2421 48.9776
19.0249 21.3744 37.4984
16.4186 22.0192 46.72
12.889 18.6986 37.3141
15.3541 20.8102 45.2383
13.86 15.8806 37.4726
17.2723 20.1486 42.3304
15.9992 17.1272 34.8608
16.1139 19.8061 43.7045
16.3703 17.7427 35.208
14.316 18.671 45.399
15.4739 19.4447 36.3733
15.0824 17.5841 35.942
13.4865 17.074 44.526
15.9957 17.3848 34.2984
16.9555 21.3763 49.4322
13.4865 18.9833 38.3899
13.8233 17.5041 40.1937
15.7169 21.1037 46.1797
16.9991 21.1978 43.7668
12.4294 14.1103 36.1451
14.3402 21.7239 50.802
20.3488 21.2752 37.637
13.2099 20.3182 42.0989
13.1145 15.4718 43.1996
17.1295 19.5599 42.0501
15.8455 18.3586 39.1606
12.8455 18.2513 40.9072
11.4751 15.2361 36.1264
14.2225 24.5698 54.7867
15.9909 18.6437 41.0654
14.9011 17.798 42.7557
15.7586 22.9298 45.4735
14.6835 17.4005 35.3362
13.0018 16.1584 43.4496
15.8222 21.8601 48.967
13.5545 17.0703 38.7621
13.7246 20.144 43.1863
13.1295 16.5852 46.0007
17.5647 19.2944 35.3477
12.5909 16.3676 39.1069
14.0766 16.9369 42.1757
13.2693 18.868 37.1662
12.3168 13.744 30.8519
12.1535 18.2986 45.443
16.6732 21.3557 44.7513
13.0896 18.3791 44.3918
13.6713 15.6452 35.9688
16.623 20.0654 41.1485
12.4832 14.6572 37.4379
13.3189 18.5332 41.9048
13.7594 13.9835 33.7819
14.211 20.0104 47.526
10.8415 19.9201 43.8318
15.0969 20.5617 47.4144
15.0698 20.6141 48.0737
12.8513 13.6937 33.9345
12.5692 14.5666 32.4785
11.6865 13.9755 36.4186
13.5015 18.0905 42.1265
11.6752 18.083 45.0876
14.141 22.7485 49.0429
13.2315 17.0154 44.6532
13.1349 15.6149 35.491
10.9838 14.6938 37.5003
14.5083 17.4482 42.3725
14.2121 19.673 43.7084
11.5285 15.361 44.6859
14.7377 16.6587 35.8145
12.5539 17.9637 43.7164
9.53201 15.5435 37.5849
12.7708 19.0426 50.0238
13.305 16.6136 34.4082
12.5707 15.1822 39.136
13.4878 18.4727 43.5608
13.6985 18.6518 39.8714
10.8516 19.3112 52.5064
13.8477 18.7784 42.5766
12.091 18.4528 49.1627
15.0709 18.3488 37.6443
12.2029 16.9788 42.1152
11.3346 17.8285 44.2716
13.8788 16.5863 44.7863
14.2628 19.9442 47.9314
12.8309 14.0894 33.4329
10.3849 19.0395 50.3828
13.05 16.8503 41.8066
10.5288 15.9231 37.4282
10.5875 14.1543 33.7582
12.7086 14.7589 36.517
11.2117 14.9741 36.7515
11.1412 15.2874 40.8481
13.9738 16.4672 40.4186
12.5245 16.9432 44.1058
13.5835 15.2262 36.5041
12.1194 16.7462 42.95
12.408 19.8 51.1945
10.001 15.1655 36.7449
11.7749 14.0544 40.245
14.6506 18.4313 43.5684
10.2818 13.3982 36.9019
10.7178 17.2917 45.6762
13.0147 18.199 39.5126
8.84721 15.163 43.4982
12.1322 14.4539 40.691
12.5523 16.3503 38.3679
12.373 16.0995 44.1185
12.809 19.9313 42.8805
9.58713 13.6816 38.2769
12.1903 17.8179 42.9698
11.5388 17.7691 47.8888
12.023 13.8303 34.7188
10.3741 16.9022 54.4731
14.5119 22.2347 52.5963
10.9 15.4525 40.0656
11.1983 15.885 33.7775
10.9692 15.5978 43.6125
11.4809 18.4354 53.7856
11.8172 15.3339 39.9302
13.0692 13.7063 38.6334
11.8141 16.4273 40.9859
10.6712 17.7141 43.321
12.1141 14.2621 34.471
12.4853 15.5444 39.3408
9.76662 15.01 41.3686
11.8499 14.4427 34.7113
11.3697 15.6803 44.6815
10.6971 12.8582 35.3326
10.5368 12.1173 37.7255
11.0437 14.1719 35.8458
10.2832 13.1672 33.9408
10.0966 15.9116 43.3572
11.5211 15.6548 41.4648
11.9483 13.9383 38.363
10.6393 12.7903 38.3441
12.9165 19.3898 40.708
9.67107 13.1194 36.5871
9.50763 13.9136 31.9039
9.46988 17.6099 47.9069
12.3801 15.0119 43.015
10.4373 14.3146 38.91
10.015 14.5943 42.329
11.962 14.1959 38.5061
10.4491 15.051 38.1867
10.0493 13.0966 34.8865
8.30894 13.2958 38.0216
9.74931 15.1904 47.9407
11.981 15.3323 38.7954
12.0453 15.9781 39.6825
10.5607 12.6156 36.9919
10.7512 10.7714 30.7813
9.59389 10.6341 33.3893
11.7908 18.849 46.7417
11.0627 15.4626 40.7365
9.55195 12.4494 38.3
11.0474 14.2311 39.1725
9.42592 12.7398 36.4485
10.7295 15.8401 38.8023
9.95867 16.8408 45.4501
9.36113 12.9994 41.0927
8.83831 15.4542 43.0156
10.6835 13.4799 37.9394
11.9713 16.0682 39.6834
9.00683 15.0731 39.6425
10.0429 15.3653 46.6656
9.67354 13.5587 40.0656
11.5106 15.3148 49.5127
12.1458 16.1876 42.2882
10.5035 13.9354 38.0388
10.0317 13.4783 40.3275
11.18 16.2941 44.2289
9.23045 14.3925 38.5552
10.0079 14.6456 41.2002
10.2645 14.0639 34.9629
9.12559 13.3354 42.2566
11.6916 14.2345 37.378
10.511 13.285 43.7041
10.0742 13.844 28.6581
7.56892 12.5869 33.7746
8.33769 12.8741 35.5691
7.46628 11.38 39.7525
10.1583 11.513 29.2815
8.76838 10.3209 31.1196
10.4281 11.2773 37.5681
9.91893 12.3569 33.3978
9.74144 15.4247 40.1926
9.34766 13.982 35.5753
8.10498 14.1925 46.067
9.29881 15.0011 43.1739
8.66998 12.7127 43.3935
10.9104 15.2291 40.8455
10.9373 12.9172 35.9982
7.23107 13.1973 45.5949
11.6598 16.4467 46.2511
10.0036 13.2681 34.2005
9.79128 13.4347 41.5986
10.5376 14.7281 37.0298
9.88987 11.7829 41.1464
10.8367 13.1428 39.1967
11.0851 14.3563 47.9555
10.5729 15.6503 42.6018
8.33867 15.4849 41.4932
9.51747 13.341 41.3561
10.9121 13.8351 42.2434
9.08057 14.3306 36.7881
9.31786 13.8225 41.7126
8.38719 13.4665 39.9895
8.58152 12.1069 37.3424
9.09227 11.2047 40.9
11.9298 14.5623 39.1349
9.14769 12.0918 36.2695
10.0297 15.1416 47.9245
9.56447 12.451 33.8901
7.52216 10.0945 35.1461
9.61978 13.441 36.0758
7.94591 14.7928 43.7499
9.82823 11.8641 43.1541
8.77773 10.5962 29.2047
9.07098 10.9521 30.277
9.16072 16.6822 49.8021
10.4442 14.0208 39.156
7.27889 11.5607 38.0218
10.0611 14.4969 40.7541
8.99279 13.4088 44.1934
9.84122 13.9684 40.5632
9.86878 16.3055 51.8085
10.9817 16.5998 41.3877
10.0561 10.804 35.6586
7.91909 12.1279 36.6311
8.44531 11.9124 40.4249
10.5611 12.4443 32.4523
8.0398 12.9532 41.3418
8.3404 11.4902 35.8455
8.11671 10.9454 31.2032
7.55914 9.91001 32.7125
8.97728 13.7108 45.5058
9.94778 14.1342 39.6448
8.67224 12.2532 38.4728
8.45517 14.0784 47.8638
11.2415 17.9559 45.0396
8.28583 12.4647 42.1501
7.3573 12.6344 38.6085
8.29597 9.57652 29.2609
7.69986 11.0666 44.7835
10.4902 13.7184 31.4659
8.26002 9.69505 31.7987
8.89197 12.766 39.8285
8.08733 10.6474 31.3009
7.1894 10.8241 31.2415
8.6775 12.2134 44.1268
8.33393 13.7673 33.3589
8.00135 12.7949 42.0964
8.88519 11.2405 32.0896
9.12726 11.234 36.8711
9.3646 11.3187 33.5005
6.93218 11.0435 37.2586
7.67298 12.5392 38.2737
9.45761 13.7115 42.8522
8.03414 11.7896 35.5915
7.95621 11.6111 41.158
9.15127 12.3316 42.2885
8.01783 11.7691 34.8198
7.80285 10.7202 38.167
8.90661 12.1141 37.0389
6.93495 13.2798 42.9513
8.48242 10.9844 32.7329
8.71848 12.0539 38.2101
8.53843 14.465 43.8152
7.78533 10.323 37.469
6.51223 8.52047 24.711
7.47785 12.2107 35.7696
7.19384 9.60673 32.4703
7.95585 13.5182 43.4739
8.83193 11.8048 35.9952
6.55431 9.50338 38.7583
9.08269 10.5299 28.2195
7.19324 13.3859 42.5984
10.6891 11.6985 35.9156
8.36576 11.7883 38.0231
7.77054 10.6985 36.9527
7.46112 10.6571 37.2379
8.74228 13.0833 39.3921
9.14839 10.4691 38.8722
9.16746 10.8043 29.069
7.59515 12.8913 44.4493
9.51746 11.8288 41.1922
9.07813 13.2687 39.8516
8.20902 12.7496 36.7651
6.64346 10.288 33.0169
7.55609 12.6211 42.6868
8.73502 13.0195 42.9891
7.80818 12.924 42.5526
8.68724 13.3908 37.9791
8.59613 10.8495 44.6228
9.47921 13.1196 39.0646
8.5682 11.9271 48.0476
8.81442 13.3442 33.389
7.15095 12.6566 46.8826
9.19739 11.2903 41.7264
7.92964 13.6343 49.2017
8.23389 14.4972 46.9675
8.38622 13.3239 39.8615
7.95825 10.0525 39.4103
7.89696 13.2798 43.6769
8.33543 12.994 39.2443
6.98005 12.1175 39.8632
8.6589 13.2459 38.0636
6.21985 12.6744 45.0789
9.24527 10.7257 33.9417
7.83139 12.1078 33.8462
6.29295 6.91179 26.1529
6.98007 9.8266 39.8086
7.37262 12.8205 37.4832
8.23317 11.2689 37.155
7.99918 11.909 45.5794
8.81763 14.4906 42.9886
7.67236 9.22925 28.1658
6.52284 9.1375 38.2334
8.33175 9.24542 33.5545
6.13893 12.244 39.4484
7.66251 10.9111 36.4264
6.65496 10.68 33.1208
7.97462 12.8238 42.2609
7.46987 9.04488 33.8485
6.91688 12.3077 37.1791
6.51555 9.84295 39.0014
7.92191 13.145 44.3489
7.82695 10.9982 31.3128
7.08118 10.3875 34.1307
6.70578 8.13841 29.5746
7.28994 11.4532 44.7545
7.77597 10.2077 35.9302
7.44746 9.80849 34.6031
7.87159 9.50937 30.4158
8.21824 12.6685 43.8425
8.93806 11.7853 40.7088
7.58202 8.81363 29.9214
8.3253 11.5166 39.0157
8.17217 10.1452 31.6843
6.15665 9.63415 33.6082
6.43696 9.69607 36.6688
8.28469 11.8648 38.7416
7.90008 11.8695 42.1927
7.62748 13.1421 40.4959
8.41598 11.1644 34.7714
6.67479 10.3134 39.7612
8.30432 12.3071 37.1719
7.18956 9.36989 36.5264
6.85055 8.14835 29.1978
6.78663 11.8458 44.2587
8.55938 13.5416 39.0084
8.11321 10.7295 40.4037
7.07015 11.326 38.714
7.84338 11.075 35.0083
7.40378 9.72196 33.1944
6.83263 7.97771 30.7022
6.4833 11.4301 38.1182
6.95614 9.53978 38.4384
6.68096 10.3037 40.8988
7.56467 14.3295 42.3863
8.39772 11.4126 42.1846
6.91083 9.55563 37.9746
5.91001 11.6847 38.907
7.42126 9.94023 36.6786
8.123 9.93043 37.7567
8.07714 12.2075 33.4968
7.65059 11.3952 42.5551
8.53138 10.6438 30.9021
6.12086 9.2714 38.7433
8.10231 10.9163 32.9629
7.03358 9.16478 33.9901
7.28797 8.83116 27.5062
6.54848 10.5328 37.153
7.30391 10.5926 39.3773
6.40253 8.67414 39.2176
7.08534 10.3346 31.2919
7.88403 9.71548 35.3314
7.92242 12.011 33.0534
6.22218 8.53911 30.0808
6.76264 10.564 35.8137
8.10621 10.6698 40.0202
7.06829 10.1433 40.4052
8.11594 9.82764 37.122
6.54561 11.6758 41.5315
7.41713 10.6997 39.3971
6.82502 10.879 34.647
6.65939 11.6973 37.7271
6.92677 11.6785 45.6617
7.62934 11.9661 42.5546
7.61294 9.59342 30.0892
6.84331 9.08072 33.4084
7.26816 10.0214 39.6957
6.93702 10.3557 29.7082
6.30915 8.97662 38.2015
7.49743 9.17124 34.9814
7.79156 10.7319 38.4994
6.17903 9.63757 31.148
6.89844 10.1834 34.8678
6.53222 9.10473 29.0387
6.43224 9.25839 41.7856
8.13297 12.9853 39.4229
7.08851 11.5759 41.4968
6.88399 8.61608 32.5091
6.52078 9.32022 34.6634
6.72116 9.78795 35.5773
6.81225 11.0523 38.2133
6.76407 12.4951 54.4039
7.62431 12.481 44.9921
6.06648 9.32619 32.0788
5.89649 10.8468 37.7086
6.67439 10.1717 36.6912
6.7296 10.3811 43.8727
6.94146 10.7874 32.8881
7.2381 10.4172 39.721
7.70697 9.32491 27.684
6.51425 8.92908 41.4059
6.1888 10.6749 35.3836
6.101 7.83549 27.5237
6.17314 8.47713 34.3137
6.33502 11.0928 38.6308
7.16084 9.77849 34.0774
6.83912 9.77198 34.4267
7.05932 12.0237 46.8732
7.51942 8.96728 30.5009
6.06464 8.30108 35.8505
6.80979 11.5391 33.3903
6.68277 8.181 31.2247
6.07467 10.8318 50.922
8.006 12.0525 32.2621
7.2935 9.52656 31.9713
6.6845 11.1131 46.6056
7.92434 9.63971 37.3086
6.98005 10.4193 35.1349
7.43202 9.19857 30.6533
6.86051 8.21451 34.8311
6.78223 9.17802 35.1729
5.82481 7.98743 25.5363
5.84844 7.32169 25.8769
6.48626 9.51322 36.1389
5.87012 11.3729 47.5037
6.82286 9.2952 31.2878
5.70848 9.0209 30.7812
6.95314 9.27902 33.1088
5.78894 9.76705 42.6597
6.87074 10.2258 37.0206
7.3426 11.832 35.3251
6.75966 9.91616 39.6218
6.47964 8.18301 30.5318
7.43997 10.5449 35.2025
6.26904 8.09356 32.7547
6.59438 10.456 42.8529
7.1306 11.4199 42.0606
7.9033 10.9579 35.9965
5.38146 8.13545 30.2079
6.03522 9.05953 38.8127
7.3341 8.56342 31.2665
5.37974 9.08832 32.1837
5.8012 10.1379 38.2393
7.29046 9.39268 33.9802
6.75048 10.8867 43.6067
7.10741 9.06063 38.3765
7.16117 9.73094 29.1578
5.96688 9.19963 34.6508
6.82627 9.29224 34.9067
5.76337 7.83274 34.1933
7.40533 11.5307 41.0888
6.95373 10.1456 37.6304
6.44502 9.30298 33.2644
6.4504 8.4577 29.1775
5.63814 8.57079 33.8183
4.89521 8.71966 36.1701
6.20861 9.3972 33.71
6.25399 10.1216 38.9574
6.67554 8.00775 33.6537
5.65177 8.94648 32.4085
6.69159 11.5478 37.8993
6.34306 9.04852 32.2983
6.35003 6.87107 31.3729
5.83179 10.8671 36.0674
6.30795 8.29473 34.6942
5.6526 10.1806 44.5929
6.94006 9.6574 34.0017
5.52477 8.31763 27.9131
6.25429 8.87994 32.5577
5.73695 8.53477 34.279
7.08703 7.35561 26.612
5.16304 8.31768 40.0677
6.28516 11.2924 29.7889
5.88766 7.34605 30.7018
6.74678 7.52432 34.9536
7.4264 9.61015 33.236
6.54712 8.87465 31.0773
5.34773 10.1427 38.1276
5.9781 7.86375 27.4762
5.01309 7.25097 29.6574
5.29026 8.10651 35.9304
6.06025 9.27142 30.7485
6.43685 10.0761 39.4836
6.55871 8.46837 31.8792
5.75591 7.20529 33.4439
6.81134 10.0999 31.1369
5.63901 10.0526 37.8031
5.56866 9.18919 31.8696
6.19213 8.70707 34.3621
6.48969 11.7865 40.6913
5.94303 8.04462 35.9833
6.28383 10.2999 39.5529
6.27305 8.49249 33.5812
7.01899 9.68471 34.7089
6.2862 7.83923 33.5598
5.26562 8.65031 28.296
4.98218 6.90769 30.5169
6.09304 8.07279 28.591
5.49549 9.36008 35.936
7.36887 7.77922 34.485
5.1876 9.397 28.6999
6.17573 8.73195 42.6535
6.64199 9.01905 32.002
6.23449 10.4558 39.7078
6.9111 8.58163 33.1857
5.90578 8.93627 39.8485
6.95696 10.3456 41.1406
6.14066 11.3151 39.4802
6.94363 9.58967 30.3953
6.27986 9.47292 41.9256
6.28886 9.6734 33.9212
6.79098 10.6005 39.4192
5.86734 9.32548 34.837
5.85195 9.67236 37.7069
6.02686 8.64623 33.0486
6.19719 9.57014 36.7107
6.35975 9.37432 32.8582
5.94688 7.60343 36.7279
6.37317 9.11288 32.9365
6.32123 9.68322 40.5251
6.4637 10.2379 39.8106
6.49892 8.67487 29.4824
5.51664 6.35207 27.307
6.05337 7.28499 31.4401
6.27453 7.44548 29.8228
5.67709 8.36682 36.9401
6.25604 9.21189 38.8776
6.14134 10.3257 34.1044
5.98784 9.61555 35.3084
5.94689 7.01087 30.858
5.92452 7.41476 27.9904
6.11417 7.6479 22.4995
5.05888 7.7823 29.3222
5.83171 8.7793 34.9032
5.45862 9.78585 39.2558
5.02552 8.81932 36.2202
6.43672 10.4203 33.9172
5.97104 6.69983 29.4028
5.3265 8.55286 32.8644
6.29791 7.70622 36.6368
6.96893 10.0894 32.1651
5.82699 8.32893 32.1057
5.49521 7.67381 35.7316
6.2675 9.45835 35.1806
6.11767 7.4861 25.2252
4.6539 8.49458 39.609
6.50505 8.67819 30.2962
5.62477 8.36311 37.6137
5.21853 8.52464 30.2349
5.43587 8.73855 35.3821
5.34002 9.31133 34.2681
6.33425 9.4204 41.4118
6.88248 10.0053 38.704
5.64691 9.94221 31.0101
6.26823 7.94373 30.717
6.17768 8.3895 34.2531
6.22765 8.10798 30.74
6.15418 7.87479 29.9035
5.68836 9.48125 37.7002
5.76209 7.62693 31.0022
5.78717 9.90734 44.1209
6.96838 8.09536 32.7221
5.82957 8.93965 40.6158
6.86817 10.1044 32.6111
5.89017 8.07251 39.2305
5.9808 10.9919 38.848
6.42632 9.04376 35.1361
5.31245 8.12053 24.2849
5.07022 7.79914 35.3048
5.71561 9.48 33.1362
6.32391 8.12457 35.9007
6.39002 8.0574 33.2507
6.46766 6.37215 32.9654
5.66256 8.04485 25.7299
4.80698 9.38758 36.4506
5.97729 7.99956 37.4465
5.96675 8.99871 30.888
6.0198 9.19617 31.4357
5.54597 7.80563 26.8518
5.59382 7.66234 39.2073
6.5984 7.63845 33.338
5.55209 9.5119 32.0564
5.67013 9.241 32.855
5.79713 7.72608 26.4807
5.43934 7.44242 33.6616
6.4088 8.17669 36.5156
6.1411 9.20748 27.9453
4.69642 7.10271 35.413
5.75865 8.34177 35.548
5.74798 10.2828 34.699
5.38146 8.02821 26.1703
5.47226 8.05758 37.7813
5.79788 8.47958 33.8125
5.66875 8.80833 38.279
6.0383 9.90633 33.2813
5.89717 7.27216 30.7173
4.139 7.94698 34.8143
6.56786 7.7353 29.416
5.9556 7.89823 36.2577
6.00756 9.33596 36.5128
6.70307 9.06563 35.8283
5.89377 8.39412 28.9541
5.69772 8.78946 36.0828
6.10403 7.98315 37.5239
6.38625 10.1501 35.7037
6.03837 8.70154 40.5041
6.54116 9.79116 37.468
5.46872 8.6931 31.7809
6.0331 7.22033 32.9483
6.26515 7.96207 28.8596
5.26399 6.2156 27.3735
5.30138 8.9398 26.6842
5.99578 6.29663 33.32
5.07094 7.94258 34.5096
6.14752 8.14564 21.8441
5.20518 7.50658 29.4538
6.02672 7.03554 33.141
6.24215 6.90276 29.5186
5.65834 8.95197 34.3844
5.42223 8.94487 36.4559
5.40932 8.51116 32.6809
5.6074 8.90277 29.7338
6.06288 8.3769 36.9522
5.29983 10.0441 38.67
6.62478 7.68045 31.4854
5.58449 7.32488 31.7896
5.48372 9.19164 32.2429
5.83623 7.17689 29.8552
5.82058 8.4051 32.0135
6.31455 9.0069 36.8504
6.5493 7.98041 33.5459
6.18924 8.86934 27.7848
4.75739 8.30782 39.4109
5.98419 8.37805 28.0135
5.22374 7.70596 29.1312
5.58178 6.95272 30.6239
5.50194 8.04932 27.678
5.36994 8.44046 34.3765
6.37447 9.16881 44.4111
6.30997 9.28385 35.8043
6.07892 8.48795 37.4355
6.41117 10.1596 41.4129
6.56366 9.60222 33.4437
5.69966 8.09261 29.7369
4.81796 8.70835 32.5783
5.81757 7.92428 25.9158
5.37595 6.37335 24.6096
5.53779 7.08856 33.0463
5.76497 6.04648 28.7308
6.35862 8.58294 40.0004
5.61457 9.60552 31.3964
5.31771 8.08931 35.6822
5.85275 7.82604 42.1223
6.58274 12.3885 35.9194
4.85561 7.82841 26.4033
5.68225 7.4944 34.2052
6.02585 8.4934 35.4766
6.00992 10.6926 41.6508
6.05056 10.4453 38.9925
5.96819 8.31595 30.9756
5.9271 6.10016 33.8164
5.31703 6.92431 30.5975
5.17663 8.22239 36.7531
5.85504 9.40552 34.2607
5.48529 10.2282 41.4885
7.01852 9.02016 32.4777
5.17718 8.02266 29.4474
5.75698 8.68269 37.1043
5.84166 8.4185 32.542
5.90866 7.88662 32.5267
5.74327 8.90109 34.2239
6.69654 9.07421 38.7539
6.1301 9.4145 41.3632
6.53996 9.39853 28.6445
5.45358 9.07441 33.2486
4.86429 9.97732 36.2068
6.10481 9.16737 48.0767
6.84594 10.6122 31.825
5.95544 7.8344 37.8111
5.76191 9.67805 44.5072
6.84709 0 0