# pn-170911/CsIIA-av-TWTF-1280-1959.psd
# Power spectrum* (dif=0,1,2) (really just |FT|^2)
# NOTE: only the first half! (symmetric)
# weeks: 1280-1959
# 53 clock-days, 16 excluded
# PSD: 1441
69284 1.72446 0.0352145
2.03842e+06 32.9091 0.0303301
1.19429e+07 251.773 0.0313623
1.76692e+06 66.0424 0.0261127
1.23242e+06 81.3867 0.0406767
612120 52.5602 0.0281588
443425 61.5704 0.0348353
312719 62.9864 0.0413629
240925 63.2523 0.0434734
196199 53.3491 0.0586456
149226 54.3532 0.0619169
110800 55.4244 0.0548147
99630.9 55.4988 0.058377
90117.9 59.1989 0.0827662
67892.3 49.8739 0.068196
72723.1 65.0392 0.0860006
52968.8 50.1885 0.093368
50697.4 58.014 0.105551
47241.1 62.2595 0.123789
32835.9 48.8057 0.116087
44550.2 65.4369 0.159327
34759.7 55.0989 0.150795
35260 63.2351 0.159535
21854.1 45.5345 0.13727
32077.8 67.2134 0.220562
20703.8 57.3176 0.192373
26361.1 62.4021 0.222408
20490.8 54.4932 0.204065
19137.8 62.1169 0.242484
13796.4 47.1516 0.195401
15683 56.5319 0.289066
13785.2 50.5645 0.247824
14666.5 54.7488 0.259648
11017.4 50.6893 0.276533
12495.8 57.7788 0.36407
12037.7 56.0315 0.389185
12318.5 62.3137 0.403898
8954.36 39.1153 0.263152
11238.8 54.1911 0.397954
8934.62 47.0708 0.372066
12415.1 77.7757 0.602034
8382.78 55.128 0.471193
8247.81 60.0746 0.503546
7739.25 61.578 0.553827
10348.2 74.6115 0.670261
9429.14 73.8363 0.79364
6901.04 51.3416 0.557271
8298.64 69.4279 0.807984
5358.14 46.1534 0.54294
5580.03 46.3537 0.556293
6862.09 58.8742 0.746178
6265.58 50.2571 0.699461
5874.85 57.4239 0.731741
5636.41 62.1278 0.888195
6528.74 68.6438 1.02164
4627.31 50.7744 0.698702
5016.99 62.0478 0.961919
4359.22 58.9965 0.991618
3653.43 49.2761 0.764028
4141.7 44.4036 0.745331
3937.97 57.9207 1.04036
4159.18 62.038 1.10315
3790.39 60.509 1.13353
4202.48 60.8125 1.135
4626.15 75.9912 1.59859
3389.03 52.7684 1.1041
3293.23 59.0397 1.19253
3685.25 48.2535 1.0357
2879.67 45.2294 1.04361
2614.03 43.2155 1.00125
3129.75 64.0209 1.49727
3070.77 62.0132 1.55508
3132.14 63.311 1.58056
2639.53 54.4407 1.32351
2648.85 55.6732 1.52609
2526.79 48.6044 1.30033
2627.42 56.7552 1.59598
1968.38 47.4096 1.3484
2647.08 58.5253 1.70176
1770.85 41.3017 1.22811
2284.17 52.2683 1.67171
2113.89 51.83 1.59032
2078.55 53.5472 1.75432
2618.13 66.8081 2.21344
1930.42 53.7794 1.8865
2442.22 68.4054 2.44124
1910.44 50.6214 1.83217
1938.57 49.8882 1.77412
1934.37 57.1431 2.0576
1925.97 57.8182 2.15684
1757.41 57.7789 2.18688
1539.57 50.2433 2.00877
1780.18 51.1067 2.12558
1622.24 60.4925 2.48923
2220.74 73.6528 3.16083
1929.57 65.2394 2.84856
1599.79 46.7141 2.06726
1527.23 50.9046 2.36609
1160.77 43.6335 2.05039
1415.72 55.7531 2.53082
1776.01 64.7014 3.14061
1391.41 49.776 2.31911
1372.57 56.4605 2.83322
1303.19 52.014 2.68827
1547.08 56.7741 2.91075
1285.23 61.7567 3.17024
1150.95 49.0203 2.54248
1140.7 41.4014 2.14708
1078.17 46.323 2.64477
1319.49 62.8026 3.3747
1262.41 57.8799 3.4758
1234.53 61.855 3.73414
1258.43 59.9598 3.51746
1070.16 44.6688 2.80321
1227.33 62.7011 3.75491
961.026 46.5163 2.96551
857.135 44.7852 2.84688
1061.22 60.3054 3.99686
870.895 51.5585 3.40776
842.831 45.8717 3.09336
996.697 55.244 3.88568
805.286 40.4941 2.79843
830.768 45.5675 3.36318
1061.35 52.9019 3.64237
933.919 41.6191 2.96633
1060.34 57.9991 4.21302
943.069 54.5469 4.17803
924.93 63.7062 4.83089
863.155 48.9378 3.82267
812.702 49.1696 3.99081
783.434 54.7635 4.54675
789.578 55.6519 4.5449
757.91 44.8855 3.55281
905.139 58.5984 5.0699
684.924 46.1363 4.01313
807.565 47.421 4.14874
955.955 64.254 5.69873
876.315 61.3734 5.2095
661.215 42.821 3.97255
922.669 62.2235 5.8306
761.15 56.8446 5.0321
757.289 54.4075 5.12902
657.215 51.8943 5.15988
633.938 44.1305 4.11666
623.924 49.8115 4.86279
621.568 51.8529 5.28479
674.385 47.6587 4.884
795.918 61.766 6.24929
434.025 40.1813 4.26082
594.1 44.8859 4.67723
584.104 49.6929 5.27004
608.66 52.6099 5.7467
655.798 58.8137 6.44313
493.81 39.7004 4.25212
537 43.4059 4.83834
524.576 42.8583 5.01981
631.698 52.5327 5.98479
576.34 51.1162 5.97309
334.683 34.846 4.24081
601.829 51.307 6.15993
585.714 48.4452 5.83738
560.137 51.4419 6.20235
577.16 63.7523 8.06259
529.735 52.0673 6.16727
435.607 43.602 5.49431
515.475 56.8623 7.62594
479.762 43.9024 5.68508
424.228 41.8483 5.41354
458.398 49.1558 6.40242
538.054 57.2959 7.66147
482.475 52.4844 6.98703
459.169 50.58 7.10731
336.639 30.6832 4.45436
479.431 44.4582 6.00459
404.711 45.5289 6.59148
579.204 59.0235 8.2748
410.673 46.745 6.84748
461.458 52.2049 7.64141
329.016 43.0137 6.62963
342.404 43.4042 6.56127
372.983 46.0607 7.10627
321.265 43.1759 6.74827
426.075 51.2433 8.02845
467.947 52.4936 7.98828
437.646 47.174 7.62589
417.992 55.7363 9.16471
324.563 42.1526 6.59554
349.745 52.3025 8.86736
337.881 43.6637 7.01088
428.716 48.268 8.4079
557.909 59.234 9.74934
347.783 39.49 6.94175
559.911 71.1148 12.1666
352.902 50.137 8.59199
338.697 48.7002 8.78511
379.775 47.3468 8.95187
311.367 46.9265 8.34715
256.524 36.334 6.57431
353.771 47.6924 8.90988
399.859 49.6185 9.19611
306.95 41.6293 7.96104
309.586 54.1295 10.1724
360.32 51.2845 10.0343
346.942 48.2967 8.99006
286.605 50.5467 9.82488
256.713 47.8618 9.6564
357.698 47.2183 8.91251
323.968 51.1674 10.362
282.048 43.2525 9.16355
323.002 49.84 9.75011
279.569 46.0989 9.65389
282.786 46.5179 9.68626
335.184 52.0031 11.0896
259.439 41.708 8.94362
270.736 50.1691 11.1422
311.94 44.7219 9.59585
300.049 51.6198 10.9046
291.243 43.7904 9.63319
331.774 57.1035 12.3421
276.057 48.7764 11.0442
197.363 37.347 8.80021
235.044 39.975 8.87552
302.524 51.9805 11.8356
216.991 40.6257 9.39164
242.365 40.995 9.55253
274.051 43.7893 10.148
282.082 46.6114 10.9315
282.419 47.0024 11.9189
249.958 51.59 12.1953
267.304 45.6206 11.2087
195.872 34.2102 8.034
200.846 35.0679 8.61166
230.847 44.394 11.0019
211.775 42.5756 11.6455
204.917 42.5806 10.9053
238.874 46.7326 12.0944
273.444 48.4454 12.0044
303.807 59.5253 14.9311
182.764 33.3708 9.04642
209.697 41.1642 11.0326
188.555 39.8077 10.3298
218.441 49.3251 13.585
195.397 33.0408 8.6572
209.057 52.6555 14.6003
205.315 45.1018 12.7609
220.441 38.4517 10.4475
249.311 47.1991 13.0694
228.118 49.6381 14.8158
187.212 41.3201 12.0955
208.952 43.4939 12.8084
259.015 48.2498 13.6161
200.57 40.0698 11.1717
190.488 39.5723 10.9959
218.406 42.5189 13.1603
200.562 50.5581 14.9656
236.559 46.2495 13.803
193.458 43.1039 13.1894
207.832 46.9863 13.9567
196.723 39.6614 11.8368
174.927 40.9399 13.1387
188.019 42.0996 13.9911
169.483 43.2109 13.0758
159.716 42.7025 14.1843
225.891 48.9893 15.5798
155.402 37.3537 11.9536
146.558 40.4621 13.5972
123.811 26.8205 8.38273
127.63 30.2967 9.99828
127.927 35.5181 12.4136
172.148 42.3075 14.003
171.301 43.4946 14.2698
179.881 44.0305 14.6783
163.71 37.96 12.6113
160.44 46.2842 16.5072
169.376 43.9508 14.8164
144.459 31.37 10.8395
139.586 33.4476 12.746
142.515 31.6813 10.5824
153.302 42.9064 15.8515
183.709 49.5132 18.1886
152.459 42.457 15.0092
149.008 34.1181 12.6501
152.715 45.4379 16.7119
159.264 41.3063 14.6302
101.11 27.7228 10.8529
132.024 32.1513 11.5066
110.483 31.4452 12.1626
148.879 42.3821 15.9411
160.663 44.1601 16.8192
134.417 37.8593 14.1103
143.384 46.303 18.5368
147.587 40.074 15.3975
133.956 37.5803 14.276
128.568 36.8302 14.5403
123.425 33.8836 13.804
111.943 29.3233 11.8775
114.996 29.2547 11.556
120.783 32.6388 12.5326
105.94 35.8452 16.0616
143.817 38.9169 14.7217
101.57 24.8166 10.4346
121.642 32.1622 13.7858
109.48 39.2402 16.3302
128.609 34.0391 13.8961
122.244 33.1397 14.7145
142.674 49.2192 21.1129
124.82 36.5555 15.5663
120.341 39.0083 16.1336
110.234 34.2551 15.8538
109.381 35.5016 15.4995
110.002 29.1626 13.8547
121.71 32.1161 14.8205
142.768 48.5143 20.8375
127.292 41.0025 17.2371
142.375 40.0327 17.6974
114.443 37.8208 16.8636
105.705 31.232 13.6959
115.121 34.1892 15.1611
115.229 43.1085 20.625
139.084 48.7457 23.2829
116.926 38.5179 17.9698
104.953 40.7645 20.4579
116.259 33.8093 16.075
110.527 38.726 18.7201
112.313 37.7363 17.5802
89.6899 31.8813 15.3808
92.4857 33.1338 15.2144
114.113 37.1597 18.5427
85.6024 24.9946 13.304
127.379 43.8757 21.1686
104.833 37.0733 18.408
94.8278 33.9688 15.9892
98.6171 37.8466 18.8502
101.991 34.4883 17.1435
100.383 38.1928 20.8226
107.841 37.2077 17.8872
86.7978 32.4875 17.6348
117.518 34.4353 16.6096
108.584 41.5831 21.8669
96.8115 32.6639 17.189
83.1795 29.38 15.7177
92.2461 34.8422 19.6797
94.7943 38.8874 19.5186
96.8918 34.0743 18.4505
105.407 38.4134 20.3161
100.693 42.6214 22.3048
93.3531 32.1422 17.2846
83.9944 36.6167 21.3749
80.2635 36.3981 20.2305
79.0013 31.1137 17.0685
88.7236 36.5361 20.266
94.9251 33.9468 18.4416
117.323 42.2795 23.1292
64.706 26.8807 16.0783
92.4555 39.2485 20.2387
79.9096 37.452 21.74
70.4821 34.67 21.2132
105.616 47.5814 26.9902
100.146 40.4226 22.879
84.4742 30.2948 17.6637
71.5361 24.3229 14.9494
95.8742 34.6859 18.3617
86.094 39.063 23.5734
82.1376 38.5746 22.3007
92.0283 38.6521 22.445
63.3809 30.2491 19.0613
84.6599 39.0782 24.8091
85.2746 40.99 24.5079
93.8804 34.3181 21.47
68.6488 27.7512 16.9407
77.5986 33.167 20.4647
86.4608 40.8893 24.1345
89.7667 34.3198 21.4194
77.2945 36.3654 23.3242
76.5729 34.1889 20.7734
71.1993 32.1905 21.3157
78.6785 33.836 20.671
61.4708 26.5161 16.654
75.9521 38.8902 25.1072
64.1045 31.4202 21.1493
70.9062 29.5081 18.835
93.5272 42.056 26.8019
77.79 41.9495 26.1889
75.862 38.3753 26.0656
75.0105 29.601 20.3972
67.4064 34.9639 22.8519
85.5914 36.445 24.5616
75.3755 38.9881 26.6128
66.0015 30.0898 20.3899
64.2752 30.0352 20.5548
63.0657 33.9107 24.9383
72.5852 32.3513 23.0585
72.8181 37.5885 26.5251
74.0174 26.6074 19.2782
70.0769 35.9038 23.4987
58.3281 29.8989 19.6812
73.179 32.621 23.96
71.2019 37.0695 25.3267
59.7999 25.8815 18.451
69.3508 34.1121 25.4474
76.2755 33.965 22.0132
64.1053 31.1345 21.9772
78.5338 45.1877 31.5228
57.9392 34.0591 23.7123
53.6913 30.0177 24.3858
77.6522 40.3353 26.4941
57.9967 33.8291 25.0337
57.8748 30.0058 23.1986
59.5924 28.3028 22.5454
51.5293 28.6866 23.2626
75.4808 36.2374 25.4466
65.1329 30.7688 23.3543
66.404 24.4728 16.6567
76.3711 35.1397 26.7662
59.4733 32.9815 24.8424
52.3621 39.4075 28.9477
60.2982 33.2225 27.2328
52.1651 27.5314 19.2615
52.7109 29.2627 22.8466
55.5112 32.9221 25.1763
60.1337 32.1717 24.5128
46.4959 36.5005 34.0388
64.4526 27.6837 20.2103
67.1176 34.429 26.099
52.4002 27.74 20.2684
64.2762 32.4799 27.7631
63.2583 30.7401 24.9569
42.8273 27.0582 21.9246
62.1821 34.06 28.4225
57.5027 27.5611 21.8234
55.6606 25.3475 20.625
53.9738 36.7675 28.4936
42.9438 25.4261 22.2618
62.6099 28.5488 20.6006
50.8411 29.1265 25.0652
61.1072 37.8736 32.0676
51.1495 33.0841 27.6749
55.4061 28.4844 23.44
47.2894 28.9268 23.6411
49.3967 27.913 26.1847
54.1585 27.1986 21.8168
53.3356 26.6527 22.3789
51.8085 24.5079 21.7833
50.5704 24.6785 21.2617
52.3285 25.3497 21.4033
52.4868 32.6977 29.7847
42.5344 26.3778 21.2995
46.9966 32.4418 28.8553
57.2254 28.6166 25.2596
48.5826 34.7556 31.1377
44.8487 28.6597 26.1937
42.7737 29.1079 24.7872
55.4531 36.4468 32.4581
41.4656 28.0692 27.6742
57.4338 32.5404 29.6419
56.7703 34.0854 31.3684
44.6606 26.1401 22.4426
41.115 26.9552 24.409
41.5005 23.2867 23.7692
49.973 26.8267 24.0913
50.3208 36.2466 32.885
55.5978 35.3435 31.4495
35.3613 20.6106 21.8625
50.0212 29.3873 27.6014
41.3934 25.8743 23.1545
44.3018 29.2268 26.6019
45.0212 33.9737 33.2092
45.2292 26.8002 25.2324
49.721 26.1638 26.2875
42.4078 27.2161 22.7145
38.4768 25.3761 25.9293
43.2507 27.637 27.4904
46.2725 29.8157 27.9941
35.6252 20.4342 19.8445
41.5145 27.4834 26.9614
45.2684 25.9269 24.3696
46.4412 28.23 28.4526
45.6211 25.6354 25.2219
39.7081 25.9587 24.8307
41.1422 24.5821 22.1689
39.4127 28.4169 29.7306
50.4349 32.9989 32.6628
45.7505 29.6239 30.5312
36.541 27.5737 27.4361
30.955 24.196 27.2764
42.0678 28.4161 28.86
47.6041 29.3114 29.5115
35.2429 26.8791 27.9484
41.568 25.7999 26.2392
43.6373 31.9111 29.9141
29.6505 17.7516 19.8648
35.7913 25.7343 25.5912
39.5399 24.8401 28.1247
44.9654 30.4893 29.2664
28.1907 21.4632 25.13
34.5959 24.4256 28.7984
38.6314 30.489 29.9677
41.0007 28.4633 32.2653
42.5349 27.1565 26.3848
39.3705 27.6684 28.4823
39.9359 30.6094 31.1575
37.7976 37.0486 42.2687
48.2485 33.4595 38.172
37.8069 22.2821 22.1432
35.0912 27.0571 35.0486
52.8907 35.2091 34.7904
38.8431 27.7864 31.1308
33.3035 22.9387 24.1656
35.2321 27.9921 30.2547
34.3859 25.3556 31.9727
37.6167 22.9902 23.0622
41.022 30.9352 30.1724
26.1938 22.2891 28.9409
35.9235 23.8978 26.5981
32.6515 23.297 30.3549
37.7208 29.659 29.3151
32.4722 24.4811 26.2932
33.4559 22.8545 26.3871
32.0842 24.7126 25.9632
28.9848 26.0574 32.8555
36.3231 27.3155 31.1105
31.5598 22.4456 25.6701
35.1864 28.4877 35.6611
35.1094 16.6567 18.1445
26.8322 20.6667 28.5278
38.566 27.2557 31.2315
34.9915 23.9487 30.6746
32.1085 26.7792 28.1772
34.2778 24.5689 29.7898
36.1318 26.2094 28.4647
32.2074 21.0308 23.5983
27.9029 29.1388 35.4937
25.5186 20.535 24.8026
28.2222 16.4226 21.5539
34.5036 25.1485 30.5878
34.6976 28.0312 32.0772
28.5961 20.8589 27.2692
39.0881 31.1824 38.4425
36.3432 29.4665 32.692
30.966 25.2982 33.8106
31.3646 21.0879 23.8663
27.1281 22.7609 32.4899
37.9524 33.2893 38.7926
34.8367 29.677 38.3021
27.6976 22.4194 26.0349
32.2938 23.4097 27.2531
28.507 21.9513 30.2246
27.4294 19.5004 27.3032
30.0308 19.7898 22.4617
25.0084 22.3174 28.0799
37.3913 30.1346 36.7184
37.8174 31.0627 41.31
35.5782 28.1765 34.3804
22.2358 23.9986 33.5431
24.4264 16.4858 23.9865
29.8267 23.3027 26.9538
26.5389 21.3323 30.6638
37.4458 28.6779 32.1626
23.111 21.7701 28.3487
27.0674 17.7582 22.8257
25.1434 24.2491 34.8528
27.0842 20.5154 26.6438
21.1105 27.3385 37.8356
33.5474 32.254 45.3395
35.5319 24.4049 31.0697
29.3308 23.5536 30.8887
27.2826 22.6828 30.2212
31.1075 23.1844 28.669
29.8992 27.9457 38.9998
29.9383 28.2252 41.5777
26.6433 21.8385 27.1312
26.1019 21.0964 33.1954
33.0739 27.3055 33.579
31.2 25.4832 35.2464
34.5852 28.8359 38.6811
28.924 20.6094 29.3619
34.2055 31.0807 40.8838
32.1632 29.9634 36.6488
23.6487 19.2226 31.2274
32.7164 25.5661 36.4433
28.5851 27.5282 33.4695
24.577 26.3528 40.1914
25.3452 22.6436 36.7994
29.948 28.5211 35.0027
22.2247 18.5178 28.3951
24.5449 24.3728 36.2691
31.0982 23.9826 32.1728
23.638 17.068 24.2027
28.398 25.4152 37.824
20.7333 16.7023 24.1055
23.2496 22.8315 33.7453
30.7395 22.9318 29.7021
27.5592 21.8662 31.7388
25.5005 21.1768 30.3933
27.1018 25.7758 41.1998
21.9681 20.0668 26.3412
21.6029 22.6652 35.4222
24.6458 18.8748 31.1196
32.7344 28.0141 38.905
21.6489 24.2482 34.1453
27.3704 21.9982 34.7714
29.3195 25.6853 38.1706
24.3742 23.0546 34.1907
21.9044 19.9553 31.4449
25.5308 20.8533 25.317
22.8919 17.081 26.4519
27.0703 24.7401 36.1298
22.6239 21.3851 34.1227
24.9636 24.0684 36.1294
31.8897 23.0861 33.6853
22.8906 24.2477 36.7266
30.8789 27.8233 39.3535
25.5836 29.1123 44.654
26.8326 21.2208 29.8709
21.0839 22.0467 37.3497
20.2818 17.9007 30.0937
20.8118 19.522 30.2102
23.2234 17.7439 26.3841
18.0618 13.4716 24.9356
22.8781 21.7047 30.1609
22.5827 18.7838 27.2017
27.413 25.694 44.2523
25.3016 19.012 29.4931
26.2806 23.7448 41.4199
29.5347 28.6325 42.3696
22.217 21.4329 32.0532
19.92 23.8041 40.7665
18.538 14.5552 29.2537
21.1484 21.7589 33.1691
22.9549 20.3811 29.0161
22.7018 19.6137 29.0594
20.9689 19.4143 31.8046
22.6479 24.4563 40.5412
19.3198 20.9385 38.2147
27.4256 19.5709 28.8069
22.3133 22.056 32.253
17.3787 17.8192 34.1539
23.6386 19.9162 25.6664
15.4703 18.1257 34.7242
23.2737 23.951 39.4977
20.4015 20.867 37.0704
25.1279 25.3863 37.8341
21.7436 21.385 35.1757
19.1438 15.7589 27.0085
18.6444 16.0827 28.155
15.7719 21.7791 40.4078
23.3173 18.3509 27.6786
18.022 21.5078 37.3016
23.7932 26.8304 50.0962
21.6556 20.7102 33.4828
19.6356 21.493 34.9322
22.2827 18.1487 34.4337
21.4847 18.1794 26.0161
21.0101 21.7951 33.0919
15.6941 17.1399 32.3142
15.3517 16.1137 28.8402
20.3367 19.1967 35.219
21.1291 20.2604 31.3759
21.0158 18.9903 38.8776
19.1609 19.2453 32.2335
16.2257 16.5179 30.6656
19.7815 20.3931 30.2175
17.0046 21.3515 42.6483
21.4379 23.0075 41.5374
23.9393 20.2051 30.7526
18.579 17.5425 29.0875
16.8429 15.6194 27.9625
19.6916 20.4842 33.3999
19.7233 19.783 35.7223
21.2701 17.975 32.2646
15.5398 14.8353 28.0564
17.2825 18.3631 34.4899
23.1076 22.1757 36.1224
20.6583 24.9594 44.1049
18.836 21.9461 38.2931
14.8969 15.354 30.8657
17.2804 14.8966 29.6104
19.4621 16.9676 29.6883
18.6118 15.8132 31.3045
18.8403 24.7903 44.9578
18.6851 15.051 29.0316
21.1285 22.1083 32.5032
19.9529 17.6118 31.9498
15.888 14.1881 27.8854
16.0697 18.7795 36.6818
16.0625 19.2062 35.1628
22.5364 21.2385 39.316
18.6686 19.9098 37.0716
14.2152 17.0061 33.0787
15.1283 18.2871 27.6582
14.5982 14.6749 31.3284
17.3975 20.3861 37.7358
17.5754 19.6613 34.6715
17.6318 17.4723 38.3338
16.9777 18.079 33.4963
21.7577 19.3086 29.1687
14.6808 21.9727 44.1563
18.9208 19.5822 41.7191
15.7593 17.2348 39.0613
17.3414 17.862 34.4786
18.7976 22.7457 35.2285
16.505 18.8059 37.1592
16.0213 15.0108 30.7691
19.7368 16.2328 29.8826
14.6578 16.9111 35.2106
22.6414 25.8212 49.698
20.4213 18.3701 35.2973
16.1835 21.1969 42.101
17.7 19.132 37.6092
14.9086 16.5765 33.8766
16.7052 16.5979 31.0671
17.354 23.0032 46.8968
18.9414 18.1122 30.3363
16.9605 19.7336 39.6757
16.5259 19.1156 35.1833
18.3848 15.1121 27.7245
11.7289 11.2473 26.5591
18.0795 21.6443 44.7828
12.9193 20.9316 43.1204
19.2195 19.966 34.2614
15.9959 15.2997 32.0819
16.7753 15.9643 29.8827
16.0146 13.4365 31.7338
19.5963 24.9419 41.2771
12.6883 8.61737 21.9883
19.3841 20.4599 44.5448
17.3535 21.9472 38.9753
12.1857 16.305 41.3545
18.6771 21.0262 44.2373
19.2444 21.9764 41.3875
14.1489 15.2425 30.5032
13.7475 14.0358 33.3507
15.759 15.4109 30.0875
17.5071 20.2466 38.9448
15.0692 16.7851 42.1564
20.3398 22.9342 49.5726
19.3543 17.6495 33.197
18.0933 19.1563 34.5862
13.9754 18.1156 39.6838
18.2088 20.2592 41.9401
18.4008 19.3288 37.8244
13.124 14.1536 30.8922
17.6343 18.4775 40.0174
17.4343 17.2028 34.2846
11.8144 11.1307 22.9786
15.1977 18.805 39.1171
12.1035 12.7414 32.8359
14.5696 16.7443 29.7526
13.0092 17.0806 33.3627
11.8763 10.4357 25.6957
15.2117 13.0175 32.2453
18.4429 22.2 47.434
16.5016 20.0718 39.3812
14.4522 25.2105 50.7969
13.6492 16.253 35.3162
13.686 17.5035 37.3666
15.1638 19.2532 42.5494
16.1374 17.0771 41.4107
14.9066 17.0169 34.2736
14.9036 18.496 36.4645
11.9975 14.6909 30.5718
13.1384 15.0651 31.9269
14.7332 14.0807 33.6787
13.5213 18.4371 38.1507
16.1582 15.5997 28.6784
12.9799 20.0979 41.5037
13.1826 14.0507 36.4226
15.3235 17.1038 33.2152
13.4196 16.7905 39.9799
15.497 17.9979 45.0356
15.1164 13.5766 26.8923
12.6977 17.2581 38.3614
13.7649 17.5376 38.5835
14.2365 17.9728 39.6279
15.2665 20.1082 42.5069
12.0619 13.7413 28.6171
12.7642 17.0076 41.6286
12.7814 16.2576 38.2606
13.4388 14.2827 33.268
15.4478 17.5533 43.7812
14.6501 14.7897 30.4616
15.3274 18.9752 41.2606
13.3706 18.2295 45.5026
13.6119 16.7638 36.0102
16.4892 18.6449 38.8534
14.0332 18.313 41.9055
10.8767 14.4833 34.4684
12.6177 14.9051 34.3389
13.9085 17.0963 41.8494
14.5163 14.4326 32.2991
11.6136 15.9938 32.9211
11.8459 15.2466 39.8468
13.5437 15.4496 31.8703
13.5302 15.5944 34.8339
12.8168 16.3061 34.843
12.3959 15.5746 32.4291
12.3995 13.2284 29.6933
11.7715 11.5683 31.3522
13.0783 14.3219 34.8916
14.2063 17.0364 32.6941
9.70369 16.6838 43.8925
13.8554 16.249 35.6748
12.8437 15.479 40.5855
12.6589 17.071 43.6747
12.6546 15.2857 35.0364
12.9108 16.6195 33.3977
9.09721 10.3059 28.969
10.0226 13.7341 32.7565
12.1156 12.265 36.3766
14.9057 15.7348 30.5094
10.9276 13.1344 38.0438
11.355 12.6934 27.0154
11.5197 15.3302 35.8107
12.8321 16.6094 38.3697
13.2471 12.6204 27.263
13.2489 13.7238 27.2736
11.509 20.1486 50.6738
11.2609 12.4068 32.8372
11.3271 13.6816 31.7094
12.5933 12.1757 29.0587
9.69125 12.3263 33.8237
12.5593 18.0692 46.5285
12.6577 12.1058 31.838
13.1881 15.1705 33.8604
10.98 10.7307 27.2846
11.9029 14.6248 33.9679
13.2031 11.9898 29.5173
10.3436 12.7876 33.5719
10.9242 14.8779 37.5621
10.686 12.9157 32.981
12.5602 21.8479 51.5979
12.2487 11.603 25.6764
10.6457 13.4237 41.5941
12.2191 14.4499 36.1372
11.995 13.2222 34.0961
10.8425 15.6026 46.7214
13.8069 17.0654 46.5041
12.1372 15.7692 37.3461
13.9271 17.0179 35.1291
11.3433 11.6749 31.887
12.3403 13.7133 32.8189
11.9565 15.3339 35.167
11.1601 15.2199 36.2194
12.1001 15.9356 45.1237
11.6795 13.7921 34.5685
12.4423 14.5792 35.8613
12.581 16.6379 38.2613
10.6696 13.9081 40.8807
10.7631 9.22313 27.3392
11.1258 15.6485 30.8482
11.538 15.1925 49.7746
15.4545 18.3695 43.5328
11.5002 13.5708 37.3788
13.8382 21.0833 42.9176
9.51868 16.6202 39.1837
9.5 13.8848 40.1002
10.6981 15.1394 37.1183
10.5675 13.8951 41.7344
12.0803 15.7546 40.6352
12.293 12.7996 33.8741
12.2396 16.6993 38.3764
11.2894 18.2667 54.1339
13.8403 14.4825 34.259
12.3966 16.6582 41.7236
10.5077 13.3509 33.9517
10.8884 13.8808 40.9237
11.9313 13.0052 34.5749
12.2895 17.6807 37.5643
11.3091 12.4952 37.6701
11.5342 12.433 35.1428
11.4459 13.2761 30.2111
9.4472 15.8395 39.0419
9.74093 12.6708 35.3793
10.3522 11.2627 32.5922
13.5988 17.1768 39.8472
7.9629 13.2831 39.9566
12.8354 13.9976 39.4014
11.9624 15.8528 42.0635
12.5356 17.6751 46.4954
10.7118 12.3862 32.255
9.84573 15.9473 44.2296
9.27332 12.4798 36.7413
11.1967 12.3965 36.2423
10.4607 13.5644 37.2558
10.1131 11.4535 26.7239
11.1601 12.3554 33.2674
10.7216 15.2537 44.2699
11.8401 14.7102 43.367
11.5612 15.6714 36.4039
10.6673 13.2957 30.9672
11.1923 10.6926 30.6647
9.4224 14.9114 36.8131
8.73789 11.1097 29.2844
8.3438 10.9379 33.2649
7.56761 11.2969 34.3856
8.68856 11.4619 30.8474
10.0806 11.0644 32.2532
10.5616 12.5346 31.2586
9.41933 14.9604 37.4423
9.78279 13.1105 38.6674
9.56218 11.2344 34.5505
8.07003 11.6125 35.7959
11.943 14.5153 40.4728
9.77737 12.5711 35.2283
10.8802 10.5616 28.4402
8.28871 14.1939 44.0315
11.8951 15.678 33.2944
8.37832 13.2476 39.526
9.34317 11.6919 35.3414
10.6512 9.84245 28.6968
10.2681 11.0773 32.3263
9.90788 12.0876 36.7408
9.64894 13.58 37.2179
9.53073 12.1342 39.2382
10.9701 14.648 33.8764
9.55968 10.8132 26.1879
9.22632 12.407 34.75
10.8792 14.2338 34.651
10.0301 12.8038 38.3968
8.79123 13.0687 44.5272
9.95537 17.6553 41.6869
9.93701 10.9864 38.2005
10.5359 13.1436 44.7869
11.4201 15.1767 39.5344
10.1164 13.0999 39.2169
10.4151 14.537 39.3657
9.421 12.5866 43.3148
11.6442 15.221 36.9006
10.4364 16.0371 43.3333
8.78553 10.6319 31.6839
8.74765 11.4725 35.5266
11.1116 13.6562 37.5386
8.78995 14.0547 34.7578
9.95502 16.2371 49.3392
9.90636 12.9645 33.5082
8.46961 10.3695 37.9246
9.15486 14.1505 37.66
8.77706 14.6207 44.3721
10.3987 12.2469 44.9345
9.69842 10.1295 28.1266
9.33543 13.1233 29.9023
8.93756 13.9554 39.563
7.45619 9.55444 32.2955
7.38544 13.2761 38.7063
7.66709 12.8534 31.1731
7.9644 11.6357 32.215
9.83275 11.6533 39.4425
10.0372 13.7345 36.2836
8.51254 15.0642 45.2474
10.4165 12.0226 39.6894
12.6906 15.0674 40.6506
7.92077 11.3536 35.5991
9.7114 12.3834 39.0861
8.78845 8.52444 26.3537
7.55395 9.88543 33.3168
10.8152 15.4014 33.9184
7.26361 9.45722 35.2835
7.52004 11.0585 34.2258
9.40743 15.5325 39.3596
7.14822 10.4626 30.5672
8.62669 12.4019 38.9943
8.21296 13.7082 35.2776
8.46442 11.6146 36.7416
8.28264 8.71714 25.5854
7.10645 9.81994 33.159
9.45543 11.5704 36.2659
9.29542 11.0685 28.8307
6.71138 9.75303 39.5648
8.28106 11.4805 29.4239
8.08604 10.5193 35.5604
7.563 11.9049 32.1797
8.03861 11.0138 34.3548
9.88685 10.9727 35.0112
8.98748 12.0534 34.9157
8.26301 10.2183 35.8385
9.23973 13.474 46.5051
10.8665 13.6845 41.912
9.78783 12.9414 35.1076
7.81295 9.15255 34.3735
10.4077 13.1405 29.0231
7.34601 13.4309 41.2591
8.03809 11.6297 42.203
8.55883 10.3135 36.461
9.2724 9.44458 28.9368
7.17789 12.5106 29.4815
8.04317 14.0637 48.7349
9.98846 11.37 32.2607
8.03388 13.1221 49.2471
9.38716 12.5516 38.4558
8.48143 13.4921 37.1201
7.53816 13.9392 37.8602
9.89741 9.61131 38.1797
8.91163 14.5333 44.2211
8.6076 10.9125 34.5059
8.65858 10.1838 33.1851
8.45982 11.2302 48.5464
10.453 14.0095 38.8571
8.05137 20.9846 56.166
9.33724 13.1149 34.3492
6.65558 11.2209 44.4495
8.74371 9.16263 32.1033
8.20804 13.7208 39.2452
8.31891 11.5314 38.2973
7.46713 10.7797 27.3832
6.01244 11.6894 35.0162
8.12831 14.9271 46.1203
9.22822 13.4587 36.4942
7.29711 9.22932 38.3339
8.92869 10.2787 31.782
8.338 9.11502 34.1748
7.49759 10.8821 33.1832
9.40851 10.7254 31.0278
7.38543 9.64652 34.4635
8.97171 13.3746 42.4095
8.86764 9.6382 31.3838
8.45282 11.9888 43.8959
7.19532 9.36184 32.1366
8.1285 13.1423 34.9407
8.2266 13.9892 45.3604
8.66276 12.7414 35.4865
7.69215 9.46604 33.7102
8.53601 10.01 29.9446
8.03039 11.303 31.5566
6.4428 8.7756 36.4885
8.83326 12.7576 37.2466
7.24242 10.54 38.0464
8.37815 10.9797 28.797
7.24818 8.42039 33.8163
8.49929 12.1199 45.9908
7.86067 15.1685 34.7948
6.22768 12.717 46.6651
8.60358 11.3182 38.3787
8.68672 10.57 30.5727
7.09174 9.90727 29.0154
7.8907 8.72004 35.0902
8.43017 12.8081 39.8711
8.23621 13.1423 43.1425
7.15586 10.9868 41.5657
7.05363 10.3016 27.6583
6.84771 8.80201 39.6363
8.21637 14.3087 33.9957
7.15317 11.2122 34.7686
8.63472 11.5868 29.9747
6.9502 10.1436 36.4482
6.70202 10.2592 32.0921
7.10473 8.68205 29.9814
7.1111 8.67565 34.65
6.36303 9.46494 31.9868
8.39444 11.504 35.1463
7.04152 8.83515 36.3149
7.44713 9.19102 25.295
7.65495 9.36956 33.5426
7.62652 9.76002 26.3212
7.35478 8.38705 28.0182
6.72372 7.34756 23.6363
6.79409 8.11907 27.4246
7.27376 10.2985 41.1091
8.61735 11.1517 34.1028
8.70228 9.94824 29.596
6.27806 11.2498 38.9174
7.79281 9.69742 31.8718
7.30815 10.2111 38.8054
7.33854 13.1646 48.7123
8.90056 12.4502 32.0398
7.31341 11.9965 40.7355
7.6782 8.66075 31.7064
7.91174 13.2319 42.3526
7.80341 10.2165 35.9143
7.96758 12.7362 46.0992
7.6139 10.8152 29.9765
6.71471 11.7992 40.4884
8.32003 13.3106 51.4589
9.51634 9.86209 29.4529
7.17202 11.8922 41.5969
7.09083 9.68282 31.1502
6.90174 8.19583 29.3756
7.56765 9.19969 30.6438
6.73106 9.35897 28.3793
6.08097 8.02204 27.6441
7.73623 8.24201 36.8738
8.24879 14.3448 42.2176
7.59113 8.04249 29.017
6.47499 10.1356 26.683
6.04867 10.9567 39.4449
7.36125 8.50306 29.7839
6.69528 9.23278 38.3186
8.21192 12.332 40.9267
6.44029 11.7672 39.4703
7.23738 9.73831 26.4792
6.18764 8.96748 39.0238
6.82465 10.7243 36.1216
8.35739 10.3858 32.5252
6.10248 8.88103 31.7562
6.55766 7.47998 35.3401
8.04288 11.8374 41.0604
8.1815 11.0838 35.7052
8.78198 13.6899 34.7921
6.07829 8.41091 33.9277
8.05965 11.362 33.4895
6.63745 8.18125 30.4695
6.19696 9.5824 38.6237
6.86882 8.82858 24.5678
6.3888 6.83027 25.4897
5.32302 6.49685 25.4804
5.88886 9.68944 33.6325
7.57282 11.8811 36.1349
6.593 7.42036 30.3428
7.34777 11.0244 36.9458
6.88519 6.5307 24.0174
6.53702 7.88154 24.8987
5.97249 11.1323 40.4035
6.42576 9.42089 35.9252
6.2424 8.85723 27.8856
6.4365 7.95612 30.032
7.18192 9.8722 44.6363
8.40409 13.0681 39.4867
7.51847 9.95708 33.7401
7.05001 8.86367 34.4401
7.3549 9.22073 28.3936
7.42673 10.9794 43.1904
7.99305 10.578 26.7587
6.32946 8.95555 31.9488
5.0882 7.41236 30.4673
6.5627 8.09622 30.5518
6.39741 7.1014 30.328
7.15896 11.2264 30.0944
6.81333 11.0604 33.3534
6.4792 8.32338 39.5828
9.07998 7.92623 29.1223
7.45023 11.1099 35.9546
7.27589 11.1159 34.5413
6.6556 7.45867 39.5312
8.89273 9.86478 31.9078
7.73316 8.42419 36.5441
7.44182 9.66126 29.8395
6.99924 8.51119 25.7052
6.01502 9.08384 32.1866
7.32219 9.87812 33.3279
6.2595 9.01873 29.5592
6.28384 7.35357 30.7385
6.49633 11.2176 38.8047
6.37869 8.17729 30.9143
6.61869 8.73361 34.8832
7.28889 11.6091 31.2888
6.39226 9.34444 43.2324
7.2956 9.79675 33.7243
8.3679 12.2977 49.9265
7.20447 10.5768 34.939
6.88888 9.79216 34.9691
7.11971 7.95999 37.4642
7.40088 10.6046 37.5242
7.14542 10.8424 33.3799
6.06405 10.1868 34.1238
6.83341 10.4959 40.0867
6.85261 8.28481 28.2485
7.86375 9.59232 30.0327
6.08508 8.17847 39.4978
8.03131 12.6189 51.3357
8.06159 11.1667 28.8872
7.40054 13.5658 45.671
5.62027 6.86503 30.4928
6.98264 8.55191 27.6655
7.20483 8.23939 27.4034
5.96277 5.54503 21.294
5.95409 9.36708 25.9273
6.98017 9.05231 37.3843
7.73435 10.4936 35.846
5.86191 7.61785 28.8321
5.51859 8.55026 36.8593
5.38489 6.54041 27.8726
6.01764 10.0126 33.4424
6.59525 8.76512 30.794
6.7718 8.18206 33.0513
7.4598 8.60162 31.7967
7.06191 9.16065 34.0714
6.22989 7.89597 32.983
7.27312 9.40399 31.3993
7.51693 8.18773 34.4595
5.70208 11.2835 31.7206
6.01762 8.57942 35.4786
6.94651 7.71041 30.0174
6.19735 8.13094 30.9558
6.3439 9.98479 34.5542
5.50432 8.59871 33.3115
6.25123 7.48515 28.2327
5.98926 9.51221 37.3956
5.4594 10.1985 36.172
6.42561 10.1173 32.0118
6.00395 6.99837 25.0126
6.93204 8.04842 32.2997
6.49451 9.38911 34.233
4.63085 13.1773 55.1647
9.6718 9.72074 32.0782
7.0884 11.7922 29.7395
4.69262 7.91972 31.0719
5.48962 9.30121 41.2893
6.56125 9.32673 35.6154
6.48806 10.8647 31.5504
6.30099 7.18462 36.0928
5.14087 9.15351 32.511
5.71699 7.15698 32.5993
5.9505 8.70927 28.9036
5.79418 8.93179 40.411
6.32954 8.46409 33.6703
6.37523 8.94354 31.797
6.61195 8.40847 30.5057
6.83154 7.50918 26.8817
5.98527 8.15953 26.0601
5.55664 8.36444 32.7635
5.07236 7.27795 27.8386
5.00091 7.67918 32.6452
5.52958 9.1083 27.7566
5.6143 6.6665 28.7938
5.26203 9.17541 34.2011
6.45777 8.76404 32.935
6.44806 10.1749 42.4087
7.04472 8.50226 29.7215
6.47177 9.90878 37.4477
6.79241 6.00293 26.4533
5.383 7.29889 31.0615
6.45079 8.94329 26.79
5.25583 10.5061 32.5086
6.0167 7.43117 31.3375
6.45675 5.83851 23.9937
5.53018 7.07814 26.7205
5.41814 6.6931 23.6044
5.70273 9.75067 42.4224
7.51564 13.3508 41.5591
6.73668 9.49 34.7046
5.19506 7.51703 30.6713
5.95037 8.45144 38.643
6.39081 9.15653 30.3876
5.16877 9.03698 37.9159
6.6861 9.88827 38.6529
5.83838 9.5013 34.8312
4.99094 11.2285 41.8894
5.81811 9.05035 24.116
5.2157 7.37644 35.7593
6.0453 9.74596 34.3072
6.43439 6.87545 24.7074
5.17172 6.00338 20.9159
5.5296 8.25105 34.3557
6.54681 6.33386 27.9664
6.98743 7.91697 30.392
6.40832 7.9306 38.4912
7.22688 10.2664 36.3428
6.58588 10.7995 37.2863
6.27059 6.90752 32.0162
5.63013 8.56409 26.7175
5.27748 7.89583 32.4545
5.18816 9.59969 37.5793
6.4552 7.69966 24.8701
6.16799 8.98321 34.3706
4.95799 7.56086 35.2755
5.727 6.70628 22.8969
4.81844 5.99259 25.4721
5.21222 8.95548 41.8956
6.86587 10.4579 37.2109
7.06242 9.65226 37.7531
7.23751 7.87847 32.8244
7.38381 9.56027 40.4371
6.85528 11.7276 33.595
5.76679 8.39673 36.7999
7.17592 9.43247 19.6104
5.48285 9.65832 30.5688
5.11753 8.70017 40.1769
6.66639 9.77217 35.6514
6.63092 8.57461 34.5261
5.12394 7.34924 22.7207
5.72941 8.47263 39.3983
5.88015 7.66971 28.643
5.9538 8.60982 32.5495
6.21888 7.89283 27.0011
4.6854 7.13754 28.4953
6.17522 8.46514 33.3843
6.07375 7.6121 28.1113
5.3825 6.51349 30.3361
6.97669 9.77312 35.6415
4.94874 9.30446 42.2257
6.4779 9.75411 39.5599
5.19502 10.7294 44.5451
6.64998 9.36488 31.2052
4.75103 9.46206 38.4057
5.50205 9.93165 35.3528
6.43474 8.69503 31.1114
5.97353 7.26491 20.5917
4.17394 5.61906 30
5.39072 9.44148 31.1232
5.54309 7.81212 31.7783
5.4909 7.52053 29.0731
5.57372 8.5662 33.3742
6.16736 7.48797 27.4834
5.18185 6.58547 23.0332
4.74718 8.96445 34.7352
5.62969 6.96681 29.7936
5.70208 6.70155 34.4306
5.39909 8.50273 24.9615
5.12512 7.27599 32.8694
6.34423 7.98975 23.2557
4.59869 5.48251 28.5248
5.55575 7.23961 24.9027
5.17259 6.9308 38.3762
6.24703 9.86464 29.8352
6.13631 8.30478 36.8806
6.07392 7.98247 40.7513
6.81591 10.4762 39.2644
5.63244 10.1628 37.0069
5.95011 10.6147 22.9056
4.91044 7.54193 38.6153
5.72308 7.65578 31.5979
5.54922 7.52441 34.9566
5.88893 5.78038 24.2809
4.91594 8.6519 28.7771
5.40762 9.03012 40.6099
5.73948 8.83677 22.3767
4.92078 9.00197 36.2812
5.1906 7.39549 30.2114
5.31768 7.56663 31.0246
6.24298 6.85615 32.4493
6.73119 11.7067 42.2583
5.93535 9.84614 31.2746
5.51779 6.558 31.1988
6.00482 9.23562 39.4292
6.61974 11.3225 34.5112
5.39457 10.2446 40.1131
6.44449 8.15852 34.6637
5.57645 5.92995 26.2205
5.76874 8.12705 29.9439
5.68929 6.71591 28.525
5.81874 7.86883 37.0916
6.9348 7.14188 38.0554
6.27495 8.95802 22.2995
4.60216 6.85992 25.9991
4.7537 6.01706 26.2882
5.43891 7.84852 25.724
4.58673 8.84681 32.8993
6.30201 6.48338 30.7248
6.52167 7.93851 30.6084
4.72823 7.84723 27.0646
5.74129 6.6436 27.6612
5.58944 6.9446 29.1513
4.92381 7.74621 27.578
5.83128 5.11688 20.3268
5.37727 8.34528 36.9907
4.90644 6.32965 24.8133
5.67599 5.97835 24.845
5.43344 8.23988 35.0079
5.87296 7.16127 28.9018
5.59198 9.47709 27.6553
4.79896 6.64802 32.8172
5.59429 6.95919 27.2404
4.71451 7.36721 25.0027
5.45525 6.91257 28.5767
5.67168 9.97179 35.5774
6.21305 9.13065 36.7184
5.69378 7.48613 27.8598
5.53992 5.23059 23.6953
6.12837 9.31691 43.2875
7.52653 9.19466 36.3114
5.84619 9.1947 24.7589
5.82078 7.00149 37.4727
6.94084 9.04173 29.4577
6.40814 6.14148 24.1371
5.2486 5.79235 28.198
6.43923 8.78587 33.2528
5.4308 8.87179 34.9664
5.58397 8.88893 29.1135
5.17718 8.02797 25.6266
5.12415 5.89619 34.0582
6.65815 7.60541 41.0193
5.36326 10.2965 35.3388
7.06796 7.04161 28.4557
5.32882 9.91122 29.146
5.6163 6.71077 28.1231
6.20695 8.33252 40.9459
6.67776 9.80867 36.0905
5.70264 7.08135 33.8517
5.41074 8.20866 28.7499
5.65423 6.26912 20.8406
5.56441 8.3209 32.2088
6.04194 5.76295 36.5058
7.23675 10.6054 30.2071
5.29296 6.61353 31.071
5.5674 6.9164 34.5075
6.23341 7.67119 23.9985
4.76865 6.15741 29.0538
5.17189 6.98935 34.8812
5.4444 9.02373 33.6528
5.6404 7.85611 26.0203
5.23509 9.65079 30.1464
4.69956 6.8008 26.595
4.99119 10.5977 33.2231
6.0258 8.42472 35.8385
5.68316 7.99512 32.8296
5.35577 6.86515 34.1618
5.58416 7.74669 31.5399
5.38664 7.21514 31.0696
4.84549 6.00294 32.2712
5.08701 8.21344 28.3659
5.48752 8.68889 38.0341
5.8029 8.97268 38.6628
6.1772 8.91161 31.4911
5.2216 8.43713 24.3597
5.97474 5.93176 30.4639
5.67446 8.93655 28.6529
5.40576 7.48386 40.4045
6.13592 7.70674 26.3209
5.15713 8.43175 26.4289
5.7132 7.0279 33.4244
5.70686 6.64526 24.1077
5.48675 6.69542 28.4539
5.89291 7.40704 27.1486
5.94991 6.89078 30.0709
5.00561 7.44617 29.3042
5.00891 6.7576 30.7292
5.44914 6.96458 29.3005
5.16208 6.53818 22.473
4.73237 7.76909 39.3721
5.78241 10.2977 30.4291
5.88687 5.54829 25.641
5.4704 7.40078 30.0137
6.07736 7.28839 28.1345
4.74602 9.09266 46.5022
6.86751 9.63626 34.6519
6.04627 10.0189 33.6607
6.11559 8.26807 33.9282
5.77523 9.05055 44.2775
6.94155 9.17606 30.6073
6.40888 8.44247 27.6659
5.56086 7.28137 32.3168
5.5713 8.15408 42.0717
6.44823 8.98949 36.3169
6.32063 11.2221 28.0302
5.95309 9.31205 31.658
5.25694 7.01705 32.3404
6.49358 7.69366 39.1098
5.21683 8.43675 29.0739
6.08122 7.754 26.0377
5.56124 7.07867 34.884
5.0918 8.43328 37.2799
5.1083 0 0