# pn-170911/CsIIA-40-CsIIA-1280-1959.psd
# Power spectrum* (dif=0,1,2) (really just |FT|^2)
# NOTE: only the first half! (symmetric)
# weeks: 1280-1959
# 19 clock-days, 720 excluded
# PSD: 1441
112765 2.14126 0.0463829
3.49563e+06 43.3424 0.171979
1.73244e+07 332.506 0.176173
2.89158e+06 94.13 0.16203
2.49444e+06 191.868 0.227208
975342 97.2053 0.163632
871030 122.447 0.236314
501748 104.55 0.206778
359117 78.9502 0.161644
317616 96.9925 0.222444
270801 95.0855 0.243414
216121 97.7338 0.173711
129286 84.5333 0.256743
118027 111.582 0.29209
95917.3 63.0211 0.189457
172435 159.04 0.420233
122365 127.524 0.240885
79655.4 90.9273 0.30716
79086.5 118.426 0.355521
96436.1 130.218 0.409272
59914 91.2656 0.225098
35291.2 88.9332 0.354183
38090.8 80.5035 0.381043
37177.6 70.1402 0.373232
42531.9 79.9103 0.320441
34540.8 83.8395 0.34291
46196.6 135.507 0.429885
22691.5 53.0626 0.382762
36565.3 128.71 0.503984
24116.5 65.0286 0.457033
33206.6 108.992 0.585163
29855.4 123.756 0.782555
23094.6 74.7838 0.745451
23175.2 100.881 0.635095
20102 99.1768 0.628994
20696.5 119.784 0.80434
31142.6 153.77 1.22699
11529.6 68.973 0.623666
18911.3 129.347 1.20318
15105.7 102.958 1.00516
15001.6 91.0837 0.727045
14079.2 87.653 0.881746
13666 94.2704 0.939698
13149.5 105.919 0.990882
12102 92.2501 0.959616
7407.16 66.7211 0.776395
10914 96.5626 1.04356
8289.74 77.5694 0.781524
7376.59 70.7029 1.03532
6504.22 73.1529 0.816602
8984.12 77.3693 1.13533
11799.6 131.596 1.97895
9129.65 95.9978 1.37473
7306.45 79.5822 1.15097
7173.91 79.4345 1.25967
9815.44 105.335 1.41073
6441.47 54.8447 1.06433
8565.21 119.789 1.98751
6043.86 79.9846 1.52291
8782.99 137.083 2.203
10007 136.437 2.37094
9212.93 132.742 2.3894
4005.62 50.0904 0.910065
8387.48 132.979 2.7253
5621.12 92.912 2.17792
6097.78 104.041 2.13739
5564.79 110.486 2.55696
7908.68 149.275 3.32188
5934.13 113.952 2.37299
5090.58 113.276 2.91726
5632.97 105.254 2.42664
3856.52 101.302 2.77759
5887.67 112.359 3.23008
4824.84 76.8294 2.07929
3255.03 69.0701 1.95988
4826.65 111.713 3.46062
3028.78 63.1782 1.93012
3530.85 86.4908 2.51734
4379.16 82.4259 2.50125
4511.04 109.999 3.03359
4251.98 108.299 3.29878
2970.92 71.7838 2.34137
2375.29 82.1317 2.93715
3638.67 92.0001 3.45981
2736.14 67.1088 1.97494
3687 86.0952 3.07694
3177.33 79.8937 2.56665
2893.77 109.197 4.15552
3346.82 94.8424 3.82899
4229.99 145.466 5.16885
2729.06 79.1345 3.21771
2798.51 82.5621 3.18459
2602.16 80.8165 3.41297
2200.97 77.1376 3.88816
2702.28 86.2514 3.82286
2632.79 111.274 5.29025
2313.12 88.1523 3.95439
3577.5 121.796 5.44758
2354.23 84.4084 4.25487
1916.49 71.8093 3.72202
2335.43 92.7259 4.64367
1748.97 49.645 2.84552
1400.23 56.9987 2.7267
2590.32 109.085 5.9296
2085.77 59.1663 3.33792
1765.9 93.4903 4.32448
1915.84 104.426 5.74675
2176.08 82.6277 4.25612
2433.66 99.4353 4.88991
1920.85 71.2147 4.32397
1016.81 48.7423 2.70617
2105.99 83.3813 4.96252
2230.01 115.745 6.66304
1356.79 59.823 3.92026
1344.68 75.7042 4.26907
1691.02 97.9272 5.68618
1453.29 65.1247 4.45933
1722.67 88.958 5.82205
1655.44 92.4939 6.01686
1090.52 71.9199 5.63321
2559.24 150.662 10.4432
1823.02 101.628 7.67289
1551.67 87.8677 5.74974
1603.38 94.4645 6.9358
1618.75 110.401 7.80514
916.768 55.4289 4.0396
1107.08 64.3386 5.1297
1081.34 61.7506 4.68801
1079.41 78.0853 6.17957
1188.69 74.089 6.24553
1160.66 73.4248 5.43037
1184.7 96.0467 8.07085
800.682 63.6784 5.84254
1268.19 110.273 9.02407
890.419 65.3193 5.46239
893.053 49.6434 4.50777
1485.01 108.429 9.62408
957.107 83.6996 7.82645
959.179 89.8645 7.77587
1287.98 77.5853 6.88302
838.83 80.7391 7.36622
1528.84 111.653 10.6387
1283.44 106.75 10.5706
1120.6 62.7134 5.68649
1315.5 75.5955 6.85695
1717.43 109.721 11.4556
1551.68 142.192 13.6465
1028.02 82.9926 8.71462
1198.94 79.9316 7.98739
969.931 95.7467 11.4804
1034.95 83.2386 8.33822
613.441 48.7406 5.99616
1102.07 78.9352 7.98236
1161.64 107.665 11.0858
979.325 118.015 12.8469
1170.03 96.6459 11.0201
899.985 82.9735 9.0937
1450.4 134.326 15.5963
1501.38 128.661 13.7846
1445.01 130.088 14.8412
775.198 74.0969 9.25953
1078.9 92.4713 11.1263
837.494 75.0281 9.47275
910.656 88.2495 11.7226
1079.85 97.2057 12.838
1067.74 101.85 13.5986
1125.08 94.5738 12.147
1122.34 126.051 17.1748
725.471 56.6018 8.00377
800.577 71.9208 10.0314
1170.62 111.817 15.9403
798.358 85.2725 12.304
592.96 78.0613 10.9939
1087 97.9918 13.4116
624.105 86.6099 12.1721
560.556 61.7494 9.17918
808.136 79.3867 11.4021
525.127 43.6836 6.67798
763.117 93.8713 14.0303
749.939 86.7441 12.9511
901.984 74.6815 10.9161
886.768 104.312 15.3467
552.627 94.5603 14.0594
520.822 76.8969 12.8923
798.564 83.9308 12.267
682.133 79.2022 12.5224
602.392 77.5641 12.552
928.281 87.8694 13.433
918.014 112.96 18.1284
872.84 93.541 16.2112
769.609 109.961 18.8188
730.228 72.1066 13.8387
1234.16 141.203 24.0283
841.068 105.992 18.2857
746.814 94.1681 16.8378
812.545 55.3491 9.24761
673.166 71.7993 12.6924
413.61 63.1297 11.0743
771.92 100.371 19.3629
680.109 80.7072 15.2727
809.887 106.608 18.4634
528.226 69.6318 13.458
886.991 96.5952 16.7463
652.183 64.2302 12.7334
772.16 94.648 18.2244
406.524 44.1425 8.38434
410.198 73.2091 15.2004
529.087 67.0885 12.7421
533.848 50.59 11.0963
570.472 87.3376 17.1285
627.437 91.7052 17.5002
637.181 99.6138 20.5993
504.927 79.0962 16.3132
561.986 97.6233 21.3012
539.254 89.5148 20.4988
962.555 141.885 29.2777
672.565 66.7449 14.3485
471.991 69.3585 16.0222
548.231 56.6714 12.1886
477.876 67.7935 14.806
484.132 82.7619 17.8291
409.182 70.5362 16.6161
593.043 95.6091 23.4238
417.134 78.6988 18.6009
555.172 66.7827 13.9156
478.973 92.299 22.688
311.886 67.793 16.6957
543.193 96.8893 23.0694
593.044 67.4835 17.6776
615.26 103.138 23.4783
572.152 109.165 26.8476
585.229 97.0776 23.9095
490.662 107.475 27.3077
510.656 82.2272 21.847
429.712 64.6445 14.9902
415.819 74.8082 18.5761
447.453 55.8746 14.0115
363.42 73.3531 20.1402
550.18 113.554 28.0387
494.22 72.619 18.7085
284.293 67.8309 19.6623
485.811 80.4865 20.7466
353.203 78.5453 21.403
462.613 88.4946 22.6708
358.861 70.4339 19.7399
297.161 67.472 18.2858
342.624 69.5019 20.0839
387.253 71.3917 20.9791
326.428 52.9297 15.2569
325.582 60.3019 20.9005
399.834 86.0041 22.0494
501.916 97.8974 28.5757
339.675 58.3182 16.5325
463.958 93.3258 27.6668
329.914 100.071 30.3335
511.103 94.9369 26.533
340.712 102.344 29.8946
351.026 90.1972 27.728
406.453 84.5386 25.6138
462.709 77.0355 23.2253
419.779 91.396 29.3735
202.371 43.6112 12.9912
432.193 92.5438 29.4495
283.174 76.302 25.2834
455.309 88.2305 26.6356
318.429 79.5035 27.583
293.71 56.128 17.43
393.261 86.7635 28.6233
304.626 51.5677 17.9481
329.342 69.6491 23.2453
237.155 69.6048 22.8477
375.648 97.9176 32.3922
237.272 57.0178 18.9484
358.198 68.5985 22.3538
335.852 80.339 28.8183
241.59 79.8045 28.7925
261.482 64.8894 25.4466
351.659 73.0743 24.5781
317.72 70.6887 24.7534
275.139 60.1175 24.0131
473.001 106.568 37.754
266.002 62.2988 22.8169
191.573 55.1793 22.0478
271.979 75.3172 29.7983
339.549 79.5203 28.6651
329.233 82.5764 28.2619
292.213 107.644 41.8598
315.528 77.6167 30.0392
203.452 54.2579 22.0987
239.61 78.3851 25.2275
290.108 84.9242 33.8533
280.434 92.3871 35.1562
256.157 92.6247 35.0747
265.431 79.8913 33.0488
233.322 58.9263 22.5537
286.435 77.0601 31.5115
262.736 77.4737 32.2761
265.415 78.6411 29.2775
256.866 69.3641 26.824
266.59 55.7169 22.5744
250.343 92.3231 38.6963
193.613 73.5492 28.8885
204.573 58.8348 25.0614
190.439 53.7775 23.6017
324.789 61.816 25.0519
278.131 78.0418 29.8584
213.932 91.5853 41.31
268.625 78.5445 34.4275
233.839 64.2684 29.4367
224.026 58.5937 21.108
231.697 74.0884 36.0588
186.329 51.1593 23.76
237.717 43.7155 18.6459
244.871 79.7028 38.0193
180.663 55.2738 26.7657
347.699 103.979 44.2277
284.218 97.2631 46.7729
134.932 48.757 21.7923
265.175 79.4044 38.499
238.082 73.6598 35.5856
242.538 70.1635 29.6587
173.141 48.6948 24.9586
219.35 55.7429 26.798
164.282 64.7693 31.6477
219.497 59.7657 29.4576
202.996 76.6898 34.374
196.914 82.577 34.1962
136.793 59.977 33.7882
217.158 93.4252 43.3025
144.933 61.0107 32.4692
227.502 83.0795 41.4295
221.886 73.5827 37.3849
243.884 78.9053 39.2174
200.662 62.5619 29.7505
250.056 72.5348 41.0938
150.854 54.1228 23.4433
159.609 69.8811 38.4917
171.821 81.9811 46.8879
225.936 73.0589 36.4851
181.289 53.2505 27.2654
217.902 61.7045 34.0705
243.552 80.4722 42.416
191.047 55.1207 27.1888
195.769 64.6725 32.8407
207.676 73.4315 33.8747
199.15 93.0418 49.6901
211.212 71.7908 37.8302
159.147 56.2468 34.713
200.537 53.7868 27.2037
156.697 65.2519 36.4777
156.495 57.4581 30.2954
154.728 61.375 35.0483
208.389 69.8085 41.6178
188.677 77.2945 37.8209
106.701 55.9815 31.5872
168.757 74.6905 44.6394
102.643 47.2316 32.78
173.826 70.4503 42.2323
170.16 64.6637 36.7656
219.632 77.7044 42.6473
179.88 61.824 35.6379
156.418 84.4526 52.3881
180.098 75.2508 44.5891
150.338 83.4256 52.3009
101.064 51.6431 28.0112
103.704 52.8201 30.7917
143.075 50.3618 27.5779
92.5836 46.677 31.4583
145.878 63.1662 35.9626
120.613 67.3228 43.5603
95.2852 37.0521 25.9895
222.159 82.4958 48.2021
207.27 81.8917 46.3551
94.3083 53.3364 35.4515
128.476 59.8528 40.9146
126.598 69.5395 41.0903
178.619 60.3601 39.5143
171.071 76.2458 47.8735
79.5494 57.3172 38.345
153.143 51.9093 34.7439
135.844 51.7768 34.3505
147.906 74.218 52.0332
95.7955 50.4006 32.6905
93.9411 37.1853 20.8779
122.855 76.6314 54.2508
140.877 70.3948 42.652
113.61 66.3536 47.9187
230.119 99.1486 59.3921
127.301 60.5536 45.4879
147.175 62.9293 42.6047
105.594 47.3397 35.7511
150.439 85.8033 57.0645
113.527 36.3816 22.8694
128.627 82.9746 59.5403
89.1104 50.8036 36.6918
115.101 56.4582 36.9553
166.576 89.4621 57.1409
109.919 58.3521 47.2553
176.355 86.6412 61.3105
158.11 84.6708 48.7598
98.7441 75.1243 54.3963
129.835 78.9963 61.6074
84.2319 40.7493 31.9931
100.906 37.582 27.2384
115.791 66.5029 48.6517
135.566 70.2929 49.7043
105.779 66.9564 53.6909
141.952 68.4652 47.1253
87.6987 53.9901 37.0145
93.1954 49.5689 35.7178
120.472 67.548 56.8002
121.371 53.9623 35.5659
117.781 61.4664 43.0266
88.0207 57.8301 41.1917
96.3995 65.4191 53.1831
140.115 49.3702 36.8035
121.62 63.626 53.256
143.474 63.6888 54.7263
124.621 65.1991 42.6454
102.84 57.3111 42.9731
97.9014 51.6997 46.4947
116.364 48.206 35.3078
150.861 66.3925 56.0621
123.25 74.0564 56.3903
157.755 70.5907 58.768
122.17 50.5359 39.7055
129.292 84.8062 71.4633
167.443 71.5715 56.9664
88.5982 40.0216 29.3451
136.012 61.133 45.7445
103.026 75.3813 63.1833
119.559 54.5549 48.8487
121.341 55.6215 48.0559
124.572 57.6365 52.6643
118.438 58.6698 45.3063
129.553 69.5251 54.6175
138.229 56.1775 48.9953
128.439 65.091 48.1725
98.1835 37.192 31.4923
109.419 48.0009 44.22
98.3746 60.845 49.2886
110.862 49.5063 51.6803
140.606 56.8045 47.3743
128.588 63.809 51.7076
98.2065 46.5541 44.8785
114.198 64.6824 52.3382
151.109 67.3025 59.3476
109.328 35.5627 22.7925
107.47 45.4554 43.965
103.309 47.1377 41.8341
100.398 67.5426 55.0868
114.375 52.0205 54.7293
117.749 52.0189 47.4619
116.111 55.754 41.9376
103.207 42.8565 46.4741
85.1026 45.4051 45.5623
95.3737 39.5939 33.8522
123.587 81.1199 74.6471
130.514 61.7995 50.0192
177.312 88.1299 82.6777
124.856 62.8543 57.999
119.43 77.6873 81.5604
121.965 54.8952 45.8513
125.615 69.8284 74.6745
140.426 65.043 56.4763
80.5899 40.0292 37.5312
146.252 66.6392 51.6223
88.0232 69.7365 70.6402
116.256 64.5363 51.0103
139.537 83.47 71.7833
69.0371 58.4414 69.7785
94.3451 67.6849 70.5258
126.162 74.6546 66.7702
102.435 56.4243 52.3413
86.0424 46.5735 45.5006
127.511 91.66 82.4822
84.0385 77.5494 80.3618
87.0791 52.9297 52.901
76.8915 33.6425 38.3494
83.4352 57.0279 55.7719
68.2626 58.3134 63.4798
114.056 53.7361 44.6063
89.8602 63.4693 70.3514
119.816 49.125 44.7315
100.498 51.1891 49.3977
96.1551 50.7787 54.5668
121.744 65.4095 68.0434
94.5841 58.7156 59.0631
132.583 76.3057 73.6136
72.3385 65.5572 82.509
112.955 46.8961 47.9753
88.6363 45.1003 49.0135
130.996 54.8846 47.8925
89.6146 55.4286 57.8669
78.1708 66.1345 89.0592
85.0347 26.0799 25.1366
91.9459 54.9707 59.0126
65.8327 34.699 36.8991
77.1607 47.4991 42.7796
69.4517 38.8219 45.7702
106.447 64.8816 68.0414
68.4589 49.2687 45.8963
75.4686 50.9186 58.7077
84.9623 43.3378 52.9736
90.6755 40.3837 41.3015
85.9501 62.1261 76.0779
88.966 67.7915 77.8509
91.1756 53.8481 64.5482
103.371 67.5328 66.6593
84.1753 49.4404 52.3984
70.5399 50.1704 65.4275
109.665 68.3219 62.584
81.7428 63.9857 65.4982
71.1408 85.7162 102.97
81.2315 57.8567 64.7154
87.867 66.6475 76.3507
107.615 66.0795 79.9672
72.6738 58.8443 90.1266
145.575 71.2425 72.6688
86.5489 57.0249 56.8514
104.686 50.0199 50.4873
75.0403 45.5713 56.7739
77.5387 47.8939 58.818
86.4128 49.7105 56.5787
76.2248 41.8449 58.2408
82.1284 65.5622 69.9138
58.738 43.7703 50.1
82.7211 58.6397 73.0593
81.4316 50.4839 57.9139
80.9081 44.5373 48.1248
67.6331 63.4742 73.1346
89.0852 57.7618 71.6348
99.3325 61.3594 76.7247
68.2403 60.0905 79.266
61.64 37.6687 47.0817
84.6877 44.7714 52.739
97.6063 63.1059 71.7152
72.9172 39.6986 43.2109
81.6642 53.735 55.6818
61.0038 34.8967 62.5727
77.612 55.1548 61.3938
57.4224 61.5266 72.3524
79.8329 42.3573 49.9164
69.4936 44.5111 59.5686
74.0807 46.3732 53.1107
49.2159 43.6199 52.4731
76.3986 38.9754 52.2143
56.3639 42.2709 58.9137
92.603 50.7555 60.6878
61.3227 44.9752 60.4304
86.8259 47.5765 55.5128
78.4583 49.0169 68.0769
99.1651 71.1068 90.8856
58.471 49.54 73.27
99.0807 63.8227 59.7388
84.9873 58.3866 68.5897
58.6551 49.3907 66.5431
57.8113 41.625 46.7129
51.3818 30.8564 44.2749
82.4735 53.0546 84.3927
102.454 57.2901 69.1128
65.8834 65.1425 92.8906
66.2826 56.7896 85.1133
69.0697 42.4105 49.5676
73.6223 51.5984 60.5725
45.7977 37.0096 58.5223
72.5351 40.6836 46.3541
62.657 60.2573 76.0655
58.8821 40.972 54.7045
73.3588 46.593 66.1011
73.7127 37.9757 47.8285
60.3228 50.3804 70.1441
87.573 59.5833 78.9105
43.8224 56.2314 77.2696
65.0569 44.9072 70.0203
55.1104 43.9786 78.4586
62.5899 52.1366 58.3509
63.8308 41.609 57.9205
71.5236 52.3284 68.6778
59.3085 59.2991 74.8701
54.3611 38.7482 63.252
78.1111 50.1417 55.081
57.0351 58.1801 89.6222
74.4928 42.1822 52.6075
83.8833 60.2957 82.2571
46.0879 40.3773 47.7052
59.5278 32.5711 50.9753
56.203 46.1912 69.9911
76.2896 61.1421 83.8635
66.2557 59.6106 85.7098
48.2824 34.7537 50.0901
30.16 59.4619 100.045
64.0811 50.7998 63.8305
49.4523 48.5521 70.3496
71.1434 51.2029 79.5637
80.6536 58.0502 80.0298
81.1192 47.0003 65.1976
45.0207 76.8808 93.2576
50.5765 61.96 113.463
86.023 46.9138 64.4464
55.6093 27.0994 39.4887
39.8923 40.1549 53.0184
50.1251 32.4881 54.5883
79.595 52.4218 85.5114
52.2186 51.8814 76.8776
42.5257 36.8279 62.475
59.8088 43.196 66.8604
81.0467 48.5508 79.816
62.8599 55.6291 72.0348
47.0895 39.6833 69.3388
56.7561 60.2423 79.2053
59.5964 43.3545 64.524
61.6855 47.3354 68.5497
47.4895 48.8068 81.2279
57.979 64.3412 90.5166
72.7175 59.8723 105.807
57.0221 41.5322 60.5514
38.8777 26.1006 38.4821
51.0683 51.8343 84.4293
48.909 50.728 76.2657
50.4031 29.4286 50.0621
34.7245 31.9808 49.423
59.7109 44.3455 64.7092
54.6825 58.8493 110.815
71.2914 42.7884 54.0551
50.6555 45.0267 74.489
49.3804 63.486 112.26
69.8144 53.0717 79.3936
75.474 71.9422 123.942
51.1822 52.4475 72.4847
55.8976 26.9738 46.374
62.6181 46.0202 83.8064
58.5566 55.2201 87.1046
50.6724 30.3265 43.4894
59.0555 43.0298 59.4251
42.4413 44.3961 80.9543
63.7506 40.7572 60.247
51.5585 45.0928 80.4947
66.0643 41.9634 55.736
50.3763 31.3625 62.3637
53.7565 37.4368 65.8601
43.099 34.7228 56.1352
52.794 48.5261 86.9322
67.6004 61.2714 101.439
66.8129 61.8713 103.73
52.045 44.233 77.6683
56.8742 46.5096 86.7702
81.6925 75.6441 106.602
55.8067 51.8592 98.0224
57.5743 50.9895 96.5658
69.3928 48.5207 76.5753
69.6966 51.0646 73.6342
66.4282 39.5062 60.5995
59.2188 58.9673 104.763
61.2787 56.6915 103.51
54.5588 40.2898 56.8831
57.836 46.5204 85.1557
47.0449 35.141 64.6816
48.7675 23.5094 49.9866
53.8832 26.4972 43.2601
59.1339 49.0172 74.3547
46.2021 32.9464 58.1167
51.2234 28.1181 59.2403
50.9602 36.459 57.3022
59.02 32.6022 55.4158
47.7105 46.4995 83.6108
51.3849 41.3487 68.3036
64.7823 52.6909 90.3582
47.403 37.2889 62.6059
47.8542 42.5708 82.3291
80.246 53.805 86.111
55.16 40.2288 72.1867
68.9086 62.7548 116.757
53.7711 36.7482 57.8265
68.8454 47.5273 106.588
55.7213 32.6648 55.2627
64.717 36.0665 53.6783
56.5966 24.8247 49.3319
63.9282 43.6554 58.1059
44.6265 18.6417 46.4236
52.7047 52.994 95.4715
49.0775 46.3509 85.9823
68.7858 41.1842 67.366
60.1095 30.0373 60.8466
57.4101 43.1432 81.3013
58.9096 36.29 60.624
48.414 28.6649 67.2448
64.1417 48.7194 81.0824
54.497 25.7587 48.1982
47.6705 45.4286 91.5759
58.9671 32.1094 60.4554
61.2818 35.422 53.5521
39.4358 41.9962 69.4759
58.3967 40.8625 93.2936
59.3497 31.719 52.8312
55.28 39.8597 71.6384
46.6042 36.455 64.1837
35.3491 27.3389 53.8548
56.4208 35.0531 75.3435
66.8589 60.495 99.2975
44.9394 38.6143 101.358
70.7908 43.3026 81.0044
73.1914 53.7819 80.1271
44.8147 47.0442 97.7341
52.7704 42.8275 102.3
67.3852 54.7657 120.598
64.4075 64.3736 87.1655
51.2217 41.1725 72.6539
47.0316 37.3151 85.9184
45.6084 29.4925 59.9747
54.0428 55.9528 110.641
58.1973 44.9843 98.7989
47.4338 33.3734 71.1459
48.6699 39.3962 77.0281
58.9068 44.5452 83.6434
42.2435 40.8103 66.6548
38.4701 32.2545 78.0298
58.8136 47.0481 104.619
48.7481 55.3413 114.832
42.7891 35.0446 64.092
46.7086 28.0506 52.0581
41.5341 30.7152 80.4943
54.161 37.2904 79.6462
53.5302 37.2221 67.778
38.4067 35.428 72.2161
37.2189 41.7998 102.034
54.7667 45.1401 97.763
76.407 57.654 102.986
56.1778 48.84 89.625
54.9002 52.1992 94.506
43.6477 26.1403 78.7099
51.22 55.4722 92.033
35.9189 34.6155 68.9836
30.5238 21.398 38.0312
45.5803 38.1519 60.245
29.6014 35.8513 83.7304
34.9653 25.8354 56.9706
28.1422 25.0973 51.278
42.3783 51.0919 123.08
41.0905 31.0166 68.2691
40.5543 24.5557 56.4447
45.5887 35.6896 64.9058
44.9943 27.8833 48.9985
41.7206 44.5914 97.4024
37.5164 33.2742 81.7308
30.5292 39.3398 62.6092
40.6108 36.2826 78.5111
31.8163 42.9167 85.7689
35.2452 37.0444 87.26
35.873 25.0527 57.6037
45.95 32.944 57.312
31.9376 47.3533 113.316
36.7676 35.3738 70.2095
36.4511 24.8374 71.2341
41.2251 36.1645 67.5838
35.7792 52.6657 108.38
30.4934 46.0385 87.3809
28.5335 37.0278 75.3694
32.0298 24.1443 50.36
28.254 20.0071 65.5832
32.2568 39.1303 82.9014
32.8508 32.9161 63.4103
39.8637 46.135 91.7169
36.9049 26.3879 59.8217
27.0004 27.8511 76.8058
40.4624 27.4185 54.7051
33.0372 46.4516 93.1245
24.2713 21.1539 75.1213
34.1796 44.4109 79.4067
32.229 28.812 51.8319
26.8308 34.0937 66.6328
25.8849 31.3338 69.4417
30.3328 30.1111 75.9499
19.5767 35.7088 87.5654
31.1555 40.6397 94.9458
37.9314 43.7322 100.828
33.9082 30.2277 53.7945
24.5023 31.5898 91.4766
31.4515 42.1556 80.0917
24.9411 40.7995 84.1397
28.1625 24.2354 63.5552
25.6603 35.5492 81.502
26.2662 31.7129 66.6005
29.9986 37.558 104.005
25.0617 30.3652 61.0113
29.3995 34.2835 78.1854
30.133 32.5415 83.1891
30.4505 42.4669 79.9189
34.0605 23.4543 70.8242
32.7939 39.5212 78.9033
31.2662 28.271 65.5381
30.0366 24.4709 89.335
35.7845 36.3119 63.3781
29.886 36.1111 82.1348
19.8307 25.8344 86.4679
59.0175 48.2201 88.7742
29.777 22.456 66.856
27.5713 54.5249 104.653
37.7875 35.8668 74.0891
19.6584 29.3483 82.0875
35.3931 44.5114 103.537
31.3973 43.4202 94.6365
34.1855 38.4685 105.481
35.0723 39.8801 64.8673
18.8935 28.4578 61.4231
26.2454 32.1632 77.5896
28.6137 38.4064 101.369
27.4846 35.3614 84.5236
21.7783 35.9348 87.6368
30.4768 33.6187 93.6528
34.0188 50.15 110.905
27.7283 30.5871 71.9496
30.5893 34.771 86.9571
24.6106 36.6644 108.39
38.891 41.4391 99.9831
37.7361 52.8691 100.964
19.2684 29.7892 76.8636
29.1904 56.9798 126.866
29.3881 17.2404 39.1857
27.7703 32.864 63.0046
26.5085 49.4603 108.662
25.5111 29.3657 65.0243
26.5069 22.4467 51.4101
26.8607 31.2395 86.5476
26.3952 29.6286 88.2439
25.7408 28.0503 76.2679
28.1996 20.2109 43.7339
23.8349 48.0968 142.068
33.6013 39.8736 90.5423
34.1841 27.9012 57.6535
32.2149 22.7485 70.0174
36.3179 31.1622 74.1039
18.4687 29.0273 81.7399
29.3201 37.7302 98.6301
20.2808 30.4817 71.0086
35.4028 27.6859 91.6146
20.702 38.3822 72.3871
26.1114 28.4622 53.2761
22.2506 24.8367 76.3078
31.7671 25.2559 56.4863
26.5931 22.7766 65.1447
29.8694 28.7761 90.4305
30.0323 30.5242 69.6706
22.534 23.5322 62.2751
25.9982 36.7482 103.274
41.3508 39.7065 71.5238
23.2951 17.3352 60.7674
27.0266 24.8338 57.0217
17.636 27.5019 78.1932
29.1005 51.0344 137.847
33.2832 29.1853 70.4214
28.1944 36.2661 78.5144
29.3385 34.057 72.6868
23.4233 22.2063 61.2106
27.6647 28.5259 76.3492
35.3988 26.9862 71.7079
30.9141 31.9686 88.8333
33.2155 28.7882 68.5412
34.2215 32.7064 84.7619
31.2821 28.4774 76.2567
33.7478 42.6565 105.52
31.7625 35.0581 77.7645
27.8528 19.4669 73.5677
31.8749 29.1448 72.1126
38.8439 42.3325 129.966
27.8476 29.6862 82.9705
46.417 23.2171 64.4604
31.1217 42.7034 97.4828
33.4262 30.4865 83.0977
41.3116 48.5496 106.312
30.2088 33.7594 115.446
30.8532 33.8574 76.9297
30.4922 43.4015 95.4497
19.4501 38.7543 105.127
35.2808 38.0433 120.03
39.7125 33.7383 97.673
31.4224 31.548 76.5653
39.5612 22.1532 46.9501
27.6274 45.7543 119.154
24.1332 26.0535 80.3126
29.0116 37.926 84.5163
25.6881 26.3567 96.5021
27.8807 24.1275 72.592
31.6768 46.5034 118.932
24.9086 24.2364 56.7449
22.5258 31.3039 82.2599
35.4952 40.9885 106.994
30.3558 32.9467 85.6887
30.7048 38.5936 130.223
38.921 28.6901 83.5183
32.5638 27.657 72.1724
32.1503 40.7496 108.748
36.5578 26.1958 50.1055
20.8874 26.0126 68.0215
25.669 25.8214 64.236
26.3897 19.4796 66.3398
26.2211 21.4357 61.8312
30.3755 25.6996 73.6879
29.2221 40.0958 105.29
40.2405 31.8871 124.418
42.6574 46.6386 98.8523
23.735 27.0008 65.1603
22.344 23.7101 96.4627
46.4577 34.9383 66.2505
30.7891 30.5749 90.7562
36.7674 35.8061 73.7097
26.7758 23.6441 74.9933
29.1843 27.2579 68.6005
34 40.6413 123.462
34.1958 34.8178 91.6554
31.7508 39.2024 147.098
43.8746 28.2068 57.2036
30.5557 32.7314 74.8333
30.8071 36.5128 110.514
30.3362 28.3819 65.3426
22.7221 21.7591 69.3947
25.0684 45.019 108.704
25.2286 33.5387 82.5957
19.4828 21.7823 90.3367
26.3181 28.4525 55.2962
17.3377 15.8829 52.1973
19.6236 44.1712 109.87
24.5523 37.1584 154.312
41.0059 35.2956 61.2521
28.7801 29.3024 103.065
24.4821 40.782 100.25
26.7047 27.4843 71.7122
26.5903 26.1047 82.6949
26.2666 32.6305 86.1959
14.1144 25.5337 80.141
29.6482 35.477 115.281
25.0955 29.7303 74.6029
24.9282 31.752 87.0852
22.0906 24.846 63.8073
23.9163 20.1147 62.0638
27.967 34.6909 98.3996
23.8133 34.6399 104.925
29.7425 45.3286 106.887
22.9693 44.5907 143.161
31.2092 26.6382 92.41
26.9013 35.5578 86.6449
28.0183 30.5249 108.911
33.4705 30.9439 87.1128
29.7213 28.3374 89.8639
23.982 22.4356 62.8374
23.9772 24.9255 65.7519
23.845 27.5749 100.514
32.2807 26.9143 57.3571
27.1841 30.355 98.3947
18.7474 25.4383 128.18
30.506 37.8781 85.0001
20.362 22.7175 73.4104
27.1117 25.1176 58.545
29.1607 33.4012 97.1808
31.6895 28.38 74.1755
25.3155 17.1687 66.2098
32.923 31.7966 97.1851
25.7965 30.1608 81.1068
26.5572 37.7558 119.926
22.506 27.6636 88.9663
24.0929 30.3408 79.5233
23.9862 26.9512 89.2874
31.6664 29.3711 74.6348
26.613 25.1398 78.3351
21.6624 23.1967 80.2295
17.4369 24.3572 68.5351
21.6723 25.5416 95.905
30.4484 33.5364 105.281
32.7394 36.0483 80.7209
22.4929 25.5488 77.4788
22.7697 15.2086 63.133
32.6497 17.7992 37.1436
18.9232 32.6223 92.8437
18.9339 24.5408 71.0139
22.5533 30.3562 107.997
32.3767 28.9356 79.4606
22.5961 23.6721 77.9646
19.9672 23.8603 103.951
24.4802 28.3268 46.7583
22.4648 23.7008 73.047
23.3754 20.4236 67.3673
26.1583 30.3425 95.0261
26.0225 33.0726 98.4292
29.4576 35.3017 110.824
24.7316 26.0736 93.5741
33.5156 30.0669 78.0322
21.9624 24.2733 62.1322
28.1243 33.8837 114.167
18.6873 16.7299 50.9139
15.8211 32.9272 128.42
25.5075 30.3762 99.4676
21.8903 21.7037 67.0996
18.0698 24.636 62.5124
21.9682 18.8251 66.1979
20.8851 26.5335 82.2438
24.7122 28.2881 71.4337
22.1523 24.1272 83.9595
24.6217 27.6193 88.3014
28.1833 22.4105 49.2247
27.9961 25.1706 76.957
25.3194 33.5067 99.7206
19.5214 17.6104 73.922
28.1417 22.1897 72.6154
26.5059 20.2466 66.3304
25.3353 18.2839 49.0647
22.2735 19.6392 79.8176
33.4853 26.8955 101.104
39.3775 32.4831 91.7471
23.6965 24.4275 77.13
29.886 28.0318 67.8136
19.4837 26.3408 109.998
26.0583 25.0298 83.7316
31.1818 28.4305 74.0497
26.1134 31.9948 105.475
29.3519 41.688 96.6325
25.5757 19.2982 88.302
24.3851 18.9965 81.2441
35.7377 23.4172 62.0412
23.321 24.2353 99.6648
39.8601 30.4697 79.0267
26.7207 36.984 103.794
31.368 20.0739 87.7781
37.4644 30.2704 65.0707
26.8741 27.6351 97.17
20.2618 25.6936 79.2525
20.0611 26.5244 68.4732
28.6387 23.6511 78.2095
30.5289 17.142 65.3266
28.4831 24.196 63.662
22.5058 38.7441 118.088
32.5968 19.7178 90.3093
37.8865 27.3339 62.1386
23.7656 29.5941 114.484
31.0485 24.3411 73.9527
23.6561 19.87 74.2399
27.0691 13.13 73.5643
23.9677 21.2669 45.9948
24.6929 19.2207 67.8521
35.8234 28.5051 70.019
28.8483 23.0806 83.3495
33.0548 23.7255 69.2717
30.3226 30.7733 80.7673
24.0537 19.9353 82.2012
28.6596 12.8329 46.4413
27.4773 26.0541 112.123
21.495 33.1874 97.1325
34.087 24.7312 81.9387
34.8983 31.2039 105.33
23.6399 25.2711 86.8143
23.2126 28.0531 80.4687
27.3832 17.6035 64.2338
28.1787 20.3481 52.8016
24.9366 21.7326 96.2191
31.1344 20.1937 70.1085
27.6389 40.9389 145.095
34.489 21.8827 67.6109
27.86 24.4817 77.8187
24.0554 21.0517 69.3918
35.5422 33.645 110.012
29.376 34.202 104.125
26.6259 22.9581 111.359
28.672 20.9804 47.1833
23.1759 22.53 113.384
37.871 36.1597 107.951
29.8762 27.4998 71.6581
26.1586 20.6522 47.7959
29.2102 21.5941 87.602
24.2792 21.3324 84.0132
21.4776 22.7232 81.7129
28.8318 20.6071 55.0444
25.3348 28.188 107.67
27.787 20.373 86.889
27.5897 34.5514 123.626
29.575 25.9032 37.4868
25.0974 25.795 76.2297
28.7581 25.1411 89.3542
31.1107 29.9784 82.8294
26.68 27.9288 75.2681
24.4413 20.9324 87.3385
26.6868 29.6058 100.795
22.732 28.4144 99.2085
24.5574 20.6263 66.3234
22.8378 16.3015 66.5763
23.7058 31.3241 89.6073
24.9043 16.6002 105.902
27.49 42.514 105.726
21.8013 25.6738 85.4879
30.1399 26.6645 92.8238
24.8644 23.0262 82.4293
25.8207 26.7062 65.4854
25.6419 22.6567 62.8695
21.5457 21.2555 94.002
24.0726 26.7525 69.3284
18.7162 15.5276 90.4395
24.2812 20.1144 84.9905
31.334 38.0481 93.2923
23.7827 16.8482 62.1839
23.7095 24.1184 70.517
21.4742 18.4218 87.7585
22.6584 31.9171 96.7328
23.501 14.7137 73.0882
23.3706 20.1144 78.0065
22.3227 23.2612 64.5485
22.1353 27.5906 77.7215
21.5989 27.1987 89.1031
21.0657 8.77454 59.6737
27.9093 23.6397 78.5136
23.9444 35.7335 129.65
20.2809 25.2245 91.6108
26.0006 36.5174 110.909
30.4874 29.5229 86.7752
21.1851 23.6978 78.5069
16.9981 19.9329 97.1338
19.882 17.4319 83.3433
20.4352 28.6198 109.873
20.6455 29.5571 80.6968
17.172 19.46 89.1279
18.8358 24.7754 81.8213
22.7069 20.9758 52.4699
18.1076 19.6113 81.6085
19.4811 20.4787 64.554
19.0677 20.6772 78.7955
24.216 18.4554 66.3691
21.0818 29.8837 128.32
20.8566 21.7114 77.4468
20.7845 22.4246 78.8207
24.9125 21.4545 76.5949
18.2876 24.3829 60.2869
17.4319 22.2606 85.8855
19.6444 23.3792 97.5563
29.7385 36.2754 123.763
28.8019 23.961 74.3524
17.1748 21.7139 69.6494
21.8161 16.7366 44.9948
24.2115 24.7328 79.3561
22.8586 15.81 100.285
17.0906 23.9319 75.7516
21.1575 20.1037 63.0645
22.9051 27.262 94.8447
18.0087 18.2406 86.4532
20.5643 23.9283 66.1165
19.5813 23.012 99.4221
21.9113 34.8107 102.008
21.6791 25.7913 90.9584
19.5612 16.3662 78.5843
21.6426 22.0508 84.218
25.4381 25.4985 73.9539
18.5523 30.7572 119.59
18.8148 28.197 80.3902
14.9456 17.3401 54.7704
17.4137 14.548 85.6804
24.1478 31.1303 127.664
24.0253 25.1615 55.2733
19.5657 18.9124 62.5463
20.2595 15.9992 31.0912
17.6801 18.5374 76.7649
14.713 21.719 96.3839
19.4178 23.1067 119.03
27.8747 37.1645 113.967
23.3062 25.1426 120.857
21.951 28.0522 58.1905
22.1774 12.8035 68.4439
18.5822 31.7261 80.8428
20.1846 14.6575 55.5514
16.8539 14.2237 68.7684
16.1374 23.3499 71.8064
20.101 22.9045 98.213
20.5525 23.3873 79.0721
19.703 20.2137 91.0516
25.1558 21.447 43.6661
21.278 22.8503 80.1271
21.9538 17.6668 95.3576
21.2409 19.5579 70.7578
19.8705 24.3237 93.7627
24.605 23.3193 64.4958
21.299 16.4263 85.6554
19.6627 33.525 112.872
14.1056 22.3922 97.7036
23.1097 25.0771 71.9461
22.7072 36.5128 130.126
19.6368 26.4192 129.483
28.2843 15.1279 55.9407
26.8721 18.6273 70.9465
18.4493 21.626 90.1654
19.5459 26.1377 69.6346
23.3125 21.3283 100.468
19.5848 25.422 59.5787
20.2902 19.7363 71.2051
19.4593 18.8419 66.8086
18.672 20.6006 89.4655
21.932 24.773 77.2084
18.9401 16.332 73.3489
18.8992 24.7853 74.1655
14.5655 12.1131 61.0157
17.6349 11.2851 43.9166
17.6989 22.6756 97.9587
19.5162 18.361 54.9841
18.2391 13.1929 75.9739
18.5679 21.6127 62.6869
20.4132 18.3409 70.0296
15.9491 23.9987 93.1481
21.2687 19.9751 57.1839
20.205 16.1036 84.5549
21.2841 18.0606 60.3671
20.682 20.2694 84.6182
25.1408 23.397 75.5733
24.2302 17.5673 51.4822
19.395 21.9446 98.897
25.6853 26.6673 95.4729
22.3234 16.3446 69.285
24.8716 16.7031 37.7074
13.718 15.2264 71.6327
15.215 22.6807 84.5575
19.1843 20.9237 54.7475
17.2357 18.4922 80.4665
26.8056 18.4702 77.8882
24.9326 19.408 86.9811
22.4831 22.2919 68.7514
19.5572 23.2036 67.3518
22.4672 21.7308 82.7912
19.2496 18.0578 101.086
20.9167 25.2916 82.1346
24.652 27.9657 89.3834
21.3102 16.336 46.8276
14.181 20.9179 94.074
25.1973 26.9535 124.708
25.0515 29.6838 81.9577
14.2921 18.4624 126.109
28.7521 33.4003 85.8122
20.4586 19.9533 87.1212
19.999 22.725 100.084
23.3831 21.6859 84.9543
16.8278 32.6004 98.6459
16.3923 16.2857 77.3845
16.4842 24.6769 81.1749
19.8343 22.6345 92.2391
19.1474 30.1937 84.39
13.5703 19.6578 82.0545
17.1597 15.502 72.8839
17.8657 30.803 109.792
20.158 19.7547 94.1718
23.2385 19.9518 63.3083
16.0406 19.1107 60.5316
21.8375 14.8341 63.8498
13.1683 28.5733 76.271
17.4843 10.284 62.4012
18.1479 18.7431 60.5638
20.224 16.9357 103.664
13.9296 23.5394 75.1209
21.3132 21.3677 69.7269
19.916 14.0976 56.9685
26.0308 18.8294 92.6229
16.4978 19.9523 65.246
21.8983 23.9352 72.8141
21.6408 25.1198 86.7671
20.0604 18.4017 73.7487
18.5507 11.2144 44.6404
17.7757 12.6472 53.9298
19.1213 22.0676 84.1108
17.4085 22.7272 89.2151
21.3657 23.0446 75.0216
18.3839 24.7801 98.0186
16.3993 10.3542 55.1409
22.5275 24.4675 114.822
18.1046 22.3849 65.4095
10.7364 21.2157 73.2015
19.6236 20.4347 65.612
16.9322 23.9552 113.695
19.639 19.5956 99.8883
18.6944 24.0868 41.4071
12.1526 14.3759 66.5904
13.6635 19.2519 88.9615
19.2189 16.2731 38.9371
14.7114 13.7774 66.4227
15.9078 16.9713 72.9058
18.9181 27.1588 89.2125
14.0335 19.2416 74.7929
20.2932 20.58 87.6273
17.0891 11.7831 93.4455
21.2377 30.6871 113.227
21.7946 24.7773 83.4522
14.1265 25.34 119.533
18.489 25.017 94.4032
20.9757 17.6311 41.817
15.992 18.9915 71.1757
22.7553 17.7912 45.9037
13.167 15.1592 82.3627
19.8415 14.9639 79.8869
18.0855 27.1002 83.7011
16.7975 15.239 73.5956
18.5167 18.5407 47.1827
13.3593 16.7929 65.9801
16.0113 16.1515 64.5113
14.4891 22.3569 86.8665
18.0641 21.543 79.5356
15.4584 20.4896 90.493
15.7352 23.2785 101.232
15.361 22.1812 84.9995
22.8153 21.7168 80.7461
21.335 26.6764 87.5728
14.4491 13.7631 71.424
16.5659 21.1509 65.8073
17.4923 19.7301 54.3403
13.2199 15.0073 61.0413
14.1818 19.3578 84.113
11.5995 18.9259 61.5444
16.7579 15.2239 54.2646
13.7114 13.2841 122.35
17.6387 27.0037 87.1343
12.3884 20.0456 77.708
18.892 18.8169 59.6977
18.0224 16.9821 45.8853
16.2251 10.0329 61.061
14.2115 17.2896 61.8392
18.0648 21.7883 98.0803
16.2075 30.9379 116.958
18.7649 16.4469 46.9817
14.2361 13.0196 43.1847
13.1501 16.8619 94.2723
14.0768 20.0911 46.4139
14.9385 22.1582 93.2647
14.7258 10.1013 59.9474
15.9167 20.2347 120.987
24.3968 28.6777 76.7597
11.3158 23.7168 70.1286
15.5039 11.4277 63.4054
15.7449 17.3686 79.3813
19.8216 24.097 84.7694
15.813 19.5159 77.9663
15.4102 16.4537 48.5959
17.0557 22.921 99.9268
22.4614 20.7429 102.099
13.9702 17.1202 80.0742
17.9796 19.0814 64.5617
17.9208 24.4681 71.8016
10.0033 43.786 118.832
18.0267 13.581 86.1445
15.1833 18.629 96.841
14.8583 36.5107 142.014
19.5533 23.901 73.5304
11.1499 18.8132 115.509
10.3866 24.1901 62.4804
20.9664 26.3645 120.209
17.5078 22.0486 52.273
12.2573 16.5109 79.9669
15.1467 26.0376 118.47
21.7183 18.5974 68.5294
17.1337 29.2253 68.7779
13.1851 14.4583 95.9993
16.8494 25.5657 118.375
15.2542 18.5155 74.1774
16.5818 22.7944 52.9615
12.4595 16.3593 104.146
14.5293 24.5349 76.2605
13.1757 25.9315 70.5021
12.7045 14.5057 56.1702
15.9983 14.5889 117.874
21.1991 39.6538 105.191
19.3383 26.8785 100.328
17.7614 15.8372 93.8718
19.4026 17.189 92.4931
21.6351 18.9292 41.344
13.6907 13.488 64.1257
14.7994 18.0389 79.8099
15.4244 17.9901 62.8373
12.6255 23.4603 84.7908
18.287 27.6764 122.584
19.225 18.0485 59.7365
19.8158 18.3092 55.3308
15.604 17.7975 59.7631
15.9018 10.7468 70.4128
15.6574 22.9179 86.8044
16.0678 22.4559 84.6142
14.1173 15.6513 85.7333
18.8826 26.4158 88.1278
16.1415 14.5172 75.2721
11.1779 33.8999 119.57
15.8552 20.9974 66.7849
14.1723 22.521 94.1925
15.4314 15.0444 74.7295
12.0019 20.3589 85.71
17.3444 19.3285 72.5971
14.1319 20.2799 43.5239
13.5908 11.0466 76.7454
14.2654 28.7503 119.333
17.9726 18.3766 88.0025
16.3096 23.2761 98.0766
16.1935 28.989 82.5517
18.0139 21.5355 81.4359
13.8879 26.1715 84.3307
19.8231 17.9135 83.1979
18.2783 14.9608 61.0022
14.6347 26.1334 94.9648
23.4292 23.0338 115.671
23.3518 28.2895 93.1869
19.9635 18.8114 57.9208
11.8546 20.653 112.433
21.1124 28.603 106.999
18.9685 23.3581 87.2992
16.1505 20.3272 75.6525
15.1887 18.6907 54.4493
12.835 14.6726 86.7757
16.815 14.6498 48.6693
14.4812 13.6307 90.2202
12.9317 22.6106 77.3299
16.9005 21.5198 96.8012
20.1617 31.6784 78.8249
20.266 14.6371 47.6676
10.4343 21.1112 113.767
15.1679 15.663 66.5891
18.9349 23.3989 63.576
13.9997 18.7387 83.379
11.858 21.5238 92.6065
16.146 29.2023 103.942
16.4621 13.8105 75.3811
12.2401 13.2662 49.0573
13.5613 24.2286 122.541
17.2462 14.0312 85.3351
15.2001 32.6408 111.766
20.8187 25.3936 84.3124
11.313 14.3529 80.008
12.9385 21.0279 107.464
18.0746 25.1265 85.0266
13.3368 20.8365 74.1147
13.2507 23.6223 80.729
16.9884 25.6196 85.8575
18.72 18.5739 83.4364
18.3409 19.5071 74.7685
14.8587 15.4875 63.1945
15.2126 15.6307 62.0504
18.882 24.6141 100.459
19.0839 24.1358 104.575
19.9369 23.4196 73.6671
14.3114 16.7562 84.3123
15.5175 19.4877 83.8196
11.5324 20.4968 52.2764
12.2164 12.18 84.7841
16.5215 17.3778 74.04
17.6319 17.0496 74.6206
17.0923 27.3219 103.691
12.0615 0 0