# pn-170911/CsIIF-72-WTZR-1280-1959.psd
# Power spectrum* (dif=0,1,2) (really just |FT|^2)
# NOTE: only the first half! (symmetric)
# weeks: 1280-1959
# 6 clock-days, 0 excluded
# PSD: 1441
4860.88 0.324159 0.0100355
285481 10.9176 0.00865091
286436 5.57403 0.00812793
505226 16.4432 0.00991233
315517 21.7069 0.00813885
75025.1 5.13785 0.00883403
194595 34.492 0.0212575
32830.5 6.50416 0.0138906
34867.1 9.41429 0.00812227
42650.8 18.2004 0.0184281
62004.4 18.8397 0.019955
43416.9 20.0992 0.0199413
28045.5 13.4431 0.014644
52995.2 32.2515 0.0320717
19310.4 8.84275 0.0232325
18563.7 16.5414 0.0304244
24440.1 27.5181 0.0423208
8116.15 9.96205 0.0176099
16360.5 24.506 0.0431883
5844.05 5.71549 0.0239241
14326.7 21.1078 0.0552937
14562.5 22.2462 0.0629871
8540.13 9.83584 0.0385917
7437.56 19.4137 0.0560451
5744.35 10.2399 0.0314372
3676.05 13.2747 0.0530577
7745.95 14.4193 0.0552338
6587.18 13.7698 0.0315088
9599.76 25.405 0.119258
6579.73 13.7889 0.0677392
3633.48 8.89251 0.0423624
4691.29 14.5558 0.102702
4766.47 22.2825 0.106655
9092.89 28.6634 0.171554
3960.88 14.9474 0.105764
3787.57 17.022 0.103104
1511.33 10.3304 0.0725378
4733.81 19.2679 0.129482
4126.15 19.3074 0.154209
2369.6 16.5739 0.149735
2473.64 9.99587 0.110868
1823.72 8.70257 0.0839205
1710.96 10.6987 0.128737
3453.8 18.7947 0.179006
3116.72 12.3791 0.133146
941.686 5.77517 0.0704719
3406.92 40.9337 0.403077
2627.89 19.9246 0.177827
4270.69 36.0888 0.40049
2231.94 20.9198 0.294609
1082.55 9.29563 0.116371
2634.35 21.5224 0.285952
623.327 6.41284 0.0904103
1226.1 13.1261 0.229425
1279.69 16.3022 0.223775
1094.19 14.3779 0.187212
2533.79 25.3598 0.432785
1255.59 15.4312 0.271701
1372.54 14.6123 0.246317
1291.71 19.9289 0.290855
1157.72 17.8623 0.296606
2229.75 33.0248 0.575875
1487.65 15.7945 0.287883
1160.7 14.2897 0.246966
1021.72 10.081 0.237396
2020.9 28.6668 0.636934
1368.95 17.8894 0.40152
773.66 14.6556 0.281321
579.512 9.87269 0.176921
1317.74 20.9218 0.517883
732.642 20.0845 0.449404
1380.98 38.9591 1.03209
1017.02 17.359 0.418383
680.271 18.7032 0.413445
590.243 9.88816 0.254865
829.86 20.1352 0.519351
226.631 4.5913 0.117357
547.85 10.0547 0.247256
435.217 8.85417 0.271983
977.721 20.411 0.651619
571.184 16.2472 0.467167
505.296 17.0277 0.526959
917.133 14.7657 0.42755
774.39 16.1355 0.529621
711.044 16.8986 0.538113
660.136 22.971 0.863609
771.677 18.8086 0.749549
274.52 4.8633 0.162486
525.398 13.3312 0.529803
170.993 6.05028 0.222356
418.53 10.8349 0.402521
284.576 10.7958 0.36188
325.318 12.41 0.438292
498.033 19.334 0.816739
535.731 20.8227 0.802446
459.81 15.0295 0.701553
339.748 8.85594 0.40123
364.705 13.4818 0.591299
610.843 19.438 0.98923
353.836 19.0999 0.844806
647.065 36.9602 1.65516
404.167 11.7666 0.541965
181.793 11.7811 0.584647
674.281 25.6668 1.20532
274.571 3.70188 0.202251
663.932 20.9828 1.07598
449.903 17.2146 1.01768
273.142 12.0934 0.736853
736.121 27.7204 1.38257
348 20.7899 1.1452
295.85 15.489 0.829791
258.372 14.3106 0.827321
314.552 11.4542 0.705346
170.817 10.4104 0.71612
193.637 6.55901 0.341374
564.506 27.7095 1.77441
303.227 18.0537 1.14494
440.863 17.8994 1.19466
299.455 18.6487 1.24536
355.754 25.374 1.80509
698.872 35.283 2.3768
224.194 14.3903 1.01009
302.259 18.2538 1.35063
105.277 8.28802 0.613939
449.454 16.9226 1.16012
144.741 7.57902 0.615534
475.251 25.3595 1.91506
226.5 12.1919 0.995178
290.062 14.5052 1.15406
192.661 9.56004 0.681206
282.81 28.1586 2.40612
157.037 5.18416 0.304924
250.681 16.7343 1.35008
163.706 11.1242 0.912671
152.739 8.74704 0.742065
262.105 19.3241 1.71599
248.142 22.4294 1.92887
391.074 30.4932 3.19142
263.843 21.0106 1.63948
206.272 7.1111 0.65004
402.556 23.2792 1.86757
158.124 8.08996 0.725947
252.981 17.3125 1.60837
166.47 10.0415 0.992328
262.511 27.6275 2.7464
272.98 18.3911 1.72509
180.758 15.5869 1.854
130.646 12.6071 1.18975
183.742 19.9768 2.07363
147.667 10.7004 1.07001
264.02 29.3867 3.17138
178.533 9.862 0.976829
150.35 9.92301 1.15951
223.045 12.5708 1.34177
208.707 16.337 1.87543
116.174 9.31897 0.944686
135.673 19.633 2.20537
164.829 12.061 1.61331
191.367 12.6959 1.31948
71.204 6.53831 0.883909
232.261 19.4937 2.32748
112.434 13.6184 1.66623
340.567 34.209 4.15618
63.2533 6.99785 0.885278
148.625 20.8945 2.66026
176.442 14.8566 1.87706
120.738 16.0014 2.14655
321.104 28.6926 3.76277
138.955 16.9804 2.19004
161.362 18.9785 2.80721
97.0498 12.0487 1.7371
90.0128 11.641 1.49213
138.487 11.2402 1.63919
49.3543 9.63421 1.60015
109.223 17.6227 2.52777
112.063 13.2749 2.02975
87.2922 12.8358 2.08477
95.8836 13.683 1.84194
153.604 17.938 2.66125
205.524 29.7283 4.53505
265.757 38.3584 5.97433
161.641 13.4231 1.67342
219.26 21.2944 3.20434
129.726 14.2091 2.46274
114.233 16.3226 2.53685
132.076 13.2449 1.99034
113.869 18.6505 3.38709
97.927 9.67423 1.46347
147.304 12.0738 2.17377
85.8903 12.6851 2.06454
157.984 23.6481 4.1295
101.989 8.31746 1.34914
132.641 15.865 2.89344
206.481 23.6899 3.94133
89.4358 13.6137 2.37242
77.2117 12.547 2.25788
132.165 17.1432 3.3288
90.3696 10.8011 1.97294
110.842 18.7286 3.20667
127.299 19.1771 3.77928
73.4809 6.71652 1.30363
65.1412 8.00689 1.3203
116.132 25.7626 5.18462
156.787 17.7284 3.08361
97.5941 11.4688 2.43284
110.945 21.2409 4.49692
72.2508 15.5424 3.06558
142.826 20.2074 4.50953
192.309 29.1215 5.44609
113.062 19.5372 4.17515
60.0285 10.8547 2.41254
86.8811 11.9194 2.08944
155.84 20.5529 4.06949
49.3756 11.3013 2.52244
83.0209 12.7817 2.56939
50.3989 12.8884 3.1761
140.96 20.525 4.45874
120.003 23.3931 5.00356
92.8263 19.3923 4.57603
116.581 11.0338 2.13115
87.842 11.7903 2.63551
82.1454 16.4003 4.02305
120.203 18.8517 4.14402
77.6881 15.2807 3.19756
117.064 29.1616 7.25822
90.0256 8.85863 2.19227
65.9278 13.1174 2.84917
92.1913 19.7276 4.56328
49.9267 7.7809 1.89423
101.058 13.1883 3.15548
106.452 14.7777 3.6559
86.783 20.4114 5.81132
57.6179 14.3126 4.29933
60.6719 12.9692 2.78008
79.7316 15.7225 5.009
141.844 29.5505 6.04685
131.183 27.7626 6.92047
79.1385 16.6697 4.60611
72.3703 23.6817 6.10195
73.2446 13.5384 3.70973
77.7093 14.9915 4.4192
84.0687 14.2595 3.57901
51.9628 12.4298 3.97422
111.336 25.1348 6.82879
56.663 6.54166 1.76718
85.9902 13.9732 3.55257
71.6961 15.6644 4.86869
136.688 22.0098 5.76651
122.172 22.3406 6.16597
41.9447 10.9876 3.71823
50.9308 13.4544 3.76424
49.515 7.48214 1.90171
41.4487 10.1995 2.89547
66.5947 20.3371 6.85548
53.0979 14.6681 3.97243
48.1154 11.6359 4.05304
51.3785 15.7255 4.89434
78.4494 16.9259 4.78249
87.307 21.0504 6.2778
37.6546 17.1666 5.54065
58.3936 10.4884 2.61282
48.9997 9.97891 2.88595
77.6823 21.146 7.0654
56.7654 9.11961 3.16885
34.3839 13.7853 4.90981
56.3686 16.6232 7.03882
142.888 31.3645 8.83971
58.4879 13.7329 4.76987
90.8674 24.1786 7.77067
47.8271 14.467 4.56856
44.6038 7.47522 2.56753
65.9985 17.2682 5.55406
44.2881 11.6062 4.39079
61.9728 14.915 5.42234
28.0469 7.69521 2.51905
89.087 19.1546 6.17016
46.541 13.7066 5.39366
60.4396 20.869 7.70217
112.269 29.8923 8.33649
78.0256 28.823 10.6087
91.1695 36.4526 13.3377
33.8538 8.83169 3.52005
50.8501 17.6199 7.50811
33.7713 8.20991 2.81965
49.2317 9.31021 3.48085
62.3015 11.9265 4.11228
41.4745 11.5875 4.74892
76.9255 20.8013 8.49625
64.743 18.7201 7.08511
29.9283 12.7947 4.91162
34.3957 10.488 3.75232
34.9845 8.78205 3.45641
29.1827 13.7572 5.98659
61.1802 18.8855 8.53633
95.6036 19.5354 6.38657
46.9004 16.9829 6.36211
64.4606 12.6835 3.93245
43.2809 14.111 6.80315
73.2767 20.4202 6.98215
51.0799 16.8786 8.26271
35.2567 10.4082 3.91823
32.1582 10.4416 4.86693
76.2797 22.233 8.85768
34.6285 12.1761 5.15097
74.95 26.33 11.5161
80.1516 22.6033 8.95154
66.0902 16.2276 7.76313
55.3329 22.9289 8.95964
35.447 15.156 6.94992
95.3109 26.5012 11.48
18.5547 11.5266 5.47465
53.1497 12.9554 5.19782
44.5568 19.1954 9.03256
66.8566 14.1404 5.54572
29.9075 7.00806 3.69898
54.4449 17.0174 7.38264
31.1282 13.9351 6.74102
44.8388 19.6554 9.09415
14.9811 4.23633 3.02786
19.364 14.2838 6.48598
43.4122 16.0386 6.84231
19.1489 10.1074 6.22134
31.1197 12.9662 6.54393
65.1195 16.3916 7.46363
50.9886 20.2224 9.21766
61.5897 15.8613 7.73374
22.5864 9.23748 4.814
40.3567 13.4095 5.723
67.3305 21.6105 11.3379
41.8658 24.915 15.2995
66.1375 26.5647 11.667
42.0043 25.542 12.61
18.837 9.49093 5.67692
41.173 18.845 9.71179
38.403 17.7747 9.02658
71.3861 17.565 7.72975
55.6314 13.2477 6.51411
92.9369 37.1689 18.0609
43.6182 17.6784 8.12528
31.8487 11.311 7.81891
37.1128 18.8125 9.27673
23.162 9.48199 4.92924
11.0139 6.04681 4.02192
51.4618 27.9186 15.4836
24.8223 5.26407 2.76335
45.2394 13.5627 8.04988
41.234 17.9262 8.49406
41.9616 24.8017 13.1545
33.1778 13.6971 7.77687
39.3822 13.659 8.32023
30.4167 17.3326 11.6294
27.4608 4.80933 1.85974
50.1257 24.543 11.3132
35.2003 17.9915 11.2441
48.4481 18.5959 10.356
42.2901 20.85 10.047
37.8871 13.0725 7.92255
24.3154 8.40941 5.69246
18.9431 6.47875 3.18111
9.8783 8.93905 7.04465
26.8843 11.3516 6.2879
43.7396 21.7511 10.8527
33.9373 14.7092 8.02566
8.66712 10.459 6.94528
33.3915 29.6403 19.8467
75.3808 22.6429 10.0408
34.9592 14.8908 9.75928
44.8501 19.58 14.0424
43.029 21.4739 13.455
36.3094 18.1418 10.2636
41.2172 22.0458 15.7988
36.1084 18.0064 10.0077
21.7297 17.0121 12.3285
41.0275 11.5381 5.90422
25.6032 16.1167 10.6519
32.7607 12.3722 7.742
42.8588 17.6242 9.47831
33.045 25.3377 17.162
30.5157 20.7459 13.6289
39.0417 21.3383 11.9796
40.144 20.7229 13.9255
26.8296 14.3673 10.4184
70.4872 35.3258 23.5471
21.2958 7.64876 6.77096
40.647 23.4482 16.507
18.8288 17.2657 11.1441
27.1701 16.7895 11.4262
42.9366 25.2734 16.7471
22.3763 5.51554 4.63135
57.6726 21.5585 13.9302
25.0814 17.5838 11.6732
25.3261 14.9182 10.6593
19.983 7.28552 6.13817
40.3515 22.9573 14.9665
28.8018 18.1862 12.9616
34.7068 13.5059 9.1355
22.9095 15.5865 11.3925
24.931 12.7447 9.86487
36.8859 27.5198 23.8734
41.814 14.5907 5.444
47.1439 22.7909 15.0475
25.7442 13.8152 8.36813
21.706 12.6662 9.86401
22.0439 9.8394 8.3394
41.7486 29.552 21.2532
22.418 14.4675 10.0584
23.7161 13.2457 11.8032
49.5981 17.3571 8.18955
25.061 18.5902 15.4394
29.5819 16.8923 12.0169
29.1952 16.4969 13.2773
30.5174 20.9717 16.004
23.2328 19.057 16.2027
20.4128 8.8317 6.69064
18.9618 13.0158 8.94389
32.0492 22.2784 18.5643
16.5087 3.70624 3.86167
35.8339 19.708 13.7047
18.4064 15.3659 14.8061
25.6735 8.07788 6.4978
12.4219 7.39509 7.31175
34.8182 22.9142 16.6693
61.9211 31.771 21.3481
23.1875 14.5606 12.6758
16.3759 6.85082 6.97483
35.2081 23.3064 17.8265
31.6815 27.3249 20.9941
17.7345 13.0654 11.6838
28.664 12.0035 8.41687
50.1486 32.447 23.7245
21.5682 8.70372 5.88491
23.3333 14.0401 12.6097
16.6421 8.16015 8.99961
38.2794 31.8399 26.4842
22.1504 11.5963 11.32
32.1212 22.6476 18.2582
17.8636 10.8534 9.04622
16.5089 12.9826 13.6386
30.6263 15.946 10.4973
29.3478 13.5497 13.1048
31.7759 23.0552 18.9683
49.3756 27.5793 19.8381
14.7817 13.3418 12.1546
7.31636 6.22033 8.95231
49.5573 19.8181 12.3035
16.9923 6.77049 7.14824
22.6455 16.8338 14.1735
14.8487 6.13869 5.93047
34.2448 25.3745 20.4432
25.4597 16.1941 12.4581
23.7364 11.9892 11.6034
10.62 12.2593 9.73087
25.9035 17.5701 20.1583
18.691 14.8537 14.427
24.5856 13.4958 11.4282
20.6897 7.42259 6.65689
28.4124 14.3608 10.8743
17.2866 21.2491 20.6181
17.8682 12.1628 10.9042
11.5983 9.99959 10.033
21.5649 9.78789 8.96934
15.5332 6.9421 8.2108
23.367 12.4724 8.7677
20.7449 12.1073 12.0356
21.6248 10.3035 8.51515
20.9812 20.6633 22.4998
19.0977 11.9449 11.9111
19.3824 18.2875 19.1636
33.3042 20.3622 21.6424
24.108 15.6421 15.1535
32.5781 15.7326 12.667
27.3433 12.7879 10.9716
23.9009 19.5909 19.3766
16.6807 18.6319 17.8526
48.1022 45.3271 41.8375
26.2037 12.7147 12.2409
25.2658 13.5451 13.1355
21.6695 18.938 17.0221
14.9815 13.2317 15.063
16.5002 14.0586 16.766
37.7273 26.4801 25.2612
25.7578 25.4665 25.0111
14.3502 15.0295 9.90776
20.58 24.63 25.4261
21.7868 18.1796 18.9056
22.018 16.7905 19.0179
17.7964 12.5313 12.1228
15.4278 10.048 12.2361
10.901 16.8809 19.3075
20.2662 12.1069 11.0351
29.8825 30.0079 28.8082
9.95023 19.113 22.3563
14.7 10.1136 14.9351
38.14 23.3295 20.4845
13.4421 8.74466 11.5806
33.2304 17.8257 13.0724
25.0713 21.6506 30.5739
33.6157 27.5296 25.426
22.7794 23.0511 21.6445
13.1636 13.142 16.0286
28.9038 24.207 27.7808
22.6861 16.4189 16.1609
19.639 16.5061 22.3446
21.1587 23.8746 27.1808
20.9532 16.1663 16.8069
23.584 12.8715 10.7113
18.7355 14.6258 18.1365
12.5069 18.7682 22.701
21.3931 20.5878 20.9876
10.942 6.06419 8.21457
11.5891 17.3437 27.19
38.3984 30.1993 23.3908
12.0522 14.0331 16.9744
16.7776 17.7641 25.2924
32.0311 25.0694 24.7386
17.5227 19.7634 21.9555
13.0461 11.486 9.21621
14.4149 14.7378 18.7029
23.9191 17.7365 23.6546
19.1268 15.8633 12.6051
14.7896 11.3427 16.4387
13.8199 10.5472 12.4636
22.1625 29.3486 33.3766
10.8597 15.9294 21.0909
15.3668 9.85102 13.3831
23.039 24.1214 21.5402
11.77 18.8221 27.6686
25.8312 18.8229 16.6793
14.4575 18.8713 30.104
22.1969 12.6935 13.9442
5.2433 11.451 13.4343
16.2128 23.1245 28.6952
21.4503 13.3904 14.1586
16.8405 12.8775 18.3843
19.6538 21.1275 28.9576
19.8669 16.3969 17.6425
24.0292 18.3291 24.7747
17.6484 18.7406 17.7983
12.5723 10.0382 18.6045
36.0004 29.3483 26.4443
14.4782 16.2428 18.91
15.6723 13.45 16.6191
15.4095 18.0436 23.7225
9.34527 6.01338 10.9006
17.6845 15.2589 20.399
26.2759 18.8148 22.8426
20.3923 14.9723 14.8166
22.7014 18.9955 21.4912
13.2287 6.06606 7.96121
21.9641 18.776 25.7857
14.6417 20.4453 29.2682
24.2747 25.3644 35.4072
13.4396 19.0732 22.1419
21.9408 26.716 33.7972
9.19473 14.919 16.7964
11.7249 16.9362 27.9635
22.2778 11.4774 12.7827
10.2494 11.0408 19.5624
25.5717 18.3165 21.2255
17.2269 21.8618 33.4281
30.2376 20.7705 22.2241
21.6527 20.7896 26.0284
12.0066 10.2247 12.1412
17.8601 16.1657 17.962
16.2015 15.1976 17.1716
7.76361 11.2726 18.5225
30.0706 41.7613 53.3679
8.57334 7.36282 15.9598
18.9893 8.81636 7.15892
32.6418 31.3076 39.7276
21.004 21.3029 29.4546
8.8475 15.9755 18.7084
8.20726 7.47328 13.9205
19.109 27.8937 38.0428
16.9398 8.23111 14.1395
10.9729 21.3206 27.991
10.2076 5.4565 6.61894
14.8017 20.8131 27.174
10.7393 14.2612 24.4932
20.0122 22.355 32.6515
25.4855 15.3727 14.5811
8.49966 14.7304 22.7114
11.2216 8.79686 12.3569
12.2733 11.8601 18.2161
18.648 16.0935 19.2108
19.6413 17.7745 22.0404
7.9206 7.83952 13.6229
18.2403 15.6548 29.1395
12.2161 15.8966 18.8144
14.9609 19.5769 24.9813
21.6621 27.8867 36.4884
19.5931 16.2479 23.8274
12.1071 13.0734 20.3978
11.3548 7.79134 10.4669
8.86151 12.277 19.7934
18.1946 24.4461 40.839
12.5389 11.9036 17.5251
18.6204 13.9345 22.5167
9.10554 8.73094 11.1533
15.2452 28.839 34.5782
5.99257 10.3772 25.1952
20.5005 14.9058 21.8495
30.4467 24.642 28.1161
17.2993 16.7302 19.3054
8.90145 8.88743 15.1775
26.3669 32.6086 53.7079
8.187 5.75768 14.0203
18.5141 21.3611 28.062
11.4884 16.3119 26.7749
5.28039 5.5747 17.3511
19.5411 30.5144 41.6082
9.0745 9.57127 14.8218
7.91747 12.5885 18.2817
9.65236 18.0658 19.7309
6.75544 6.8082 16.8791
19.0007 18.2901 22.8689
5.19032 12.1767 23.1764
13.3542 9.37276 13.241
13.7773 27.4163 55.0334
22.3783 28.6451 33.6184
14.5433 24.3583 33.98
13.4326 12.9922 24.1299
14.3635 12.5299 16.1966
16.3253 18.4498 29.089
15.5657 12.3126 19.0011
7.52453 16.3088 34.4878
11.5698 18.0734 26.7514
12.603 14.5991 17.7004
11.543 13.5018 17.3593
12.4349 14.4958 21.4353
8.43551 17.1319 29.2068
16.1753 11.8702 19.9727
5.03641 9.52917 20.7316
19.153 15.6983 23.8101
11.9662 28.7266 40.8639
18.0145 22.4792 34.6276
13.0905 19.8842 33.2394
14.464 17.9 33.0338
12.7937 16.3258 33.0143
6.02496 5.3079 14.2084
8.55656 6.44593 15.6062
11.6225 8.73075 16.4411
17.472 22.91 25.9352
4.74778 11.4223 24.6502
13.4466 15.2465 26.4091
16.788 13.7781 17.4819
10.0063 22.3002 49.9889
21.6891 25.815 41.5624
21.3477 29.7274 49.494
10.4796 14.2516 17.3842
14.1795 23.8813 36.6512
5.93712 17.2897 32.1659
17.3172 17.7629 26.24
9.71756 11.4558 20.1201
5.66567 7.91515 21.3275
18.7706 24.5922 39.5807
12.4213 11.7242 20.3185
2.50235 6.92059 18.2934
7.76504 7.50894 24.2875
18.0072 18.6263 22.7878
14.9279 19.6381 26.9733
5.86305 5.04203 13.6869
9.85077 6.43017 16.9044
21.0198 25.2788 32.1604
19.4835 28.6177 45.6116
9.85375 14.494 39.2602
9.86377 13.6857 19.1985
9.04082 9.42954 12.4422
8.00326 13.5051 34.4303
8.80496 8.269 17.6027
9.78653 12.7391 19.1321
9.70195 12.8501 14.162
7.58068 14.0146 30.584
11.8472 10.5687 18.8336
15.3874 18.5714 32.2796
6.97507 8.6142 21.4242
13.3463 8.436 13.8678
8.96496 13.6569 27.9147
11.9556 9.43836 12.4936
10.3031 6.72834 9.76376
18.1479 21.7702 25.0418
12.7955 19.4445 36.6256
7.07969 16.4294 35.6452
9.98144 14.32 38.5397
14.5718 13.8042 23.0629
12.4648 19.0263 34.2927
18.3372 19.8675 30.6062
10.0045 7.74884 11.3362
11.7877 19.8737 47.4448
9.28179 7.56899 7.49131
9.70483 11.6415 17.0169
8.97537 11.9386 12.5468
9.26183 16.88 33.201
5.53849 9.66309 34.8771
25.4619 30.7951 47.2926
13.1382 22.8239 40.0112
6.35158 13.9497 29.1247
16.8034 22.9304 35.8023
5.91733 9.5603 24.4935
15.6662 15.4155 25.757
12.6843 17.0512 31.2724
7.12185 11.9053 31.6927
9.22101 13.3852 25.4665
9.39701 12.5564 19.4839
6.83123 9.19319 19.3248
8.85921 16.2506 32.1278
15.5305 18.3767 26.6354
5.18972 12.8811 34.7565
15.753 17.3834 28.7858
6.72754 13.076 29.5141
16.2003 18.4669 36.8897
12.4672 29.0343 61.5802
20.2495 23.8675 38.8489
13.3013 17.9305 34.1786
6.76438 10.4686 32.2381
12.8601 21.3743 39.3589
9.17669 21.0489 35.1237
4.16275 14.645 35.4594
5.40808 14.5468 39.1142
17.8091 23.9464 35.446
9.82384 18.7984 52.3309
17.565 22.4335 23.9856
11.3375 26.4174 56.0346
16.2226 23.5871 55.0699
9.6565 20.0227 33.0504
4.78992 22.4319 55.9199
6.26221 7.67944 22.4625
13.0285 29.3981 65.7303
11.0651 10.67 23.7129
11.4831 15.935 42.5337
9.71038 13.9932 39.2827
14.2297 23.2054 44.2748
16.214 16.8542 30.0934
19.6236 27.752 47.1908
16.5514 16.1018 21.3358
14.7476 23.6033 42.2624
13.6199 16.6458 23.4174
7.62984 17.6808 39.3793
11.6059 16.7078 34.2001
11.5142 15.3152 24.1206
13.1987 22.9592 57.7982
6.98914 10.5889 14.9177
3.26806 12.3606 35.386
8.82127 8.57921 18.4601
5.99481 10.7466 14.8931
4.66132 9.10756 29.8735
11.228 20.4553 48.6759
7.98497 13.9743 24.4925
8.13986 9.71567 12.0639
2.28295 12.2275 23.1565
8.71488 11.2009 25.9331
8.32972 11.7533 28.6584
7.07111 9.27972 24.2789
5.46397 8.42829 20.6424
9.21199 8.79701 22.5938
8.50243 14.4703 27.3689
10.1335 14.0626 43.6178
9.05968 10.5836 17.0919
7.41859 13.0303 22.6184
5.93907 15.1175 23.8943
6.16117 23.8792 62.7824
12.5955 11.8503 22.0114
2.4337 7.67936 27.9247
15.4099 32.7639 43.3676
5.40544 14.0231 42.6977
17.0197 23.7743 53.6143
9.21905 16.1721 34.7869
8.23045 18.4185 34.7363
8.08248 23.7188 60.2311
12.7385 13.0144 25.7876
9.0597 17.1596 35.0418
8.54909 14.3716 41.7116
8.59035 11.2204 18.0237
9.05183 13.3138 37.2982
12.6738 20.5971 40.8979
11.0753 19.3577 71.3791
21.9547 28.2841 30.6114
6.03597 17.5842 31.6157
5.05693 8.69877 36.1972
12.2343 10.8456 14.7825
14.3005 25.9539 61.2943
9.43781 12.8486 23.8541
5.92725 5.03886 13.2637
6.89923 14.8259 24.0114
4.38714 23.2823 75.4683
15.5438 17.0766 31.6055
9.41997 18.9629 37.8014
9.44592 14.573 31.1986
6.11604 14.9201 42.8279
15.2309 26.9678 44.4911
5.85542 11.6548 47.3212
11.4813 19.5051 32.7497
2.38184 8.30076 28.385
5.18701 12.3746 33.9346
9.7099 19.8986 36.2528
7.15535 13.8321 36.0011
7.44347 10.5428 27.663
5.06743 4.81539 13.1652
9.52135 30.548 67.9625
9.86259 10.7084 24.5304
6.86704 22.367 57.1703
10.7959 10.7618 22.5824
5.26166 8.09929 17.0461
9.80256 17.1158 47.9697
11.5794 20.3785 37.8651
11.1086 23.4328 57.7127
7.4248 12.9794 44.6621
11.0155 18.2367 50.8758
15.2116 29.9182 55.4952
9.47017 19.7438 44.3896
7.66639 14.5363 46.5901
11.7364 17.7361 29.3642
5.55242 21.7129 51.3839
10.8157 19.0968 71.2517
14.8537 29.8727 46.0291
7.72029 14.5774 36.3134
4.53188 27.2275 66.9761
10.4096 13.8244 30.4175
7.51872 23.9575 78.7797
20.1088 27.3877 48.8628
3.34463 10.1803 48.4687
17.604 28.7668 48.4488
3.51351 9.61564 29.5992
6.82001 16.3807 39.4991
10.9266 16.2576 46.5489
7.10549 17.3638 40.1935
9.94307 18.5157 37.2333
7.1465 17.8464 61.1174
5.67526 5.53141 9.90425
5.3114 9.93747 47.8102
11.0836 16.9367 29.6964
9.1115 19.9151 66.3363
11.1571 27.9072 45.2834
6.4577 12.6954 33.2559
9.69851 21.0523 50.3113
8.77907 13.7343 45.3484
15.8959 23.9623 45.9458
5.26049 10.622 22.8518
3.87705 9.91617 37.6286
6.60519 10.8968 16.383
9.3226 16.8924 30.8862
5.32017 14.6005 33.6806
3.72553 20.7467 55.2938
6.45155 8.73758 22.9822
2.35195 13.02 60.2388
14.2896 18.128 41.2996
8.308 15.0504 24.7524
8.83601 22.0334 47.3302
7.72359 20.7604 42.684
7.85512 9.00215 32.306
7.2999 13.1478 34.1686
12.662 26.6815 66.0499
11.7216 18.8962 38.5434
5.36923 8.44774 32.0011
4.79952 9.42158 34.7886
7.66478 17.4658 45.9376
5.64161 15.0595 23.7891
3.02635 14.3545 34.1389
5.16056 9.93279 22.2343
5.54564 13.5001 39.1951
5.85175 8.09397 19.5927
8.06447 22.5891 63.5657
6.24885 12.0877 55.3539
12.9718 27.2943 52.8224
13.5482 31.3495 72.9147
8.57937 20.6411 50.3322
6.31075 4.63919 17.9682
7.93224 13.9564 28.2356
2.64837 5.83155 17.8332
5.56691 20.4886 47.8954
9.66801 16.9716 56.4951
7.09771 17.2964 76.6369
11.9726 19.2372 38.6802
4.63546 11.294 25.8142
6.32378 13.554 31.9276
6.54364 17.4619 50.1165
8.0806 18.3726 33.5056
6.29574 8.43398 41.937
9.2665 17.4971 48.4969
9.31585 13.6192 24.1427
7.34239 24.5972 55.9721
7.85371 25.2488 72.1092
8.92101 12.6265 36.8197
3.06614 3.75617 11.334
4.5837 17.7652 61.6362
9.97851 17.3055 32.0933
4.66589 12.2712 50.4519
9.04376 20.1776 45.5458
6.40459 24.3114 64.4912
8.9547 21.6219 50.8074
6.28188 14.297 44.5249
9.26247 12.3577 35.1562
7.22335 14.3637 65.6221
11.53 6.91645 11.7689
7.59894 16.0976 29.4908
4.27634 9.99633 40.7807
13.1382 17.711 37.8147
12.3617 28.9957 41.6957
3.38267 22.6646 72.5929
5.33246 5.65238 26.6097
6.74002 23.7464 91.471
13.6142 18.1876 42.4955
9.14871 30.5221 70.4104
11.0107 19.0892 55.8948
5.96437 20.0306 41.0448
5.70525 9.87128 40.8943
11.9241 21.0189 41.1818
6.99461 17.225 51.1712
5.05853 11.0618 36.4334
5.33867 12.0571 23.3129
2.72882 8.67245 34.0597
3.96977 5.14553 20.0752
6.7913 17.0702 43.8997
4.85293 7.44521 27.5806
10.5919 30.6647 74.9657
9.45781 15.9602 43.1109
6.57073 14.7718 56.7672
11.2713 24.3954 42.8143
4.87856 5.06197 25.9009
4.2727 14.1597 55.0962
9.78851 24.5258 59.7753
6.18999 13.06 45.5251
9.42803 12.3842 23.0997
5.38516 20.2623 53.2762
8.11324 9.40814 34.5526
4.57403 12.4977 34.9117
2.21955 10.9903 30.1569
4.71352 6.12346 45.8039
8.99257 22.7685 41.5389
5.9093 11.3418 46.2093
6.41178 14.1522 48.7178
6.42137 14.5788 26.6667
3.86558 14.6085 40.9217
4.12801 18.2474 86.3946
13.228 17.4165 54.9903
9.24514 11.1325 12.3047
4.07303 23.627 52.4834
5.83066 8.70789 24.0815
9.20631 25.4962 55.3374
7.724 23.8833 82.7564
7.76189 9.27965 24.7708
6.72148 15.9422 40.2051
5.67948 14.174 44.4024
6.21335 6.21673 24.4516
6.00978 19.227 51.8104
5.40469 15.0534 48.7292
5.91608 9.10904 43.428
9.44102 15.3029 26.8012
5.31399 9.14667 30.8963
2.72198 13.0375 36.854
8.14307 10.442 27.3053
3.76197 10.8586 42.3893
8.41686 15.5399 46.4421
5.7521 13.4122 29.6525
3.0805 12.2895 40.2751
5.26395 10.6906 21.2367
4.75207 9.23502 36.1036
6.56789 18.7666 66.3464
9.48741 11.0213 28.9751
6.24595 9.79339 25.941
7.75658 9.97853 18.4306
4.98141 18.0615 54.3758
7.34822 18.518 41.3575
4.46245 12.7962 60.4951
5.84487 22.586 73.7847
10.7877 24.2509 41.3299
4.33245 13.9759 56.1325
8.26267 12.677 33.4
5.21612 24.1388 104.647
15.4553 21.7237 44.8304
7.6377 19.0116 46.6393
6.18837 17.6979 61.1614
10.2091 17.6692 65.1652
7.25721 18.8562 40.4625
5.63075 11.3084 31.9516
2.19402 10.1525 57.301
8.10038 19.0491 31.6814
4.65973 15.1978 34.996
4.20999 13.566 61.5679
9.07806 12.3136 24.736
6.26326 17.899 43.8147
5.47409 13.2429 29.9892
6.60704 17.5215 67.9931
6.58003 8.28958 30.3728
5.29005 4.73192 22.3777
5.99563 13.155 37.6552
4.72877 14.5171 36.4367
7.73402 23.0681 56.1019
4.92453 10.0144 45.7055
6.34523 15.2236 42.5283
3.27307 7.93161 44.7862
9.16508 16.355 19.5525
2.78227 15.9019 47.4342
2.9122 10.3656 49.0367
8.29333 11.5621 29.8057
3.82427 7.83397 37.9722
4.20247 11.2134 42.3549
6.09522 18.1767 96.9116
16.9817 48.4291 103.237
5.98415 10.1035 36.4311
4.94047 6.89063 35.3911
7.81412 12.9276 32.3795
2.7918 14.1885 72.7323
9.42718 15.6122 38.7593
7.86998 12.7014 36.2408
5.41182 12.7431 47.9889
9.02826 15.3218 50.702
3.91187 13.2496 36.3949
4.59427 15.2683 72.6825
8.06657 9.64529 33.9278
4.93497 11.523 50.6027
6.3563 17.2237 57.1615
6.04082 14.6194 51.36
11.697 22.5238 43.0726
7.76468 23.2282 95.266
9.43153 24.865 56.9144
6.18822 6.76761 15.4994
4.81433 16.9834 69.6915
10.1216 12.9577 32.0012
3.52074 12.6201 58.2809
7.64706 13.0868 36.8233
5.15826 11.0475 39.8455
6.11499 14.063 25.4232
5.08924 13.1453 74.1617
12.4233 33.0729 62.237
3.39812 8.67283 38.7553
5.32347 6.30617 30.634
3.72287 5.82494 12.4614
4.17176 21.1717 67.1657
5.68042 12.2976 65.1333
5.88435 19.2134 47.9283
8.39829 29.1147 91.9018
7.17315 9.06773 26.1496
5.70167 13.9295 59.7713
8.32918 19.8101 39.8321
6.19702 15.8234 70.7778
7.14901 16.5196 51.8927
9.10599 11.8864 44.2971
8.88966 11.5555 35.8074
9.06253 20.1299 52.3462
8.02101 22.1449 45.4108
3.89343 16.8804 55.852
3.15827 10.005 51.7723
4.48978 9.66074 44.7038
8.48816 15.4562 60.5563
5.29122 14.5604 31.8769
5.72833 9.863 45.9515
8.51774 20.3682 47.4445
2.99621 7.89255 30.0703
3.63985 8.29954 28.3435
5.37028 12.2078 36.7061
6.41225 24.8482 85.6939
5.03634 11.7944 25.393
2.47766 6.30625 32.4878
3.55152 11.088 64.3741
7.90215 10.9329 23.0066
2.78641 3.92847 53.9584
9.63527 22.2933 88.1766
11.8828 37.7819 75.2194
7.41569 10.822 28.2517
5.65812 13.0416 32.4448
3.35864 12.6802 45.9546
4.49482 10.8398 49.1025
3.8232 13.6242 20.6548
2.21402 15.6307 52.0145
5.46944 6.93358 27.616
3.52179 15.422 42.5765
2.53497 16.9837 46.2798
4.19454 21.7764 66.0994
5.19321 15.2273 78.9968
12.4355 16.5035 23.114
3.47486 9.77046 44.7042
5.0217 18.2507 52.7652
6.7017 8.54076 30.0105
3.68423 10.4207 21.2171
3.00143 8.95579 33.5712
5.01779 18.2316 76.9469
3.38015 8.8449 42.754
5.86396 14.9374 40.5321
3.84038 6.28358 47.7354
9.5062 24.0669 55.5891
6.35257 18.9245 51.9
3.40832 9.67325 40.7357
3.55516 9.34551 33.7585
4.50042 14.4619 54.1002
2.82365 11.8694 25.0389
3.08823 6.49343 38.6821
4.65501 12.442 44.2698
5.08016 8.55411 21.0545
4.84075 12.4351 50.0158
3.7748 9.94189 36.3944
3.06087 15.2428 74.6331
7.42356 15.6395 29.6769
3.25359 11.312 38.4387
2.10981 6.59359 67.7694
6.49611 25.1458 30.3623
4.02509 13.7625 37.4905
4.25859 13.8201 62.438
7.19136 15.952 85.1743
10.5067 30.0336 71.9185
6.24171 17.1887 65.6208
5.83433 10.1715 36.3514
5.7877 20.466 66.3779
4.61204 11.9227 31.0896
4.25596 5.87752 38.4646
5.55948 10.9943 24.8258
1.48522 7.74509 31.3608
4.34545 14.0198 40.3873
4.79272 15.4092 80.3378
8.68163 18.8344 78.9618
9.23842 25.3938 67.3297
4.27514 16.6347 60.8899
5.19153 12.8668 64.4311
5.62083 21.7906 44.2155
4.53292 6.88407 16.5751
2.48981 14.0321 92.4656
9.1084 13.2716 47.0007
7.10672 13.007 22.9574
3.76394 10.9161 62.8204
4.79047 9.55624 30.503
4.32422 18.1732 84.5319
6.24239 14.5643 46.9799
8.61111 30.1143 65.3994
2.95333 11.4026 72.6973
5.82846 32.8811 94.7417
7.71215 5.31553 34.1647
4.22756 9.4617 34.8619
6.92393 27.7725 81.1825
5.71303 11.6238 41.5908
5.38001 10.9765 22.3445
2.65601 14.5363 66.2346
4.86255 8.77699 40.5374
2.05488 5.27596 21.0677
2.18712 16.2292 54.4128
5.08542 17.3744 45.3154
4.88136 14.0278 40.4877
5.8037 14.952 67.6549
4.23395 9.04626 50.1328
7.58034 20.0442 34.4905
2.29754 9.38052 37.8946
5.85304 18.9876 64.873
4.82422 16.8414 48.9243
6.10822 10.8332 72.9491
8.26616 19.5186 44.6814
1.20851 10.2286 57.5285
3.17096 14.3099 47.2372
5.85442 17.4342 68.905
3.30737 7.73486 26.8218
1.90333 16.773 64.7423
7.4509 13.3195 38.55
2.92546 19.7563 95.7179
7.52418 14.5186 35.117
3.12036 10.7825 57.731
6.59374 12.1105 56.2113
6.318 21.8534 55.5945
6.26483 9.39593 42.1457
6.13161 14.5046 36.5301
2.32318 13.0885 47.8995
4.70604 22.6795 78.8005
6.32425 15.2679 73.3081
6.86312 18.0952 60.0792
6.23349 14.9575 41.1734
3.06914 7.5527 31.457
2.53711 4.93655 19.4404
2.22418 13.1854 61.4165
7.59291 14.1324 57.6782
6.15173 10.8454 15.2104
1.27163 16.477 47.0305
5.65628 9.50037 30.9943
3.60177 3.51219 38.8645
5.36782 26.9005 96.9237
8.97377 14.3524 59.8011
6.23677 25.7495 84.3041
8.49004 11.8852 50.2987
6.24328 10.8466 58.4758
3.64341 19.4109 30.7652
3.82679 9.2107 71.3264
9.11853 32.5922 96.376
6.36122 13.3797 56.6509
6.18481 12.5886 88.1384
10.1243 19.3783 55.1078
4.54687 17.551 40.5114
3.31652 16.1966 69.3334
5.71326 13.5824 92.8512
10.731 18.0215 36.1347
2.9668 12.0266 47.8196
5.37812 17.3081 66.245
6.68763 13.8501 44.6043
8.11346 18.2835 37.5465
1.69779 6.60827 22.8215
2.52841 7.05225 32.0011
2.89853 11.0224 49.5994
4.7691 15.1417 78.5648
5.75858 19.2609 58.6263
8.65553 16.6283 27.498
1.83687 4.43119 31.3452
3.33674 5.32327 22.8274
3.56228 8.98671 12.8202
3.04333 14.8399 78.015
4.2681 18.6509 63.216
7.79527 25.7494 94.5874
6.66973 17.0624 60.091
3.29946 12.9078 61.7355
5.07806 16.2315 36.9552
3.936 8.55221 57.4644
2.6824 11.752 41.5739
4.458 25.6924 93.0941
7.58269 8.2611 52.0126
5.24703 22.1239 78.8323
7.48405 5.58431 49.019
8.00002 16.9126 31.2835
3.40037 18.7896 86.9707
6.20732 11.1999 46.8205
3.41247 13.2066 95.4303
10.0546 21.219 68.0817
4.64029 31.3397 95.5928
5.10169 19.0441 40.3211
4.50334 10.2989 55.317
5.56482 7.765 77.503
5.58317 25.3965 72.8266
7.72535 13.8249 33.9647
4.53667 28.7745 144.118
11.9816 22.7237 79.4151
10.0142 15.2889 23.6629
3.85359 19.162 47.9816
3.94915 16.5079 89.4944
7.03558 11.0899 38.5363
4.04857 8.98205 47.0219
4.04311 15.0799 55.5915
6.86733 10.8164 53.5602
5.24709 17.7353 56.0676
6.3828 11.4193 53.5017
4.73927 12.9434 39.4408
3.38747 16.0879 90.9479
6.99104 13.455 55.2899
5.48038 12.4179 61.7408
5.06612 18.1687 19.9685
2.86969 17.9397 49.3279
4.40531 10.6678 37.9803
1.23408 8.7254 69.6151
6.44975 24.5069 53.7315
4.14752 7.8097 51.046
4.55107 22.8122 68.9696
7.56385 15.8765 67.7823
5.81793 6.93661 26.935
3.85025 13.103 31.8126
3.53342 7.54485 44.3998
4.92832 10.4965 48.505
5.50275 8.1818 36.792
3.88346 10.4288 71.8637
8.70136 14.489 12.0677
3.27599 9.25124 42.7108
4.45 13.5488 59.8716
4.85069 14.3715 39.0833
4.41043 9.89747 45.1449
3.87735 14.2518 64.4018
7.13992 19.5447 57.4995
4.33681 18.4223 74.8952
3.80858 9.41632 64.4503
6.97104 25.1069 129.47
7.88987 21.9956 33.3613
3.34413 14.3919 58.9947
5.91455 30.762 97.3399
6.27657 15.4361 42.3889
3.21997 10.1104 62.3584
4.94326 15.1428 77.2488
5.05344 14.7157 33.7854
3.61537 9.86343 64.9111
5.73765 18.4287 70.427
5.51482 15.9267 47.3966
5.34633 14.6591 30.8571
1.81209 8.39945 30.2771
3.77485 14.7896 72.4471
2.50544 11.5466 92.1353
4.3313 15.6596 68.7997
5.71176 26.7171 58.6682
4.69838 11.6979 42.4835
4.81168 11.02 67.2095
4.21551 18.6889 89.6373
5.81871 12.7196 68.3903
8.62722 27.6408 79.3909
4.93135 19.4214 82.7505
7.90077 20.1144 46.7689
2.86948 5.72481 31.3706
3.94986 6.98654 39.5644
3.08637 18.0986 48.2301
4.99746 12.6118 52.4379
3.67298 23.6144 55.889
3.61398 11.7998 70.9011
5.80574 24.6422 111.986
8.60556 12.0077 26.93
4.16774 10.7268 74.203
6.63029 9.63617 51.7386
4.37884 13.6092 44.6178
3.60785 7.09297 16.384
1.48042 17.3634 73.3673
5.63209 16.3976 67.2176
5.43113 26.4269 67.7656
5.65514 13.4898 56.0371
5.48058 15.5667 52.8408
3.10222 14.599 123.811
5.60888 31.0902 59.0751
4.80623 9.04608 45.354
3.20521 17.8591 76.4716
6.88597 16.0146 64.1358
6.01677 19.5114 37.0824
4.23624 9.41769 63.2244
5.50321 12.0894 41.0018
4.37901 17.7659 92.1068
10.604 23.9432 61.8754
2.45006 14.7928 55.6561
3.48732 14.4604 44.3121
4.42055 8.12928 56.0561
4.83906 17.669 52.0116
5.42613 13.3328 60.2582
7.42277 10.8536 74.8084
6.55213 18.2127 66.3856
6.75596 18.6784 64.3487
6.57383 10.3405 34.1568
2.74883 10.0438 54.5323
5.31237 15.8193 57.3993
5.33365 11.1779 76.4003
4.80553 23.0266 62.7188
3.93412 15.4728 60.2654
5.87663 13.1169 50.9774
4.08368 13.8408 92.4125
7.61126 19.9495 69.8065
6.48628 24.33 58.798
6.97544 15 84.8537
5.47757 23.9421 56.7675
5.53548 16.461 46.148
3.70997 16.4249 52.6619
5.31623 7.91997 39.1644
3.07396 12.3403 46.0083
5.53153 10.6558 34.8201
2.77852 7.70144 100.74
5.43908 25.8394 39.8556
4.03408 5.18769 33.2937
4.49072 6.84782 27.8556
3.9083 17.0432 65.5407
4.97521 16.3044 106.215
9.47948 11.9452 61.2241
6.40227 15.2376 33.5621
3.93472 12.9676 56.4064
2.91622 14.7083 69.19
7.02156 8.07419 38.5125
3.3545 9.79604 69.1322
5.94528 19.6796 55.6531
4.44025 12.9693 21.0294
2.83587 10.6377 78.3993
3.42149 23.009 54.2749
5.06356 10.8394 27.3026
3.84112 16.1136 72.4019
5.02144 17.3207 62.3579
4.16093 9.53226 35.1718
2.52415 9.48349 53.0859
3.82199 18.3763 51.7766
4.70833 22.793 81.3118
9.24133 17.5678 61.0161
5.59424 18.5408 127.944
9.58919 10.7613 35.19
3.55724 11.875 42.7323
2.76394 12.759 36.8312
3.85984 15.1191 89.3033
5.52287 16.7674 60.9763
6.62373 13.2806 73.8894
6.97692 19.5197 29.4859
3.74901 13.6931 99.5521
7.78927 22.5482 40.1872
3.42439 6.23583 38.2351
3.04821 13.5291 26.8306
3.08418 9.39975 40.5802
4.21953 29.6669 111.407
6.43306 10.2654 50.5213
4.47672 15.1274 48.5819
4.82875 7.18892 43.5862
3.2662 8.51756 30.5041
3.56624 9.79393 74.4877
5.90434 20.3551 61.4188
6.65597 14.3512 19.5696
1.47438 8.11893 34.3139
3.28179 17.7908 47.1643
4.83747 10.8961 98.5653
7.62543 15.5949 31.0091
3.88393 4.00734 35.6992
4.99572 13.2188 59.5822
4.48727 9.97697 48.4986
4.03129 12.1019 32.2425
2.05805 14.8982 94.5289
5.49329 16.0164 47.2063
3.31478 19.4036 47.9846
5.07295 9.239 34.5983
4.48733 16.0524 94.9865
6.5883 19.1265 42.2239
3.4513 14.0758 68.5392
7.82507 28.3584 71.6405
5.45576 9.6854 67.4649
5.89621 9.43132 68.5536
4.91248 8.99631 46.0941
2.34742 18.4644 56.2946
6.36841 15.1504 115.361
6.66181 19.6405 51.3925
4.53228 12.0856 47.8949
4.0017 10.9146 37.3349
4.60734 5.46108 60.0987
4.35257 24.4334 95.5681
9.00675 22.7664 36.3265
2.13717 24.7464 88.0847
6.56585 8.78796 33.127
3.99362 11.1806 104.406
9.27945 20.7421 57.0757
5.72138 13.6264 64.7548
6.33885 15.657 29.1082
1.42406 7.24352 67.0792
4.07158 13.3866 39.537
2.09416 10.3077 51.9445
4.10127 14.778 45.6911
3.95201 12.5806 34.8166
2.49686 10.9259 60.228
4.76529 19.4666 55.403
4.22126 11.8819 49.4188
5.02604 9.26791 38.095
3.78216 13.0346 51.0951
3.50204 9.82782 46.7097
4.18421 10.8018 51.8586
5.41098 17.3777 35.6259
4.37854 4.78746 39.012
4.12527 18.5861 66.2882
5.37772 16.7188 64.1885
5.33939 25.1555 122.753
9.67902 16.4261 55.3209
5.60107 9.3721 40.8888
3.74261 16.1222 20.3978
1.07283 8.18921 38.5033
3.67423 13.0265 72.2072
4.38689 19.5253 53.6609
4.58625 20.1896 77.1716
7.18501 9.19533 37.1945
2.91234 14.0793 75.7673
7.55797 20.6414 108.126
4.33202 0 0