# pn-170911/CsIIA-29-AMC2-1280-1959.psd
# Power spectrum* (dif=0,1,2) (really just |FT|^2)
# NOTE: only the first half! (symmetric)
# weeks: 1280-1959
# 9 clock-days, 1 excluded
# PSD: 1441
19593.4 0.632856 0.0618259
2.07298e+06 26.7492 0.0227134
4.44907e+06 80.5283 0.028045
1.54483e+06 48.5068 0.0265814
1.34696e+06 103.148 0.0205047
491111 55.3336 0.0309481
328054 40.6497 0.0238346
164497 27.7012 0.0155323
205124 65.9219 0.0468278
209828 63.2716 0.04874
92017 40.4509 0.0558012
215593 89.6182 0.0625153
93589.4 53.5528 0.0420492
80903.3 54.6605 0.0783631
67909.7 43.4269 0.0501175
32084.1 37.6304 0.0713708
53475 51.5812 0.088514
49626.5 64.0268 0.127517
34894.5 42.7536 0.0743456
39650.2 62.4278 0.12986
32259.1 74.8041 0.177872
25372.9 50.3774 0.110807
24459.8 44.936 0.100241
20462.4 45.2568 0.163765
31724.9 67.1413 0.197014
23151.4 71.757 0.202025
18090.7 57.6265 0.190256
14944.2 46.3769 0.198529
10700.8 48.7714 0.164749
10939.6 31.6728 0.120511
19695.7 75.3423 0.301285
11524.6 53.9458 0.271873
12492.3 46.34 0.255326
7014.3 38.3216 0.261434
12831.2 89.1013 0.440138
7517.71 37.0881 0.236307
11683.6 57.737 0.345051
4665.56 34.5334 0.268111
8183.55 49.2927 0.377054
7186.86 48.6897 0.354993
6984.82 37.0499 0.344274
7213.34 56.1531 0.524283
5388.39 51.3366 0.432809
5414.73 40.0202 0.349767
8827.01 74.3589 0.5823
5797.36 33.9398 0.313201
7204.64 60.101 0.740459
3561.67 35.4406 0.287032
4967.42 51.1522 0.690229
4854.81 35.0091 0.354773
2401.32 41.3131 0.591858
7916.63 75.9793 0.934075
6351.4 61.0427 0.74011
4647.59 45.9806 0.645176
1661.88 21.4954 0.283886
2051.03 28.5247 0.466368
2952.12 34.1545 0.466433
5650.5 69.8272 1.03275
3833.5 73.173 1.16754
3698.68 71.2211 1.15491
3143.62 49.5593 0.845706
4828.49 78.2273 1.50273
3131.25 55.1833 1.04504
2453.25 40.9043 0.708185
2276.71 34.7276 0.768391
3098.42 47.1976 0.835393
3471.81 59.0499 1.31521
1825.9 61.4198 1.29424
2581.47 38.3391 0.929324
3413.23 59.3414 1.35058
2239.01 39.8116 0.978215
3751.24 96.1328 2.14796
2665 65.9827 1.78267
774.031 26.2208 0.616652
2173.25 59.2206 1.56895
2701.14 70.3391 1.71124
2564.51 68.8393 1.89282
1348.53 25.8739 0.741515
3391.37 72.8429 2.18922
1436.32 34.8884 0.950834
995.344 31.1381 0.831525
2012.11 64.5003 2.0084
1844.32 50.5591 1.67861
2865.05 75.5022 2.57333
2318.76 60.246 2.0669
2570.53 82.8128 2.9844
1479.13 56.3514 2.15955
1495.88 51.178 1.85114
863.147 31.8329 1.20873
1236.57 41.1652 1.64434
1542.67 48.3821 1.76845
654.586 24.536 1.0783
1416.74 43.704 1.86581
1432.31 50.0703 2.17795
1842.96 81.2512 3.45866
1246.05 50.7202 2.39335
1618.78 59.2259 2.56413
880.942 46.8619 2.18466
1149.55 37.0774 1.60989
1282.05 47.3537 2.22549
880.829 31.1134 1.44636
1543.01 68.1915 3.6245
431.302 23.9107 1.26147
446.033 25.0435 1.23675
802.586 36.0721 2.03036
982.986 51.115 2.51076
654.475 36.4044 1.87835
1197.96 46.6578 2.58788
739.995 38.1842 2.00885
795.783 35.8556 2.15757
628.059 39.2861 2.14328
911.064 68.299 4.30215
1774.44 81.0603 5.05101
670.006 33.4713 2.34525
1467.77 84.2096 5.11712
899.622 55.1263 3.63094
1038.05 55.6427 3.08411
735.446 49.3109 3.24878
620.08 38.0604 2.57563
768.815 44.7062 3.08602
508.885 37.3816 2.68555
810.263 39.2686 2.39253
1155.77 63.3589 4.62461
650.167 30.5101 2.02766
1178.37 66.8909 5.1375
653.789 42.8372 3.13757
817.746 51.3841 3.96538
901.016 45.9474 3.53296
652.18 54.085 3.92901
1080.52 94.7134 7.98261
846.837 50.4735 3.8108
512.637 40.1523 3.4072
649.096 58.8743 4.88026
561.067 29.6986 2.52803
531.12 39.2499 3.43028
740.51 59.5988 5.20733
896.783 58.4572 5.02662
581.193 49.3289 4.56313
557.715 45.365 4.28226
323.57 37.2569 3.68794
646.347 55.3808 5.84788
407.86 36.4902 3.49353
427.502 33.3276 3.08944
274.988 26.3623 2.76056
356.277 30.0224 3.17872
242.575 26.9979 2.87523
810.337 66.6486 6.13522
981.152 76.6086 7.65646
781.242 75.5145 7.6295
503.825 46.1973 5.06149
635.482 47.2534 4.69221
330.559 37.8023 4.06519
277.42 39.4759 4.3225
316.732 23.0291 2.46799
363.421 35.6234 4.13142
486.515 49.0976 5.28473
475.428 38.0541 4.30945
249.481 21.5109 2.40041
440.493 48.2945 5.69873
390.671 41.6814 5.07556
305.311 34.0357 4.41157
888.644 103.241 13.0996
534.696 52.9875 6.18368
355.668 45.9941 5.97923
684.896 69.1004 8.90557
565.529 66.7731 7.66327
392.697 51.7807 7.06515
372.92 48.9583 7.28699
364.325 42.0483 6.08208
766.514 68.1331 8.74095
508.37 50.6189 7.14379
319.423 40.1497 5.49545
401.969 41.8449 5.49837
498.584 60.4387 8.98833
216.497 24.3189 3.1868
434.103 72.2 10.2335
257.564 35.8079 5.64749
530.935 97.1801 14.7648
343.882 39.7048 6.01364
521.456 71.7001 11.005
431.524 55.244 9.29566
345.741 57.6492 8.44686
324.089 48.6976 7.49154
182.939 24.5194 4.24447
608.484 87.8414 12.8302
554.707 69.8931 11.4335
575.321 65.1215 10.2694
403.008 42.151 6.13148
208.691 25.7685 4.26181
298.165 42.0161 7.05913
448.437 60.0308 10.9012
256.444 35.7287 5.81553
287.006 47.1146 8.95663
538.912 70.5705 12.4235
224.024 45.5476 7.71452
231.578 30.867 5.40898
334.774 52.2197 8.71963
303.575 50.169 10.4394
443.264 63.3122 10.5606
337.259 49.6836 9.14782
121.881 18.5792 3.1939
202.794 42.328 8.23598
342.356 54.2343 10.6268
159.04 34.0898 7.67696
444.861 92.3422 17.5293
208.756 43.5344 9.1552
196.576 29.8023 6.35381
298.181 37.8686 6.45161
325.073 58.0474 12.3386
276.735 47.5133 9.4656
136.621 26.1559 5.3438
429.587 64.7005 12.5678
158.472 27.952 5.89372
181.429 28.6376 6.51742
182.514 44.7514 10.0184
250.39 47.3398 10.7653
278.076 40.8071 9.5241
301.428 50.5904 10.3003
213.575 34.0286 8.47865
159.163 37.8249 8.14298
207.355 37.3727 8.4822
271.618 52.1287 10.796
203.793 46.742 12.0373
188.821 51.0185 12.4278
212.277 56.6704 13.682
310.575 60.6922 14.4935
145.18 26.8433 5.90596
209.874 37.2057 9.02114
127.328 22.2453 5.28335
276.58 64.3059 14.1875
119.223 28.0245 7.67604
93.8877 18.177 5.49567
261.953 46.8379 11.3312
168.728 40.1114 10.6504
287.292 80.6313 19.2837
256.514 69.131 19.0806
306.591 61.6698 15.9995
82.8833 15.3678 5.58876
137.242 31.4332 8.81168
242.485 44.1562 11.8502
131.962 31.6036 9.06881
169.81 52.9118 15.1055
236.853 47.4073 10.4475
104.564 42.9132 13.5111
347.87 67.3278 16.4174
142.113 47.0381 13.4286
175.406 47.6865 14.0207
201.731 57.4489 17.2858
176.171 40.7837 14.5853
203.997 56.4733 16.0936
154.765 32.1104 10.3979
208.04 50.3682 14.0953
270.154 62.3618 15.3374
233.421 65.6934 19.7305
253.261 61.7437 17.7412
163.02 47.6269 15.2632
127.334 44.4294 13.6154
180.697 68.9353 22.8633
273.236 69.514 19.6517
145.88 36.481 11.9567
230.395 67.9902 21.256
153.147 49.4091 15.446
172.472 39.4009 12.0886
205.653 63.1689 20.5545
196.027 46.6881 14.7807
74.5934 22.0951 6.69376
148.863 37.82 12.81
129.948 44.2234 15.8749
122.662 43.4841 16.0714
137.889 44.0224 14.0117
116.219 58.2256 18.7999
120.875 51.4846 17.6875
214.037 79.5186 27.4651
195.183 74.7669 27.9427
104.194 24.6715 8.28076
61.8428 26.3951 10.9512
169.24 68.2158 24.8467
107.832 32.9494 12.8582
214.07 74.8752 28.2367
167.968 53.6754 19.3951
117.091 30.5568 10.5832
152.15 48.792 16.8198
172.689 61.9827 23.3074
117.436 43.0936 15.7872
81.2379 28.658 12.6603
119.458 36.5038 13.7571
209.083 46.2867 15.5921
218.149 76.3964 30.6524
133.288 37.3757 16.1874
246.935 66.2945 23.0944
227.834 65.5009 24.7113
145.257 61.8284 24.2701
207.619 52.3718 19.3352
142.061 42.6207 14.0802
205.387 59.9373 22.016
209.712 70.3455 26.1468
97.2945 30.877 13.5931
123.313 43.6595 17.563
69.2733 29.927 12.8874
50.3619 30.547 14.9799
106.416 31.909 12.9924
142.11 38.5569 15.2193
153.52 55.2188 25.3101
116.021 50.9517 23.3373
163.111 57.1102 20.3352
94.3277 27.3389 10.5273
175.504 63.3575 26.9423
94.6181 36.1796 15.9843
128.204 48.8729 21.8038
79.8102 32.8813 14.1331
110.44 38.5327 17.0606
102.758 46.9391 23.0075
131.953 35.8787 16.2496
96.0732 29.8268 13.3127
58.4614 29.4697 14.0001
138.065 44.029 18.8542
148.771 67.8447 30.7864
231.915 85.6252 37.4422
95.9027 38.4526 21.0079
108.41 43.4932 16.4631
119.476 61.2156 25.5122
161.527 77.8149 39.1736
122.174 49.7525 24.7691
114.043 55.506 27.4977
114.616 47.0526 25.0641
153.575 52.5934 23.2514
76.3085 29.5301 14.1431
152.94 50.7835 22.6771
117.389 51.9483 26.3146
72.2446 31.4355 16.278
55.7596 26.0097 14.2264
143.193 53.7924 25.1706
155.724 60.6811 28.9465
81.2806 42.0171 23.4847
143.545 55.7836 27.2433
80.5803 34.758 15.2988
146.927 71.9085 41.4404
48.5565 21.8593 11.7084
99.905 35.8401 18.1076
60.3762 25.5587 11.4487
41.8111 27.3899 13.5208
98.5119 35.6925 18.2748
54.7859 27.9464 17.7837
99.0133 48.5333 26.1205
102.548 61.7944 31.4371
96.51 48.5397 25.4825
82.8408 64.031 41.6188
132.915 59.5113 33.5182
133.632 61.556 32.9464
124.682 54.9426 27.6368
57.4347 16.171 10.2818
155.623 63.6477 33.1059
130.05 59.7622 33.427
87.443 32.8065 20.8824
80.1877 38.8945 20.3458
159.086 86.6419 53.0475
52.7472 22.8504 12.8986
76.5807 30.3645 14.8144
59.2591 32.3165 21.4845
68.375 38.8148 21.8129
59.604 28.3003 16.9881
47.2522 43.9005 32.5925
111.864 36.3971 15.1019
178.22 91.7355 52.6832
92.1 56.7103 32.8621
66.2433 38.446 24.3684
63.477 28.795 17.8671
95.3086 57.6793 38.8826
116.318 64.4906 47.4954
115.015 48.26 21.5409
89.0077 60.5563 40.7779
61.5624 26.8621 13.9003
30.9822 23.3826 17.9554
64.8732 41.218 27.3075
67.0782 35.6678 23.4028
56.0642 34.8832 21.2877
85.219 66.0137 43.7908
100.331 46.1497 25.5043
48.7251 35.9267 22.5831
69.0671 52.461 36.2143
82.467 39.5398 25.3416
42.225 17.3941 8.99668
70.109 35.8295 22.4157
64.0721 35.5255 24.1668
56.9103 38.008 25.5304
63.3851 43.1258 32.3062
76.3178 36.5536 22.8829
54.5551 30.2247 19.9493
80.6858 43.4666 29.9937
68.4911 19.972 9.8557
58.3868 40.8768 34.6308
204.391 103.72 58.9033
74.6879 66.2191 55.1387
85.4952 50.4816 27.9877
53.5994 37.6537 31.7964
71.4232 54.2534 40.5162
73.2289 43.0388 28.2722
84.4451 64.7454 47.3854
113.561 55.9745 35.6166
68.4295 41.948 28.6365
36.3142 17.1327 14.4247
45.2579 40.0819 33.8426
71.3955 48.7144 35.5659
77.2222 42.0032 26.875
76.2317 31.1019 19.1027
74.6455 59.7242 51.4126
68.4023 35.6004 23.1733
77.7359 68.6244 57.9257
73.437 36.3677 16.0189
69.1379 52.238 37.0351
37.0385 41.5882 39.8724
97.1636 43.0099 28.6517
116.89 72.2992 55.71
70.5806 40.3015 28.9129
85.3368 63.9463 42.3111
60.2988 41.9146 35.1044
50.2325 28.841 27.8319
68.7224 49.856 32.4043
71.4802 43.6222 31.339
69.0006 62.1603 54.3714
83.2505 59.948 45.5912
47.333 25.8494 20.6594
45.0103 19.0584 17.2805
80.2313 63.4323 44.8116
67.7373 52.5915 48.5055
93.6945 43.7808 27.1723
55.324 32.5748 24.5079
64.5445 39.8113 31.2322
66.3653 42.3453 32.9319
51.909 36.138 31.2276
51.214 30.4553 25.5712
49.1447 31.924 30.0375
63.8407 59.8822 52.2551
97.3829 68.4388 52.1936
113.748 76.5952 58.553
64.244 54.3643 47.3957
37.3602 26.2244 25.2751
99.6703 81.9846 65.9177
41.679 30.5847 28.0433
43.1113 30.6777 25.7212
42.705 47.7651 43.7965
56.5408 44.8601 40.0666
96.1334 73.2041 63.3647
64.6992 33.5365 24.9269
66.7726 60.597 57.2139
72.2154 51.9553 43.9768
52.9834 41.3245 35.6119
29.7575 25.3165 22.0692
75.4274 59.3367 55.3554
73.5515 68.3399 72.5661
77.501 71.3151 61.161
82.4591 49.4435 33.4477
39.0012 33.316 38.9027
94.593 83.2725 64.5062
34.9609 30.3078 23.7881
50.98 50.2732 43.3923
17.7918 20.5955 22.9693
53.0183 38.9151 42.6003
53.6734 59.6105 57.6491
68.5443 49.0815 39.4011
54.7693 48.8383 45.9403
38.7465 25.8359 26.8752
51.951 36.928 30.8361
31.5471 25.9026 28.1979
51.5166 45.9373 47.7157
74.5587 50.2951 42.7103
60.1293 50.7045 43.4368
60.9395 49.8977 65.4757
86.3274 75.5294 62.4565
40.017 34.1174 35.2648
80.0234 66.6816 51.7704
78.1858 75.1972 71.1556
67.647 66.9788 67.0725
45.3992 24.174 25.727
50.1484 56.0207 64.8503
108.886 57.7971 41.9142
33.0909 28.4649 30.2309
40.3645 26.6852 22.1626
54.1749 44.9911 43.6123
63.1022 46.1509 37.4299
55.8194 56.3843 73.8353
60.0383 41.0398 25.6665
61.5892 62.6467 65.831
67.918 65.9347 61.2215
73.4035 65.5739 59.5244
26.5604 31.8656 38.8039
30.5788 31.2374 29.5665
51.051 50.933 49.7507
38.9122 30.5074 36.4197
39.3369 48.0341 54.3223
54.2123 40.7791 47.394
42.2668 50.4416 53.9486
47.7687 40.9087 38.9962
65.6122 58.5229 59.5751
43.5973 32.2656 40.6907
43.9366 38.4374 30.1156
26.5961 32.4431 35.4578
78.4629 81.8153 86.5773
34.894 34.5703 47.8719
35.1368 26.6509 31.8765
88.5579 74.3313 63.3934
56.0306 50.7143 54.9207
39.3043 32.9072 33.522
55.1672 60.6942 73.1203
69.8729 43.2526 30.7028
73.7774 75.665 80.7623
48.1072 58.3168 64.458
50.0731 44.404 53.1039
45.8732 35.0009 37.6752
31.3446 26.8185 33.4523
26.6636 27.6016 28.5602
39.5048 38.5977 38.9663
28.9128 32.869 44.3569
47.1957 47.5858 54.3537
38.7335 21.7212 17.329
38.8632 40.3884 45.4178
28.4914 28.1696 35.5128
31.2278 26.0362 24.8697
31.8393 56.2697 70.558
37.5224 31.9867 43.9131
53.8064 48.6768 46.1463
30.1834 45.8676 59.524
74.0663 71.6031 72.0854
27.7008 25.1755 33.2942
20.0072 25.7227 37.5
30.3343 34.4896 47.3425
42.1285 46.5839 44.43
23.0743 29.1385 53.1879
33.9811 33.7604 40.6955
37.6451 19.9275 18.121
45.8979 56.3386 63.0637
53.1084 64.4934 68.3713
36.6514 37.9358 53.2009
56.8755 55.4279 68.4571
24.7153 27.9525 40.6366
42.2519 50.711 53.9483
58.7737 73.0332 77.1959
24.8058 32.2057 47.1136
19.5175 31.9126 45.3353
42.3189 56.9445 65.7116
32.1153 24.2044 32.0673
40.1773 59.5891 71.3404
49.5874 58.9492 79.2954
51.7443 47.293 75.1085
61.192 62.9939 80.7217
56.3177 66.4364 69.8782
31.979 23.579 31.7287
39.9345 31.7411 45.6756
44.0444 50.3516 62.4884
44.268 43.6097 58.021
42.0127 41.5769 40.2051
23.9393 19.6374 34.118
42.2774 46.7413 57.819
20.7104 23.494 34.32
13.9415 14.6365 17.8405
16.0555 11.4123 21.4468
35.2259 25.7782 28
22.6217 34.0084 39.5466
30.4518 35.1155 42.5646
12.3196 19.6292 35.8168
48.2987 48.2904 60.7044
40.5326 46.5117 50.1166
35.9488 40.6061 42.042
18.303 38.8842 57.0401
18.5762 37.0392 67.2141
26.0445 33.0591 54.0157
32.4624 40.6592 53.9333
41.2341 45.0274 85.1577
85.4486 63.2039 56.1597
45.7421 52.9542 64.6107
16.1714 29.2324 43.275
64.3777 70.1015 92.2851
26.1252 31.7379 50.0073
33.0804 24.4816 31.1357
44.79 37.2746 43.4655
34.2461 45.3152 65.8852
32.769 51.8096 69.469
36.1788 29.7123 33.0452
25.1572 42.1329 79.4264
40.4813 38.1957 35.0026
30.6268 36.8965 55.5902
31.8577 34.5358 54.8716
40.4123 42.2473 47.4837
29.5315 35.4679 56.7214
24.4317 28.9999 40.6713
29.2048 30.867 40.4844
35.4743 47.15 70.3037
30.2603 24.9823 41.5339
47.1426 51.6664 60.6645
20.7505 48.7458 82.6048
33.1922 36.4449 48.9356
19.1496 26.7531 62.0056
62.402 64.245 80.9138
44.0492 63.3447 95.8386
36.7475 60.6606 79.7416
41.608 43.7424 54.4894
17.8494 31.7248 44.3625
14.8952 15.0984 25.1394
24.9159 35.6101 55.9726
22.7157 33.6825 52.5592
28.7274 29.3339 50.8658
51.8542 62.4317 82.6305
30.1945 34.5183 55.9284
39.0219 43.1409 49.2156
12.3114 13.6621 22.4934
14.4037 28.3857 51.2707
26.3055 39.9751 59.1708
28.5107 43.442 84.2543
33.0261 45.85 51.9057
17.2045 30.2779 52.6654
26.7878 45.5166 74.77
27.8747 33.6724 54.533
23.5411 33.3723 54.6668
28.5039 39.8417 68.8828
34.698 47.4259 91.5611
64.1469 66.1889 95.3605
57.5049 58.488 70.8952
44.4661 81.2278 97.3687
21.9347 35.3251 65.1544
25.5214 40.9971 80.4268
26.154 23.3289 49.0377
42.5149 34.9217 36.7066
32.1835 38.9104 57.9035
27.932 33.222 52.3127
28.0545 42.5193 47.765
30.4414 54.5465 103.038
34.7286 39.3607 61.0863
36.9525 72.4609 108.222
34.0977 37.6594 55.363
25.7638 37.3352 71.0094
23.5499 38.6403 66.5184
43.6565 72.7198 131.674
38.1357 31.1021 40.7665
31.0349 55.1317 76.2258
17.3278 22.8665 39.7018
15.9078 32.9499 56.1562
28.0759 34.457 70.3136
25.2779 34.6813 55.6091
26.5352 26.4176 34.6957
28.3559 45.988 60.7228
24.3375 33.3678 56.8674
34.6894 53.1551 88.8284
19.511 22.5406 37.7173
22.1019 23.8915 39.2324
20.6148 35.4018 64.9735
34.157 44.3943 89.7871
26.0924 36.3901 43.4043
18.4027 31.9619 60.1212
29.0674 42.305 73.2809
31.586 45.2266 64.3013
29.2884 45.9352 103.603
39.4707 44.3468 75.3903
36.7583 52.095 61.1687
16.1191 19.3698 39.7921
22.5492 31.7404 55.1856
18.4852 23.4834 32.8475
15.0081 26.2158 43.6059
19.4133 36.4902 73.5372
20.3546 41.3659 60.732
13.0828 30.3845 91.9199
41.4907 39.9715 51.3267
28.6806 35.8723 55.7459
19.9202 27.8041 58.806
38.063 47.2642 58.0033
18.5303 29.0298 50.6079
15.3301 21.435 41.1754
21.2004 30.2715 48.3676
28.0518 35.6395 58.1113
26.3781 39.3423 71.4118
21.2462 34.3347 81.8922
46.1825 65.1289 83.2845
18.281 42.5836 103.085
55.0125 77.718 105.386
22.4421 32.9527 61.1325
15.0045 19.7056 51.43
28.5946 40.3102 78.3642
29.0965 50.2434 97.7361
22.8616 42.0304 75.115
48.124 74.3483 108.398
15.0777 19.7721 57.3091
25.0094 31.258 65.0616
34.0613 49.269 83.1947
19.0545 41.0654 71.0715
17.5498 26.4877 63.1494
19.3253 25.1884 47.6894
18.6783 29.5477 59.9368
30.082 51.6668 87.6689
14.0821 13.5291 19.3662
14.3117 27.6719 46.482
15.2221 27.5542 67.1246
23.6863 46.9175 89.9386
19.4884 33.0247 54.2867
14.5084 41.1637 81.8772
21.0394 35.0784 66.9531
27.2554 43.3546 68.4735
16.9759 35.6062 66.8936
14.7734 26.736 50.7216
12.4727 25.2132 48.8092
16.1431 18.2226 59.2012
39.5262 54.2614 66.7463
23.4908 58.7082 104.894
28.6759 44.8906 80.094
11.5183 15.7883 49.6078
21.7052 41.7191 84.2939
24.5386 41.1848 69.1055
11.4673 22.9146 65.5118
18.2496 32.8611 58.7047
14.5834 18.0589 27.2072
19.783 38.2082 72.2608
12.7571 24.064 42.9147
10.8545 31.555 70.8061
13.443 15.8915 40.4608
18.5832 25.6448 43.8215
14.3071 30.6576 56.5022
17.129 22.7239 56.979
35.1947 58.5953 114.797
20.3253 37.109 61.0887
18.3999 30.1812 76.1216
21.8322 40.7596 80.5625
31.825 46.6646 77.2983
18.0507 43.9621 83.785
17.3906 23.562 59.4826
29.6616 67.782 128.56
22.5722 30.7696 51.4659
13.441 24.187 53.104
18.6316 32.0496 62.3892
8.92379 27.7891 59.2449
19.3518 27.269 51.1079
16.8157 30.8271 62.1805
17.3619 23.5082 45.574
12.7608 20.7678 42.5228
15.9425 22.4859 50.0062
26.4734 37.3724 62.5971
17.288 25.6647 47.257
13.5754 33.15 94.6891
21.4125 33.706 76.9077
18.3057 21.1263 27.2177
15.243 41.9076 89.7727
26.126 35.202 62.7766
14.9767 31.1538 75.4186
20.3878 41.099 90.2327
27.1306 35.9011 62.0745
8.20551 22.5063 64.8798
22.1808 30.7477 56.9152
13.9887 28.4469 72.0192
23.4909 36.6695 81.6447
25.2016 29.9149 59.8462
22.5428 50.2359 99.5828
16.8711 12.9295 25.4328
15.346 24.2172 47.3104
18.1623 40.1833 86.2638
13.3455 29.6916 77.089
24.1559 41.5477 70.519
9.26954 22.4938 59.8262
18.3876 25.9582 81.2896
19.9828 27.8415 46.4744
24.9024 55.8971 98.5129
10.0951 25.1715 45.729
8.4359 11.8183 38.7179
21.2074 38.4569 64.9312
12.6098 37.9254 90.9698
21.0936 40.9364 77.7684
26.3253 59.841 130.584
25.604 49.1464 114.362
21.9017 45.2727 102.669
25.4562 25.836 45.1098
30.835 55.615 115.325
14.1603 28.4662 79.5329
21.258 24.83 60.2605
9.71136 23.3853 39.8492
11.4843 22.7495 58.8911
20.4064 31.8022 42.3165
11.4314 40.762 92.6173
19.969 27.9093 55.0163
22.4262 50.4726 139.633
23.4619 36.1664 56.9145
11.7422 25.0572 71.9518
14.2599 27.2668 86.8329
14.5652 28.6772 69.6486
25.6514 44.2943 97.1894
16.4111 26.7214 71.5372
22.2364 45.5965 70.7731
12.9728 26.1697 68.2657
18.1864 59.3076 124.979
22.3545 31.1064 53.0745
16.2141 40.0609 92.5614
12.9909 30.4111 93.9269
14.4985 21.2281 30.1992
13.5622 31.4285 56.6193
11.4036 21.5579 49.0845
8.52998 19.7886 56.5743
20.7549 39.0295 75.1773
8.08616 14.6889 55.5352
10.9431 24.7583 61.0287
15.2486 27.1129 66.0933
12.7361 13.5063 34.2413
12.219 22.326 60.5855
19.5808 38.4555 74.5882
6.96074 10.0335 51.2146
17.8566 16.0382 38.8967
20.0013 38.3037 65.2763
11.3455 42.9876 110.263
20.1744 28.987 64.4794
13.5513 33.3299 111.896
17.6296 25.1656 56.2859
13.3007 28.9145 80.6025
19.6633 19.671 49.2367
15.3578 25.4113 41.4385
9.57515 27.3059 81.8012
14.0063 27.5204 73.2852
18.1924 30.9321 69.4157
18.1992 55.6815 132.068
16.8633 15.8751 48.5098
21.1674 41.3985 103.418
25.18 45.8012 112.281
25.4242 33.5354 64.8917
18.3461 43.2773 101.17
15.0605 16.344 36.8104
13.6125 29.5771 43.209
10.0626 25.9789 84.6401
14.8284 38.8984 77.6247
13.2115 35.0242 83.9081
20.7064 45.0668 99.2765
15.1366 38.5678 96.2461
10.9038 16.7629 41.5642
19.1518 39.0515 114.771
15.3691 20.2486 45.6305
14.22 39.0763 80.2584
9.49278 17.0721 61.1411
20.6946 64.7911 180.641
21.4708 26.8634 48.6499
19.2688 45.2138 141.423
20.2902 30.2042 55.3317
14.6744 26.2722 93.8606
17.9664 35.8829 53.2865
15.2529 45.7022 130.034
30.5114 68.8412 137.268
19.6984 29.5105 79.223
20.2651 37.6076 90.2587
17.303 30.4806 72.4345
17.38 35.0085 72.784
10.1619 39.2903 107.731
22.2465 28.8343 59.4838
11.7594 39.1789 92.0016
23.0389 34.3799 93.9995
25.1607 67.1311 163.859
17.643 22.4987 44.9831
8.80694 25.8683 92.2219
14.6628 14.5059 20.6981
13.1209 24.8326 64.7274
11.5384 23.6406 51.7289
7.2246 22.7258 61.3585
11.7219 25.797 77.6349
17.9012 25.3949 77.4937
13.9374 35.568 73.5646
11.2133 24.2572 61.466
14.6205 40.4566 133.432
19.8409 42.7649 103.585
16.7387 24.5748 73.3671
16.2893 34.6345 69.4905
15.8301 37.0308 84.0157
10.6532 10.9512 33.6219
16.6915 29.8214 90.0376
23.1695 47.5646 92.8871
6.68249 24.4023 76.5356
14.7861 35.4614 71.3128
11.1444 15.1435 64.3593
13.853 35.8857 69.692
13.5538 25.7216 75.9079
11.892 45.1417 135.773
16.7334 32.7664 97.4353
20.5344 40.4021 93.5965
15.7702 32.9915 71.3007
15.359 30.9708 73.7098
7.98518 21.0756 76.0205
20.9977 42.6147 96.3771
9.53274 24.581 72.0082
14.1657 31.0623 87.0368
16.2111 53.5913 146.188
16.0881 24.5642 50.5772
9.41962 26.6638 69.7915
8.81417 23.7345 57.578
9.10497 25.3682 94.431
12.1486 22.8774 63.1347
13.1702 15.8776 45.7794
16.421 28.4841 51.9238
5.77146 21.069 89.9106
12.6387 28.192 92.0697
15.9308 47.0192 91.1822
13.0477 39.4345 160.45
26.0234 47.0457 114.055
18.9049 33.0117 75.3492
10.9962 31.5682 97.5852
24.2036 43.9603 84.7285
16.1411 40.3125 93.3365
6.83048 28.5337 120.025
15.5341 19.3558 56.2877
12.5692 38.6051 88.7053
11.7729 24.4949 59.2769
10.9257 19.9105 58.7214
9.14614 18.2522 83.7746
13.5059 43.3683 106.177
11.574 28.5839 108.758
16.9892 24.3547 55.7207
12.8358 32.4123 83.5507
12.909 34.4892 80.38
14.0583 24.4057 82.9016
11.988 25.309 65.5269
7.76373 18.6038 73.6807
13.9228 21.6215 60.8325
16.292 29.8044 66.214
14.6176 42.4121 126.545
10.1142 37.1881 88.3397
17.2185 35.7469 84.4463
8.37366 21.5989 59.5356
13.8612 27.5036 61.0663
8.31763 19.9222 69.3135
8.28078 18.6086 45.5104
10.5257 32.8845 122.768
10.3672 24.2261 56.4725
9.4945 30.7232 77.2045
12.4213 37.9523 112.607
14.4548 22.2964 66.6912
12.261 25.4149 69.8416
16.408 34.3177 117.762
15.542 30.6118 58.6879
7.69667 32.3013 108.909
19.4224 37.1286 99.2354
11.6573 25.9003 70.2761
10.3997 42.3927 101.895
11.158 20.2591 85.6198
15.7588 34.4123 83.8318
9.14597 21.0358 43.5816
4.25782 9.47191 30.8108
7.26472 23.5412 73.7669
7.81558 25.8808 94.3241
9.81267 31.4435 117.327
20.0825 27.354 71.4106
14.5175 37.4156 79.1592
11.5888 35.9872 142.06
19.5267 30.1077 74.0532
13.8793 29.5963 61.2841
10.1714 20.0737 53.0331
8.09572 25.8 58.1164
8.81562 28.8133 103.703
12.703 32.7833 94.265
11.3557 33.9708 106.167
16.5937 36.3248 100.767
11.9156 28.7013 130.912
15.5958 33.2975 111.936
19.4402 39.8663 91.2797
10.7923 25.7125 82.8563
12.8792 38.012 97.3459
13.3591 19.949 49.9936
9.68995 14.5718 36.4267
11.8449 40.0703 93.247
5.6465 31.1479 117.286
10.2205 23.2312 78.0881
10.9613 17.3986 56.1469
7.20995 18.3086 81.1029
16.1753 37.5818 92.6482
10.0343 20.0429 93.0446
10.0443 27.2824 60.0759
11.2389 31.1402 83.4861
14.6165 32.649 101.093
8.05864 18.3256 59.8717
8.97396 25.7935 111.524
16.4081 28.7191 58.6141
10.1526 41.6414 108.955
8.85677 21.853 71.7784
7.14604 11.3089 70.114
17.0924 51.6023 136.426
10.7017 20.6427 53.6118
10.8701 28.6523 69.8816
10.0121 29.384 70.8861
7.10064 20.5618 67.6734
7.82666 12.8718 40.2584
8.22736 28.267 106.167
13.824 19.4389 53.8967
11.7763 42.7554 130.95
18.3224 51.3872 154.303
14.3302 25.1343 63.2595
6.25287 22.4095 57.1308
7.17661 12.8951 50.4324
12.2122 29.5106 77.6992
6.11212 26.2929 95.1624
14.9382 28.4965 57.3197
6.84362 38.5206 148.265
18.2445 37.8724 138.42
17.9243 29.4826 95.1204
18.1504 68.1239 198.858
12.2605 23.8409 58.5571
9.3601 31.356 77.7385
8.13011 34.231 103.231
7.22414 24.9875 71.2679
5.39269 21.2235 90.7365
9.15536 28.5339 88.5627
6.90469 23.624 101.931
11.4872 34.5448 125.04
11.4336 39.141 127.719
12.9368 40.6601 148.813
17.7406 27.7138 96.5034
11.6379 27.6026 60.3264
3.9506 26.8981 134.648
18.5229 26.4935 54.0071
9.06451 25.633 96.3636
13.2237 28.6232 136.394
14.8003 29.6187 56.6872
7.97463 40.8117 156.207
20.6457 43.7095 131.167
15.2194 32.1276 102.086
13.5772 56.4663 160.957
15.0015 25.7972 83.2473
7.41928 22.5147 74.918
10.3929 28.1569 85.3977
6.89721 23.1881 94.5692
8.32504 14.6811 70.0685
9.62522 40.582 85.4957
10.6302 32.3932 132.708
15.1148 34.3506 104.484
13.4136 37.9245 152.138
16.5216 32.7542 72.6563
10.5912 25.0985 100.853
7.21393 33.6068 78.2087
5.15792 16.3914 61.8843
6.13381 17.2616 45.3672
7.0133 22.6317 86.7594
13.52 35.8824 112.627
7.23531 25.2505 105.253
12.3357 36.7273 79.1403
7.04513 29.3377 84.3671
8.7865 24.011 122.18
15.5356 32.2218 136.152
14.5782 15.4316 53.3938
14.4583 35.0448 74.7195
6.15193 26.6092 125.545
15.58 31.0783 70.1845
11.2243 28.5452 88.4925
9.45633 24.4261 81.0594
11.2292 32.0935 88.7936
10.7592 32.6657 81.8579
9.65075 29.1797 104.165
10.6383 31.7729 113.836
9.22506 16.737 74.8515
8.55785 19.6112 55.9036
12.6161 39.6218 100.376
8.53271 14.2907 57.1127
6.42725 22.1538 79.4242
7.36156 22.8406 47.3697
6.50491 24.777 106.342
13.3271 38.7087 111.163
11.2528 25.6663 102.669
7.61057 25.3313 120.03
13.7062 33.214 69.9838
7.52291 24.6622 75.6584
8.53916 17.1162 56.6712
5.84446 17.3951 47.2772
5.69139 14.1602 58.5166
6.07447 25.2958 125.007
14.281 31.092 92.1218
11.2302 30.8538 109.685
9.14809 23.4101 76.7891
8.48673 16.5839 40.4695
7.74397 21.8418 63.564
6.38713 13.4397 69.5465
8.4255 30.8667 94.8773
10.2896 23.3439 70.4969
10.4362 36.5488 125.697
9.27079 21.1798 55.3071
7.48784 22.2504 51.3854
4.50862 19.4181 69.8791
7.43978 20.6619 82.5496
9.98414 39.6724 148.121
11.167 20.0989 61.6418
7.77944 25.6684 108.028
10.4966 26.1379 91.5468
15.209 49.767 182.565
13.9995 25.1455 101.201
15.2052 50.1161 155.887
12.411 14.5996 89.8756
11.0013 28.8908 75.0116
8.56233 24.4506 67.3478
8.01674 20.5929 115.085
14.6667 40.9272 99.932
8.97411 22.1976 70.8496
6.61827 27.3348 63.3981
4.41548 23.5539 116.293
10.8284 24.4448 80.9524
13.4203 28.2204 111.669
10.4903 18.2696 56.9924
9.70271 47.2531 114.202
10.1744 31.8858 118.637
6.49434 22.361 117.43
10.8228 20.5171 65.0339
6.81488 17.4999 109.004
12.2435 30.3203 61.8565
6.88015 24.1726 60.5605
4.31014 19.7908 70.8333
9.32494 20.0722 87.8222
8.94236 30.8036 117.655
8.1881 20.9766 54.109
7.16381 25.9916 92.1181
9.07242 16.7781 57.2259
5.11317 14.1723 75.3338
10.5261 28.5127 100.953
10.1556 22.1415 80.8675
12.7247 35.2371 111.277
10.249 36.4349 145.98
12.537 19.2686 40.4254
5.30482 12.7126 66.5928
10.8768 30.2729 76.1797
6.6972 32.9164 114.433
8.89334 24.0863 55.7011
6.74096 21.8892 68.515
4.23411 28.351 137.402
10.6285 29.8491 92.9584
6.98523 9.63158 78.9424
10.6786 15.5695 76.0381
8.94182 25.6759 108.114
15.7795 54.7699 82.6901
3.87537 13.8643 59.5895
6.67911 21.8512 92.6009
9.59216 14.2648 59.9914
9.95642 30.6789 91.5334
8.71346 31.7707 88.349
5.45463 23.4069 119.088
14.0308 29.0889 80.9196
9.70862 23.8843 132.797
8.80319 32.0784 104.673
9.87477 32.9333 71.9754
7.81556 33.6289 136.237
9.09312 17.2065 94.2103
7.73327 35.4327 97.0958
6.8146 22.337 79.2293
7.21392 20.353 79.2494
7.00956 20.1627 69.6498
7.04856 12.9597 75.634
7.02497 26.0072 72.8935
6.946 12.6332 34.0808
7.10721 21.614 109.217
8.47784 29.109 93.8356
10.4868 34.3279 121.479
8.20216 23.7566 60.8685
7.07771 27.0787 93.0409
12.2517 44.3028 184.931
11.0884 38.2674 123.264
12.285 38.8535 123.837
10.3301 25.3384 77.5541
7.12856 24.8144 96.2691
8.91314 33.5686 141.471
11.1773 24.7562 69.1695
7.3136 35.6642 104.967
10.0763 31.4329 145.996
15.0948 14.734 113.8
17.5682 37.0021 52.9611
5.74125 20.1853 92.4179
5.14784 31.2798 127.038
11.5189 21.5074 101.814
9.70686 40.2891 115.638
7.99187 22.4646 104.233
10.9615 34.4593 118.137
9.399 32.9731 102.717
11.4101 24.3442 104.664
12.6887 26.6099 98.5685
10.5049 37.9103 93.4716
7.8258 16.3086 84.8298
10.6691 24.0485 98.733
10.5025 40.442 100.778
8.96645 30.8714 149.841
7.79071 23.0872 58.5403
5.10344 17.9663 79.9731
8.72294 22.4533 100.941
11.4857 38.8783 93.3915
7.13167 16.2157 66.1335
5.54426 27.2901 56.191
3.95203 35.4988 151.546
9.27092 15.5791 66.418
5.0076 9.24677 65.0081
7.31646 41.909 160.033
12.1205 13.973 98.6578
12.0896 27.7568 92.9849
10.5358 24.1644 71.0697
7.68953 20.8106 91.0517
9.41021 43.7872 143.73
8.14259 25.556 93.8901
10.5548 15.6865 52.1511
6.13152 24.7132 100.6
9.7221 28.4201 84.5583
8.13106 36.3804 103.172
7.88886 17.16 103.074
7.43586 43.6383 194.304
14.761 30.4241 56.6865
4.57818 19.2029 71.435
5.44899 10.2577 64.9952
5.31007 17.41 77.8198
7.65679 20.3092 76.3681
7.20156 28.8564 79.3132
10.3741 35.8174 178.225
12.021 27.1651 113.554
13.1381 23.0748 24.4949
4.68089 27.2827 84.3044
6.36133 13.5475 66.1951
6.42376 14.0324 47.7848
3.49371 14.6622 76.8314
4.66307 27.0759 101.154
7.50501 26.1734 95.9099
8.98757 23.3226 96.568
7.64172 25.2247 63.3696
5.24398 16.906 72.2996
7.4502 25.0911 80.5982
6.38681 31.5196 109.836
11.8441 23.5224 92.8066
10.2582 20.3817 117.512
10.7916 33.2468 95.6146
9.11191 38.7151 134.412
12.8311 20.1986 77.4342
8.04506 20.4572 74.3988
6.45907 24.2216 91.2076
7.98631 22.9222 69.9522
5.76178 22.678 95.9136
5.52396 18.7854 95.0993
10.4682 18.5097 99.23
13.6949 32.9636 104.876
8.36917 28.8329 80.2018
4.52347 23.1619 99.9983
7.45152 28.9867 74.2728
6.18021 25.3634 86.9795
5.27924 25.9276 89.4795
8.12259 20.3524 98.1579
8.39352 14.8604 86.7812
7.52216 25.1408 59.56
6.23011 21.89 81.301
9.11847 20.9934 48.4315
5.74314 20.3625 76.852
6.22117 24.6006 67.3644
4.51949 18.7794 132.574
12.1822 34.3527 95.0849
8.5013 36.0484 146.769
11.1119 21.2682 84.9136
8.6852 30.3315 75.2588
4.12984 28.6972 163.819
8.81421 20.0568 65.7848
7.25327 20.2932 87.2599
4.97844 19.1943 92.6168
10.6778 32.9401 136.499
10.7602 41.6779 131.186
9.50218 12.6347 59.1629
7.57915 22.5634 70.8278
6.61304 32.6426 129.545
7.65267 18.226 76.8631
7.19311 17.6003 78.8006
10.4843 32.1452 99.7985
6.38544 19.1143 72.2719
8.17459 23.9219 94.1459
6.49628 26.5501 84.1527
6.01491 14.4081 64.0752
6.37214 28.5814 82.864
4.46591 16.9396 86.1926
5.9297 22.501 94.4794
9.52677 25.6939 103.37
8.11916 15.265 54.8002
5.8982 16.1864 73.9389
8.60271 27.8567 110.721
9.02932 22.7802 147.385
14.052 25.3939 83.0074
9.73769 16.1255 57.009
8.01083 21.7252 80.3974
7.00678 30.7751 116.31
10.8024 35.4716 94.3856
6.78413 28.9953 68.2391
2.74981 11.4759 103.839
6.70984 15.2074 70.9355
6.26387 26.1315 85.968
5.40316 24.7675 108.646
11.3086 46.1941 152.879
9.13633 21.8981 70.133
6.47097 20.1641 63.8381
5.73932 18.2786 62.9785
5.40895 15.006 56.3853
7.50773 14.6607 69.0014
6.57806 28.4457 94.6657
8.68394 18.9454 69.8771
6.14724 38.0455 138.915
7.3745 8.06324 71.0386
4.37471 14.964 55.8271
5.0302 11.3035 69.8539
5.06805 12.3119 81.422
7.86821 20.0247 49.2364
5.81528 19.2674 77.8704
5.63013 21.2952 61.7474
5.2483 24.1461 54.2216
7.04499 15.07 76.8648
6.88587 18.9921 68.9424
5.8506 21.9543 50.0681
3.2836 12.9944 68.7281
6.39223 22.9125 104.31
8.16167 19.8584 99.654
9.8904 18.3357 90.6521
7.20396 36.3678 120.672
8.86342 21.9068 104.184
9.62006 22.0532 43.0791
3.15828 20.3883 50.276
4.80353 15.7222 95.6187
9.13996 20.9785 89.96
5.2963 21.7384 84.9868
6.21691 14.0413 63.0323
6.34685 21.942 116.792
5.13248 14.8626 56.518
6.162 30.7658 123.367
7.5679 23.1466 99.2931
10.3365 19.6607 63.1828
5.84053 21.184 103.034
7.08277 37.1394 161.782
12.0694 24.8985 60.7613
5.66732 17.0399 97.5055
7.82239 27.044 123.161
9.8369 44.0421 121.422
8.60414 23.1531 55.9874
4.06423 16.5383 108.698
7.91638 29.947 88.3444
9.08033 27.761 131.82
11.1454 28.3208 141.751
11.6722 25.9125 78.2302
6.53637 22.7421 104.752
7.35219 21.2489 51.5381
4.88597 15.156 49.7747
3.39502 20.8082 88.8201
8.55572 26.2654 87.2538
7.50154 24.0051 114.525
6.55897 19.427 78.439
8.47971 21.2488 88.8418
7.58115 15.8914 133.951
8.5595 50.9985 101.141
6.25223 19.3551 111.993
8.26558 20.7621 39.4976
4.99175 31.957 232.983
13.4928 31.8194 99.2419
7.34137 32.4189 99.3662
6.36005 27.7402 91.0734
7.78677 22.9224 50.3432
6.18185 20.8085 99.0177
7.46849 20.4791 107.844
6.62427 26.6491 135.182
12.2485 46.655 190.256
11.015 34.165 103.264
6.25348 28.0105 112.04
10.3189 17.8942 70.5676
4.75852 19.7858 45.5004
4.70134 16.3024 58.7336
6.0583 11.7668 57.2783
5.30424 20.0089 53.5342
6.10518 15.316 67.1584
6.26992 12.4375 38.2607
6.19277 19.7002 149.798
9.84032 25.9544 71.1324
6.293 23.4749 87.2501
4.61862 19.8169 65.3377
6.886 27.7958 62.9178
4.96681 23.1751 107.888
5.47078 34.6708 143.36
11.1206 22.6081 65.0864
5.88039 9.31225 61.1888
6.28942 25.8439 116.163
9.18698 25.8526 120.72
6.26499 28.2299 75.3138
8.20657 22.102 58.554
4.8379 14.0534 71.1487
5.0314 18.739 110.792
7.29385 19.9804 83.5319
8.90168 25.1208 119.903
9.57704 20.3815 96.6744
9.22573 29.8778 122.661
9.66054 26.1583 104.302
10.0921 29.393 114.178
8.70383 24.3712 134.278
12.2422 25.7415 99.0636
10.2988 20.1522 86.7461
9.35658 38.5288 105.807
10.0111 31.379 115.25
7.57346 13.8842 33.9303
5.03295 17.6982 85.083
4.31489 17.3786 48.1276
3.60132 20.3645 72.5624
5.48844 17.9175 44.4653
4.84786 12.8179 98.5348
7.45941 24.2837 133.942
12.6336 31.5111 127.211
10.1737 16.9274 100.583
8.26594 35.7074 86.2158
7.65524 18.6414 82.8706
4.63058 17.2484 82.6818
6.98609 42.1757 140.767
9.22353 27.2216 47.6596
3.88559 19.6969 133.803
9.82329 27.567 137.423
9.05974 29.9606 157.577
12.2673 34.1014 107.245
11.1625 25.2697 79.5815
8.24654 25.4945 155.925
10.2968 17.338 70.5747
5.03887 20.8103 76.0036
6.71202 20.0371 84.365
8.11322 17.9221 81.4925
8.77779 34.4066 125.435
10.7507 31.9632 74.8475
6.03164 13.1069 96.3471
6.32377 18.175 53.5431
4.82322 15.5711 77.7614
7.70676 18.4868 36.9199
4.91816 16.182 94.7202
6.82553 28.9764 89.753
7.92014 15.1092 47.2802
5.03126 27.4485 152.939
10.4607 31.7236 101.134
8.07184 24.4001 111.088
8.70048 11.9275 82.8623
6.99925 18.5474 63.0539
6.32119 28.1302 60.7196
4.25546 22.9892 120.194
8.83902 21.8653 102.583
7.39168 22.9811 84.2415
5.46845 31.2729 107.989
8.05037 17.0118 55.27
3.53429 26.7753 74.1573
4.8227 11.9083 47.5165
2.79558 16.3895 104.14
7.53417 17.6054 84.9093
5.13676 21.0141 58.5192
5.63066 17.4994 54.7557
5.4024 20.4419 93.6888
9.57221 27.4725 88.5156
7.2452 12.6594 71.6461
5.30771 25.2218 135.649
9.66024 23.508 80.3798
7.1848 31.032 96.1614
6.02799 18.8628 94.9893
9.04925 31.9564 86.7123
6.67972 18.1261 75.8401
6.48017 33.0486 190.252
10.9889 37.871 135.111
13.632 0 0