# pn-170911/CsIIF-65-USN7-1280-1959.psd
# Power spectrum* (dif=0,1,2) (really just |FT|^2)
# NOTE: only the first half! (symmetric)
# weeks: 1280-1959
# 50 clock-days, 485 excluded
# PSD: 1441
14042.3 0.448367 0.099301
758626 17.2281 0.172616
2.03432e+06 35.2012 0.175256
992436 33.3832 0.152696
606226 41.1386 0.146772
254344 25.5689 0.15976
271125 39.4628 0.141318
153482 30.9894 0.191959
110991 33.7707 0.184038
76366.6 29.8288 0.171884
75389.8 29.8656 0.218857
45632.7 25.1844 0.164665
57730.6 29.0223 0.179748
53710.5 34.9597 0.269423
43664 31.2841 0.189135
36428.9 28.9919 0.18226
35886.3 34.9756 0.190574
28012.8 30.9246 0.174362
23624.3 34.5478 0.180942
18561.5 29.4314 0.192951
18271 30.907 0.201959
13834.9 23.6263 0.183895
12785.9 24.651 0.236718
18838 39.4618 0.269978
13055.3 27.7055 0.212004
12534.9 32.5829 0.297546
13535.3 33.7329 0.279004
14547.1 45.7322 0.348923
9398.36 29.7758 0.223459
8553.62 25.2727 0.255143
8650.24 33.3208 0.374375
10962.6 40.9045 0.363624
8273.6 35.2738 0.308496
7947.15 36.9583 0.413583
6584.07 27.4226 0.26523
7540.95 33.2304 0.356346
5626.66 28.9147 0.421936
4473.19 27.5339 0.283776
5920.67 32.0693 0.372437
5537.9 32.7571 0.409435
4687.26 28.2382 0.360084
4624.74 31.7054 0.269797
4656.64 33.194 0.423643
5229.9 36.1873 0.492855
3966.64 27.2472 0.433823
3485.72 25.6115 0.338373
3682.9 33.6962 0.458384
3523.83 29.6501 0.47413
3446.49 32.67 0.649991
4299.45 37.5849 0.60109
3717.58 40.309 0.567718
2762.76 26.6034 0.390531
3076.5 31.1547 0.514961
3233.08 33.3325 0.618857
2453.45 25.2404 0.464347
2600.19 33.0569 0.525144
2797.59 33.7547 0.627975
2779.52 32.3895 0.626671
2081.7 27.3214 0.539044
2220.32 36.1914 0.767295
2056.76 29.1846 0.64978
2413.96 33.4976 0.728964
2023.52 32.4035 0.842983
1636.68 28.5164 0.685032
2082.39 34.9272 0.907176
1782.43 30.1298 0.835979
2299.63 40.8206 0.843601
1650.58 26.0312 0.659594
1927.03 35.4052 0.990474
1128.21 17.1892 0.539338
1602.28 29.1664 0.833948
1302.1 26.0916 0.913528
1558.05 28.1012 0.750979
1284.37 29.5769 0.811946
1765.56 33.6873 0.983392
1448.32 31.4802 0.869284
1305.58 31.8015 1.00233
1291.36 29.2283 0.843323
1227.11 31.8018 1.1594
1197.33 31.3732 1.07468
1213.66 29.8413 1.02906
1099.5 28.8283 1.14558
1100.08 32.246 1.23542
1104.94 27.4233 1.01247
1169.64 35.5376 1.35698
1054.74 32.6349 1.2175
1023.56 27.1203 1.23671
932.847 27.3768 1.01345
1180.53 36.5518 1.53254
1075.86 32.7713 1.33022
952.015 29.9961 1.38858
998.501 33.5226 1.48325
702.787 25.5854 1.03713
838.821 27.965 1.28762
821.789 33.4176 1.42272
875.234 26.9872 1.41267
808.75 29.0347 1.39787
936.006 38.1645 1.68949
770.935 29.2076 1.49887
715.886 29.271 1.49228
804.785 33.6175 1.65223
635.377 27.3931 1.4984
809.459 36.9286 1.81982
733.421 31.0394 1.71206
708.1 32.1697 1.80607
896.481 42.8222 2.44785
804.123 30.9222 1.79335
858.465 39.094 2.2276
619.425 26.6156 1.64804
723.425 33.5084 2.13652
595.411 24.8056 1.5391
703.549 31.6507 1.91482
673.468 32.1762 2.21742
565.547 28.8909 1.83328
537.27 26.7553 1.68024
679.625 32.4319 2.0603
651.206 31.6057 2.13118
636.3 34.6351 2.0142
538.912 31.2429 2.00398
522.309 31.0095 2.12652
524.772 26.8686 1.6887
668.506 37.8537 2.50836
540.639 33.712 2.55246
479.124 28.8962 2.06757
469.18 27.535 2.14385
450.904 23.2633 1.89289
647.627 38.5174 3.11322
438.074 29.5949 2.20581
576.573 30.9979 2.18987
545.76 35.2022 2.92988
458.578 29.2457 2.30601
425.817 26.3176 2.08715
452.77 27.4774 2.34245
475.543 31.1392 2.65175
481.982 35.2552 3.0081
526.425 34.4568 2.94513
452.337 32.6439 2.97109
384.355 28.597 2.57086
401.168 27.9198 2.55048
364.95 22.3364 2.15415
474.115 31.1052 3.06946
350.068 28.9587 2.59813
407.309 33.4815 3.35317
411.119 29.973 2.82375
399.675 31.9694 3.51721
422.685 30.0231 2.98835
395.369 35.8045 3.47228
389.835 28.3151 2.8529
366.928 24.1762 2.52349
313.468 23.4821 2.27228
366.316 26.5539 2.84873
413.118 33.295 3.46156
320.959 27.8021 2.63389
341.293 26.3638 2.86615
287.52 26.1683 2.96036
368.444 35.4702 3.98162
337.562 28.3878 3.09699
304.183 33.2184 4.31122
293.988 27.9087 3.35606
275.018 27.033 3.1997
326.974 29.7912 3.39595
378.099 37.6048 4.94927
327.169 30.5153 3.48607
327.63 29.9455 3.69417
285.133 29.7882 3.91579
273.147 29.5081 3.76011
255.643 26.2834 3.49746
214.94 22.0284 2.70644
269.375 31.2767 4.17501
290.97 26.5146 3.27442
267.329 29.4403 3.96972
265.301 28.937 3.84286
235.345 25.6836 3.26473
238.204 27.2467 4.0113
307.94 33.4087 4.56785
316.395 37.1891 5.35436
243.28 25.9939 3.82326
229.508 27.5804 4.12673
199.473 25.7194 3.81081
247.917 30.7843 4.79908
226.544 27.5711 4.25904
229.792 28.8614 3.97181
255.359 32.6109 5.30512
165.524 21.5707 3.66757
253.284 31.8382 4.87143
235.681 28.0649 4.56175
195.227 26.5101 4.48863
208.159 30.2883 4.69056
231.628 31.6332 5.42697
214.428 27.1245 4.18921
189.402 26.7562 4.58882
224.215 29.9606 5.41822
211.18 27.8286 4.58251
219.075 31.6303 5.42761
196.912 29.3728 5.12784
187.33 31.1256 5.33916
250.87 36.3064 6.31084
328.657 44.8658 7.81291
223.109 30.1978 5.45903
182.981 28.3048 4.91708
169.718 28.4732 5.50775
181.992 24.904 4.71869
215.028 36.0014 6.87299
180.607 28.3231 5.75035
192.366 32.0989 6.34891
152.519 22.0064 4.27014
219.672 36.3181 7.46654
218.407 31.8169 6.62277
220.474 31.7155 6.42433
138.819 20.9313 3.97336
162.088 29.6903 6.07582
173.831 31.5511 6.38548
181.583 28.5326 6.19212
175.465 29.6267 6.13197
173.937 34.07 7.04059
186.313 31.8515 6.65873
154.425 22.8952 5.18363
176.09 28.4982 6.34983
140.308 24.2402 5.03859
173.136 32.7121 7.04121
162.603 27.4433 6.26093
162.933 26.9088 6.25454
154.043 28.3149 6.69651
158.574 28.2565 6.63271
211.057 34.5209 8.01754
179.861 35.4991 8.20891
122.16 24.0605 5.20936
157.153 31.6524 7.53794
174.168 30.4944 7.15577
137.323 28.1354 6.87402
132.712 28.1226 6.87881
161.477 32.5998 7.8367
168.077 35.415 8.79293
163.396 31.9516 8.03848
124.53 22.2988 6.28747
145.994 27.992 6.77987
130.14 27.111 6.86157
136.871 27.445 7.24511
160.144 31.6059 7.99578
114.222 25.4544 6.78659
160.38 37.0888 9.94356
148.956 31.0319 8.61071
139.838 29.4796 7.9938
159.647 30.1621 7.45484
128.717 29.0391 8.13527
121.923 22.8869 6.16348
126.559 29.2129 8.91543
124.831 33.192 9.30121
99.6533 26.3441 7.37824
116.888 21.695 6.24687
133.622 29.4882 8.36874
128.806 31.666 9.84614
142.021 29.2776 7.79429
122.055 30.9309 10.2202
106.705 27.9879 7.9941
124.038 32.4537 9.99004
130.931 29.4112 8.06375
111.864 27.336 8.72444
135.808 36.4765 10.5594
117.267 28.8438 8.89655
121.087 30.9344 10.4932
161.878 33.3653 9.5242
118.207 30.772 9.71277
114.839 25.5248 7.75657
77.7695 23.3996 7.83354
136.025 33.072 11.318
111.445 27.5113 8.71274
121.249 31.5165 10.3971
134.132 28.9699 9.58678
130.372 34.853 12.0493
93.3586 26.9562 8.5977
103.164 28.8401 10.0651
106.655 26.5974 9.22027
101.607 26.4807 8.89941
116.559 31.4332 11.6231
111.417 30.8051 10.6061
100.648 23.2745 8.24757
118.627 31.9612 11.7204
132.26 34.1016 11.8539
113.391 32.3103 11.933
137.932 32.7835 11.2147
81.0633 23.7674 8.59731
101.654 28.3969 10.169
99.027 26.9372 10.1183
120.836 32.9408 11.9889
116.513 31.1691 11.6767
122.165 33.665 13.0327
105.798 27.9718 10.0999
92.4307 34.3553 14.0359
111.98 33.6937 12.632
112.263 30.2216 11.2916
125.541 33.3894 12.8999
108.248 25.8634 10.0796
79.8302 24.4788 9.53221
142.448 44.4199 16.8501
92.7669 26.0655 10.8924
123.458 36.0649 13.2772
91.2031 31.1543 13.3789
124.247 40.7753 16.874
83.0738 23.6731 10.1386
107.942 38.6779 17.187
86.2873 23.059 8.79933
91.0463 32.8529 13.7351
94.9938 26.546 11.1686
98.6965 29.139 12.3411
94.9106 32.5134 13.2977
101.718 30.5675 13.541
96.0139 28.4077 13.0212
96.7533 28.1551 12.0149
97.6705 35.221 16.4634
73.9622 27.9711 12.3344
99.6877 28.5417 11.7666
72.6032 27.7852 13.5661
79.4244 27.8366 11.8497
86.4379 28.4078 13.0275
82.5279 25.1237 11.428
69.3072 21.594 10.2326
105.255 37.9273 17.8283
105.801 29.4628 11.5067
61.8481 22.209 10.3513
64.2945 20.8621 9.70809
70.4801 23.4348 11.5003
80.8547 28.0442 13.6921
91.365 28.562 13.1546
60.4877 28.1369 13.6592
72.1164 27.7926 12.2584
81.3251 26.0191 12.7971
71.2238 24.7281 13.2114
73.1978 32.291 15.2147
61.696 22.5992 9.63525
85.724 34.5733 17.0407
76.3505 25.8047 12.8377
71.5773 29.5208 15.0493
83.7787 33.3903 15.8578
61.604 26.0216 13.4201
72.3145 26.0037 13.6457
87.9847 34.1932 16.8112
80.712 34.0265 16.9159
83.3543 31.0775 16.7374
74.9028 28.2662 14.9781
70.0578 27.0343 13.5932
73.8601 35.4929 19.3389
69.1632 30.5823 17.5252
100.439 36.598 19.4633
64.8537 31.1135 16.804
59.6978 25.7303 14.2684
112.815 41.3347 21.7834
71.4977 32.4528 16.6549
64.1761 27.7055 16.3492
79.2385 39.6603 21.3543
81.4476 31.0056 15.6227
77.6529 27.0947 15.218
72.6407 28.9287 15.9845
59.0377 27.5234 16.4193
75.3529 27.5152 15.0858
84.9553 35.1114 19.2899
64.2006 30.4042 18.2074
90.576 38.5957 22.0139
60.0181 27.8249 15.769
73.965 29.1262 17.2561
67.1835 28.863 16.3241
70.8857 28.3081 17.795
61.972 27.2507 15.4047
64.8784 24.9104 14.8932
72.6116 33.7295 18.8343
63.7651 30.7938 18.386
66.804 31.8756 19.4031
61.8478 24.6169 14.9303
59.0136 27.091 16.6196
65.9123 33.8608 21.5158
64.1411 24.892 15.805
78.2423 34.3221 21.9836
64.6896 31.6608 18.9145
64.817 34.2123 21.9847
79.7291 36.7442 24.0265
67.1621 29.6518 18.2304
74.5077 29.622 16.6733
59.1894 30.5754 19.8956
68.0967 34.0681 22.1291
66.6185 30.9984 18.9646
78.1071 37.7054 23.8832
53.7328 26.0852 18.2377
65.3619 34.7563 23.9281
62.6377 29.3109 19.0074
60.667 32.0626 21.8455
70.0231 32.0522 20.2038
65.4619 32.4256 22.0262
73.1435 34.5876 24.1376
60.1722 34.2292 22.0287
59.981 30.5682 22.3257
71.6312 30.0919 19.9792
54.4422 23.8731 15.7186
51.9743 24.7001 18.2267
58.0615 29.9516 19.3104
44.0112 25.2943 18.8821
68.2098 26.3306 18.428
61.2691 31.7572 23.2207
61.8948 33.3369 21.6711
58.5138 26.895 17.6907
61.4985 30.4441 22.3922
66.4063 34.0438 23.0405
46.6231 27.5801 21.2722
45.9073 25.1663 17.3955
55.1878 29.995 22.272
52.0727 22.4712 16.8537
58.5573 33.6096 25.2404
55.3233 30.5199 23.1873
63.9661 31.8612 24.9881
55.646 30.4065 20.5801
59.9029 26.8842 20.568
61.5572 31.8163 23.6948
59.4694 27.5194 20.7168
51.6018 28.798 23.6024
58.2281 28.7913 19.4437
69.6272 33.0576 24.9041
63.2851 29.6596 22.2171
49.0283 27.9957 21.8585
44.8504 22.5221 17.4696
58.657 35.5915 29.0594
56.1691 32.3456 24.9011
60.082 30.5802 22.6545
32.8181 22.5759 19.3276
51.1167 25.4086 20.4161
71.518 36.2932 27.1088
54.7478 33.9371 28.1875
57.9841 37.7798 29.0516
55.6377 33.2197 27.4141
61.4278 28.0405 20.7673
63.2242 32.1281 28.4986
62.3667 35.3312 27.8227
56.275 29.7363 23.5256
58.9102 27.0916 22.1098
48.3827 24.127 18.9001
46.4912 33.973 28.638
52.235 24.2235 20.2526
40.2342 26.0112 22.1202
54.9475 26.6637 23.7775
57.834 35.5849 28.4191
47.6191 29.464 25.0257
52.7453 30.0092 23.5255
58.088 33.3085 27.1755
49.9465 28.4374 24.7669
41.1855 31.5673 29.7721
48.8245 29.9884 23.8984
44.8817 25.4759 24.5723
54.0462 30.589 26.9084
66.9839 42.9843 35.2981
39.6978 24.6867 24.3263
49.5778 33.2767 28.3051
52.1638 33.6462 31.4488
50.6826 33.0052 29.8109
56.1585 30.9432 27.496
56.2777 34.1614 29.1956
56.8436 28.9452 26.6001
46.8619 28.5915 25.0292
51.4375 25.396 26.3749
53.1515 30.7299 27.2183
60.8615 37.5519 34.1612
50.3831 32.6184 30.2224
46.2812 31.0056 26.9538
53.7442 29.1923 26.7734
60.2348 36.9052 31.6282
48.884 32.2801 29.9039
47.114 31.5025 32.5573
49.3447 29.8693 28.3932
49.9489 30.2712 26.6444
41.3307 26.3668 25.6263
53.0193 28.4739 27.1069
36.0874 27.6342 28.0219
53.2234 35.4067 30.3661
55.2406 36.2851 36.3296
43.7531 30.4398 30.024
27.7098 28.2578 26.4474
38.6934 30.3092 30.4355
52.8591 29.3234 25.3334
37.4249 24.3367 25.6495
48.8182 32.4777 29.1607
40.7818 27.3079 28.0906
39.0939 21.7254 23.8913
47.1595 33.0921 34.8889
46.0781 30.6265 27.1567
54.6178 37.7187 35.7578
46.2799 29.85 29.3988
39.7278 32.7134 33.703
38.7991 28.5022 30.5291
44.4368 30.722 27.7294
35.3417 24.2391 28.6885
37.4717 24.5583 27.4775
40.0967 32.8012 35.747
45.327 36.1621 35.5257
52.3325 28.7086 27.4207
31.0115 20.955 20.029
38.3293 27.0274 29.4504
48.4938 33.5537 34.2684
40.289 28.4112 35.2325
55.8329 37.904 33.0729
36.3544 28.0463 31.3932
34.4235 28.6675 31.658
49.7823 34.36 33.9766
32.4851 28.0605 32.7274
40.1466 33.7351 34.9221
37.0955 26.5711 28.9791
47.1337 27.5154 27.5245
34.1568 23.9195 29.912
43.1962 24.5586 25.6234
36.427 28.5478 31.3092
41.591 28.8413 29.4506
35.3209 26.832 28.419
30.8735 31.4732 38.994
46.9679 30.9513 34.2316
42.8443 31.2036 36.0049
37.2065 32.4468 36.9477
39.5603 30.6968 34.3654
42.8311 25.3962 27.454
32.2328 23.8828 30.0842
33.2287 30.0108 32.2896
38.0889 25.1146 27.9231
37.1789 25.4388 32.5323
53.2836 33.284 33.0875
41.0669 26.4286 33.3125
44.4842 39.4319 45.428
31.5759 23.2939 24.6992
41.5428 35.587 44.2187
48.5231 40.1887 45.2385
33.5093 20.7088 22.3353
31.2006 28.3694 37.551
41.0242 27.736 30.6812
40.407 33.7478 37.5908
31.8545 30.2975 37.3563
35.762 23.6873 29.3368
39.1301 34.9681 41.8606
36.6197 25.9218 29.3515
42.2152 34.5265 39.4696
31.8314 24.0248 29.4217
34.1074 22.9052 30.889
46.6154 36.3214 39.8324
36.6113 32.6984 41.4432
41.7841 34.2035 39.0617
37.2094 28.664 37.5682
39.4412 29.3238 36.7374
37.1761 30.274 38.8923
28.8221 31.7705 39.2468
38.1055 27.923 30.4389
33.6396 30.3722 40.7914
33.3671 24.1375 30.7904
43.6329 40.4686 50.026
42.2602 30.393 38.6958
31.4896 25.1961 30.7038
32.7739 30.5199 38.1853
33.5237 28.1727 37.1304
34.1281 27.4608 36.2018
28.1529 23.7651 31.9146
33.9389 37.0945 46.0784
44.2727 35.1556 46.7366
29.2933 22.3749 30.614
37.2952 28.7156 34.9124
26.9325 26.8028 36.0027
42.1747 37.8945 46.0091
34.2629 31.0164 37.9804
31.8336 27.3045 41.3138
33.8134 27.9967 33.282
35.2725 33.8667 45.6277
37.7911 31.6299 40.6022
36.6965 29.6981 43.4417
38.4767 30.6225 41.0978
33.6422 23.8041 33.7785
42.4626 30.8691 40.9006
35.0952 29.3472 39.4468
34.2937 30.9506 40.8913
33.7089 22.7257 32.4471
27.9659 21.9804 31.5789
33.9548 32.7222 41.7048
27.2594 24.5348 37.515
35.7686 30.3431 39.8683
37.3864 30.0819 38.0662
40.3723 30.2497 41.9823
28.597 24.7409 30.8517
29.5203 22.1749 30.5192
37.269 28.8023 39.0562
29.1639 28.0501 39.8361
32.2222 33.8055 49.2557
32.6271 28.9331 43.3551
31.8213 28.6244 36.6162
29.2387 29.5784 44.728
36.4644 30.8013 42.7696
33.5431 34.103 43.8489
32.9663 32.2786 48.9371
36.6243 22.05 35.0088
38.4248 35.8357 47.8668
33.6588 36.5227 53.7955
35.5483 28.4854 38.4055
32.2721 29.286 47.1468
39.2187 31.5667 41.9718
32.3036 27.5673 36.2415
31.1631 25.1701 34.1116
28.1778 27.2384 42.0788
29.3628 24.2811 34.4103
22.8032 28.176 43.7862
24.2554 21.6069 32.5737
32.6561 26.9591 41.2377
35.0529 25.761 39.2146
31.1004 25.3458 40.1205
25.9799 26.4326 39.1203
31.6613 26.9157 37.3282
35.1035 32.65 51.5223
34.2514 27.419 37.3362
29.5876 35.6021 59.325
33.8673 37.9356 50.9615
29.1051 28.274 44.8871
27.7586 30.3808 46.9006
27.5232 26.6513 42.4766
40.3784 38.3458 57.986
32.1107 33.5193 46.8453
27.0596 37.9746 54.9755
27.9386 26.2511 46.8998
32.859 25.5512 39.8546
31.1579 35.5024 48.6735
31.7936 34.3782 59.5225
33.5779 34.2479 48.0832
29.4148 24.3875 40.0434
30.3109 30.2055 48.3283
27.629 29.4323 51.1302
33.2012 32.7541 46.7829
33.2551 29.1073 47.385
27.6091 25.2204 44.0251
27.3309 27.491 44.1104
25.3767 30.1074 42.8708
24.8973 24.8168 43.1316
25.3743 25.2735 42.4874
28.9558 26.398 42.6469
29.2194 25.6234 37.1284
31.4775 28.5461 40.7867
32.3382 41.7024 66.588
25.6639 30.2527 53.8167
24.3773 21.9074 36.8375
29.3429 29.8022 45.425
31.8412 34.1076 57.5355
26.0128 26.9777 45.3547
31.1298 29.2157 41.1213
26.0852 29.1805 54.5633
32.0048 36.5673 56.6071
30.2572 24.7685 37.656
22.9705 29.8013 53.8041
35.4116 30.7115 48.3715
28.22 22.5439 40.938
26.7522 32.3322 50.7886
25.7985 28.6466 51.485
30.5617 29.5273 49.4965
28.3166 29.3208 46.6991
25.2176 28.2047 43.9992
20.758 22.3768 46.0499
32.6424 25.6497 45.7606
31.5724 28.6899 45.9649
28.7261 31.6665 51.0648
20.9537 22.9917 44.1963
23.8573 27.6036 47.7312
27.676 30.8912 51.0499
23.9813 28.8494 47.4172
23.7708 26.4665 46.7559
17.7007 26.3789 42.8578
25.6849 28.7137 61.4896
25.5747 31.29 58.4132
27.752 24.1725 37.5856
24.0673 30.1177 51.7696
22.524 26.2193 47.1964
32.7815 35.6832 60.1077
32.1032 33.7508 53.919
20.6908 25.0601 48.5067
24.1427 28.3899 50.596
24.7081 25.1195 46.0426
29.3963 29.7501 53.7471
34.8372 30.9164 52.7354
25.8748 29.8044 58.6296
28.7156 31.4246 53.4111
27.0694 29.1528 53.0817
33.7929 29.9877 51.5594
23.2771 26.0197 41.2357
27.354 30.7816 54.9574
24.2844 32.0476 55.8826
21.1708 25.8832 51.7112
21.1262 20.9787 43.1332
29.0142 29.9486 48.4668
26.8256 27.0862 43.6848
22.5465 25.5301 48.201
25.1097 28.6715 56.1465
31.9646 33.7041 60.234
28.5435 34.2745 61.2213
22.7123 29.9123 57.1068
31.9666 30.5074 60.7891
25.8911 29.0577 54.8097
25.8739 28.5716 50.4999
29.8067 35.19 55.2891
25.3167 28.1367 53.4679
30.328 40.6449 76.2092
22.1957 23.5818 54.5586
28.4366 29.1829 51.2712
26.9775 31.8217 70.9564
24.5482 28.196 53.6971
22.2087 29.1692 50.9514
18.2612 24.6682 46.3576
25.965 25.8824 53.6887
27.4904 29.214 57.1005
27.393 24.4588 41.6809
21.4083 33.02 57.2542
20.9987 25.9627 55.2249
26.6938 22.9996 47.2366
24.5989 26.9679 54.622
24.3192 29.0367 47.5189
26.44 29.0043 58.8545
26.987 34.2882 65.2038
23.9809 29.1529 50.4501
21.8161 25.5795 51.5981
21.8854 21.651 42.2095
21.9205 30.6515 72.2784
26.6053 27.8192 46.0205
24.374 33.7025 65.1044
22.9352 25.7844 56.1471
30.0069 27.5627 49.5825
20.851 31.3541 59.9819
17.8524 23.8173 50.0178
22.1858 28.5525 55.3338
16.5857 29.6405 61.7071
26.6597 34.1208 56.5861
18.4766 31.0683 68.4437
19.8582 26.9924 59.4794
22.0927 24.4887 51.7713
25.9731 31.9525 61.1328
23.3272 27.7318 56.8364
21.1286 24.6488 50.0502
20.8112 25.2204 47.6673
22.9519 27.4426 58.8224
21.1356 29.4316 55.29
21.8602 27.5344 62.4634
26.0672 27.4752 59.7657
21.354 27.1158 53.905
25.931 39.9883 76.3497
22.6644 34.1143 79.7875
23.9265 27.9213 52.586
18.95 21.4555 51.3025
25.9026 34.2766 74.183
22.5931 29.3489 64.5918
23.9679 26.1555 53.8703
22.9348 22.7519 49.7093
26.6821 35.5911 60.4176
21.2823 23.7071 49.3719
20.3574 25.4132 62.5151
24.4776 29.0856 54.8821
20.5014 32.086 68.8824
26.5622 38.1237 85.2132
23.6387 29.3529 56.1632
21.4199 26.5382 54.0389
21.7152 30.0919 71.1012
23.2318 37.358 79.1578
27.2115 26.9368 63.1492
21.2593 36.3117 76.6733
17.8449 26.1339 59.6913
22.1932 28.6603 58.6738
25.5767 32.9633 63.562
29.3825 34.4843 71.7038
22.4312 23.2831 56.622
23.7351 34.1827 70.5683
22.2082 26.9953 63.9339
32.7098 39.5582 80.7714
23.5553 25.8451 62.8994
26.6891 34.7949 63.5658
26.0692 33.2114 71.5526
23.7752 32.1568 74.3914
18.8938 27.6906 56.0476
13.2269 20.2939 58.7136
27.4455 32.6911 68.9703
19.8643 28.1112 62.16
19.1306 27.274 54.2288
18.6052 31.1823 80.1387
27.9612 34.8549 68.8516
18.9995 24.9863 62.9652
20.3026 28.6089 62.5481
22.0567 34.0646 86.2082
27.1872 30.1833 57.1909
20.4162 31.7625 78.2125
21.2771 28.8451 69.1529
24.6396 36.7373 85.9866
18.5414 28.6418 67.0761
21.4493 34.8628 66.8433
23.6022 33.0221 76.8578
26.3889 34.0603 66.0324
17.9896 25.2576 64.8364
22.7604 29.0553 60.0287
25.9992 29.0742 74.9808
19.7726 31.1002 68.9198
20.0029 28.57 54.6041
17.2394 28.7872 72.3807
20.6271 33.8146 77.531
19.049 26.6917 62.155
19.0646 27.0001 68.2936
21.159 25.6291 56.105
19.0497 29.6574 77.082
20.3034 29.5737 64.9323
24.4094 35.0885 82.9969
21.7173 29.7594 69.3361
19.3816 24.8938 61.4941
24.8521 29.3361 62.0399
18.4 22.9429 52.5735
15.9213 33.9488 82.4155
27.0249 34.11 80.1505
24.762 31.6822 64.2311
19.5327 27.7645 67.6672
16.9343 26.0095 73.1998
25.9543 31.1525 62.134
18.645 29.935 69.5161
16.8589 27.9367 82.4904
27.2498 33.0848 74.7633
23.7159 27.0056 64.6164
18.8999 38.1379 88.5386
19.9669 25.1608 66.84
17.7487 34.8672 89.5437
21.5141 28.8335 66.4491
20.2636 27.6898 54.7749
15.83 21.0659 58.6116
17.5769 27.1395 74.189
21.7502 35.8014 85.7786
25.3035 37.2239 77.0924
16.5663 24.953 67.6992
18.6508 29.4651 72.0201
18.9563 29.0388 75.2438
22.1303 29.3644 78.4008
23.8233 33.7898 71.4594
21.6256 35.7248 85.5565
21.0717 33.081 83.7191
20.5236 32.6999 82.0407
20.0213 27.9534 67.7021
15.9542 26.3619 66.0395
17.8272 29.9749 71.303
17.31 27.3923 73.2931
21.6239 30.9663 73.6428
19.813 23.9747 48.1069
18.9551 23.0821 55.4863
21.8625 37.6564 87.3865
15.4172 24.2871 71.6225
23.626 28.342 79.5491
25.2201 39.2307 78.9816
17.9285 28.2127 69.6358
11.2318 22.8435 69.3075
19.7015 36.8881 93.7502
23.068 29.3453 63.9343
22.9784 28.475 63.207
19.1593 32.7335 87.6855
16.1663 23.9 65.2583
15.6603 29.3344 72.5435
19.6614 25.2478 64.977
19.7231 27.6052 77.2183
22.6258 25.7905 59.4472
15.2751 26.9809 59.3186
17.7029 29.1976 84.8881
18.0857 28.9626 88.5873
20.2011 26.2374 67.5136
17.6849 26.7651 55.8651
18.0131 30.4411 86.8989
17.6813 30.5406 74.3765
19.6517 28.6721 76.4138
18.9028 24.7581 69.2813
19.1179 37.5305 90.0985
16.8589 26.122 78.3717
25.7624 35.1378 77.5217
17.2663 36.2189 90.2023
19.072 28.7221 77.2293
22.0605 31.6033 100.79
21.1359 32.277 74.0566
17.2403 27.424 80.5482
20.7879 31.9585 72.9013
15.335 25.2616 73.8326
14.6755 25.7994 73.7234
15.23 28.7782 78.0748
17.1914 27.8577 78.4465
19.9665 28.8414 64.4127
17.0674 28.7424 84.253
20.6996 32.8798 75.1601
15.7711 34.0417 88.5591
16.7899 28.2376 89.8511
22.0302 25.5377 67.6952
16.8748 26.5974 53.7439
16.0567 26.4009 74.1864
14.8421 29.8767 80.4604
18.6365 29.6233 73.5946
14.5965 27.708 81.7356
19.5568 31.7392 91.7652
21.4378 23.9936 66.349
15.7283 25.3635 78.9902
17.6878 36.5952 87.8642
19.6664 30.3653 77.0152
20.6761 24.5656 65.5118
15.784 22.2384 70.3496
17.1895 28.1195 77.1492
18.8992 24.3069 61.4511
18.2228 30.2144 82.9185
17.2342 34.8334 77.7193
18.2273 31.2281 92.5702
26.1571 27.0325 75.2285
17.6482 33.2046 89.4833
21.1687 31.9464 82.4967
18.1292 39.11 107.018
20.3588 18.3016 60.5376
19.2594 22.3304 60.9586
15.8784 28.3595 82.1093
20.3597 27.3966 82.078
21.2944 30.8887 77.0055
20.0966 33.8636 85.0475
12.7312 23.6416 73.3982
15.9412 28.9154 80.9629
19.0273 29.8768 77.3412
18.5052 29.0471 71.1724
16.7295 25.2549 87.1878
16.7366 30.1932 91.4665
17.7118 30.9591 90.6584
21.0492 29.7746 76.0368
21.5223 34.3353 100.98
21.1551 33.5361 102.401
21.0513 36.9414 100.713
15.9086 27.9619 74.082
19.673 29.5019 75.593
17.6599 27.0251 78.9464
16.1389 26.6587 84.8908
15.3257 25.9585 68.1538
15.7025 28.0316 74.4165
21.5289 38.7344 104.802
16.3203 24.2034 62.4355
13.6 24.2287 75.0202
13.9532 18.9661 71.7147
18.7038 31.9012 95.4476
20.5301 27.348 73.9725
20.8072 25.476 57.522
11.5671 21.1752 80.833
18.2822 29.207 75.028
17.6306 31.5853 96.738
20.6088 32.3173 87.9671
16.3737 28.5943 77.8036
16.1351 31.8477 109.172
21.0156 30.7064 87.2083
18.0482 24.9264 76.5098
18.8684 27.8276 70.9601
15.5555 31.6727 96.8605
20.4228 30.1963 90.3967
18.0261 27.8566 79.4314
18.188 34.5753 100.306
16.0044 24.0659 64.2443
16.1211 25.3056 74.8683
17.7289 26.0222 83.1354
18.6731 25.2015 67.5596
16.111 25.8725 78.2389
16.5531 25.7148 78.9869
18.9906 33.1778 94.5345
16.672 22.3505 67.4638
17.4546 33.8321 100.027
22.4538 40.3003 112.896
18.9951 30.9547 91.1488
17.0623 25.226 68.7624
13.5028 23.062 69.4417
16.1263 31.0111 90.2329
14.1132 27.2638 86.3293
19.0556 33.8058 95.8735
14.0825 22.2443 88.6076
23.3342 37.8601 95.3758
16.5053 27.4046 85.6876
16.915 33.0996 97.1734
15.7989 28.7144 97.2109
19.7197 36.4836 93.1045
12.3601 31.6639 104.187
18.4942 34.3215 118.578
18.3993 36.8335 109.037
14.2821 20.7487 53.659
12.5201 29.6951 82.7157
15.5543 27.0718 87.9733
11.8859 25.9569 75.3654
15.6961 25.685 85.4957
16.4891 24.6437 61.7127
15.6548 23.273 76.1257
15.6766 24.4955 83.7375
16.9383 32.1045 107.67
18.6968 33.2962 98.7434
15.9967 37.8238 106.962
16.9768 29.1857 90.7501
18.3307 35.382 106.389
16.4525 28.0706 83.8211
12.7338 23.9922 81.7198
16.7191 34.9622 101.078
15.6958 21.6387 66.6524
10.8191 22.5945 70.5206
16.2264 34.0196 112.317
17.9463 26.5859 86.0578
15.5944 37.2095 114.194
16.4521 28.3801 65.9471
12.437 26.0475 88.7969
17.0938 26.5306 91.4945
16.5295 29.7305 84.2768
18.1421 29.4998 86.5429
14.8265 28.2507 101.848
17.4244 28.9477 75.5076
12.9379 25.0023 90.9038
18.6478 31.8112 106.892
19.0964 26.7391 80.2759
17.3471 29.0681 98.7333
18.5742 34.7204 93.9027
19.0756 28.4447 74.1044
19.3128 24.9874 83.1966
14.1055 28.3142 96.3905
18.737 26.3245 83.2332
13.7031 24.6653 89.4972
18.4295 23.1749 78.7705
18.1719 32.2892 95.7201
16.9658 26.1521 81.2504
15.4012 39.5373 107.093
14.8532 24.3373 82.7241
15.1457 24.0234 77.9603
14.976 21.6461 74.5382
14.5885 24.699 81.4462
11.9581 30.3927 100.598
14.2421 22.7801 75.8209
13.0023 29.9335 83.7123
16.5158 27.7824 93.6635
17.2823 35.3131 87.4614
15.1581 25.4335 98.9787
17.2841 22.5152 80.5699
15.9186 28.53 85.7706
16.6285 26.5451 96.5825
15.7002 24.408 83.7453
18.252 30.1654 94.4629
13.4213 26.9833 83.0354
13.9296 30.1484 84.9598
16.6488 25.5641 72.2494
13.9655 24.1538 76.4394
16.1026 26.8396 88.9319
13.8958 29.7025 94.9439
18.8102 31.4585 123.667
16.937 30.9458 92.4382
14.1425 30.6784 111.543
14.2034 33.016 91.1386
16.3211 25.6475 81.1393
13.0289 27.9092 113.133
14.5318 24.8406 70.7716
13.6281 25.8148 93.4976
13.8075 30.0428 83.0103
17.3858 34.9026 111.745
15.4186 33.9113 95.8665
15.5795 25.9407 106.364
19.9772 30.813 88.7622
13.4264 25.1243 74.089
14.0205 32.4861 108.545
16.613 25.8136 91.2502
15.937 27.699 99.0577
15.6081 30.833 104.405
12.8593 30.0118 85.4225
16.6521 24.5267 91.5264
14.7501 32.6949 96.771
13.8036 31.3045 119.524
17.579 28.4822 82.053
17.0064 29.7089 100.135
16.982 27.6673 105.375
16.398 27.3137 80.2962
10.7545 27.1507 93.5375
15.1225 23.2963 72.9451
15.0071 27.7546 112.163
14.6515 29.7145 92.1266
15.2132 21.2448 71.1895
14.6039 29.705 97.2565
13.4512 25.207 99.1537
18.0631 23.8662 72.0396
12.6288 19.761 77.3469
16.6508 23.933 89.5467
15.4291 33.6035 101.724
15.0146 30.2413 84.726
11.8044 26.7233 106.217
14.5557 25.9864 81.946
13.4443 32.2205 108.205
16.5065 23.9996 91.6832
14.9669 27.8662 78.058
12.6806 28.1019 103.562
13.76 31.2816 92.0915
10.9092 19.1935 86.9315
14.0362 30.0117 109.336
14.5517 28.8284 98.232
13.1936 28.2606 86.6793
15.0506 22.2626 69.4092
14.414 20.1331 84.8034
17.8741 30.9119 103.069
20.3113 31.8882 90.5196
13.9228 25.6347 101.647
15.0603 28.2243 90.8338
16.3095 31.9995 96.2338
13.4363 24.4985 85.2009
15.3731 30.5754 105.843
17.2896 34.6333 134.345
16.0611 29.3077 82.7682
15.2623 30.3282 99.1888
13.9374 26.1892 91.9701
16.2294 33.6482 113.077
14.9291 32.1851 110.008
17.0671 30.679 120.294
18.3553 33.3621 98.9639
12.5087 32.0581 115.92
14.0313 30.066 100.472
16.7689 26.688 92.852
13.5903 24.6581 94.9387
14.3675 28.0058 94.3104
12.8722 21.8808 81.0668
16.7579 28.3294 83.1301
13.184 30.2582 86.1779
11.9698 25.2282 84.8115
13.8083 25.1116 99.8901
16.2911 30.7711 104.259
15.9933 25.3595 91.4894
12.2914 26.1145 93.1166
13.0772 21.7727 80.8883
12.9718 20.8439 101.689
15.4106 29.8758 122.201
16.3395 33.3944 102.586
15.6863 27.5939 80.1046
14.3315 32.4222 101.641
15.4261 28.7184 108.135
13.7878 27.5212 85.7999
11.9562 24.387 96.1115
14.608 25.0277 91.9525
12.1558 21.6352 78.5138
9.95719 23.204 73.6569
9.67166 27.0697 97.3136
13.1098 27.6574 107.185
13.1034 30.0122 92.7762
13.8377 28.2245 113.4
15.574 27.6691 98.8002
12.6066 28.9794 90.834
14.1187 31.417 123.271
15.1165 27.3188 83.3531
12.2238 23.2031 106.238
14.9807 36.2618 110.052
12.7584 29.121 99.6887
16.7249 26.3876 114.222
17.5808 34.6 116.628
14.975 25.9055 77.1071
13.1358 29.989 89.2074
11.8303 21.7792 73.0596
11.6019 25.2579 90.0012
13.492 31.2649 119.916
13.6425 28.4985 110.314
12.7434 23.7633 93.747
16.0324 25.5261 78.5282
16.6096 24.3019 79.5352
14.5617 27.166 94.2757
14.4062 27.8487 120.617
17.1244 28.5215 91.9412
11.787 31.8923 111.902
15.4015 24.2832 84.4814
13.625 24.9879 95.7284
15.655 27.815 103.866
15.5335 27.8361 90.6531
12.2986 23.9072 120.79
16.9619 33.0379 97.2028
12.6429 30.0258 119.031
15.869 31.6034 115.59
13.7651 26.6832 89.0483
13.0958 25.5441 90.9543
10.8716 25.9713 93.6882
15.1147 22.3158 95.1542
14.8765 24.7952 88.6157
13.5042 29.9919 100.531
13.9316 20.8564 80.5793
8.24489 26.6923 109.711
14.6725 33.775 102.791
13.2147 27.3838 103.089
14.5139 30.744 98.4652
14.503 27.0386 115.955
14.7165 25.4424 106.551
13.5069 32.1042 111.554
16.7292 24.4846 85.8781
12.5957 25.8164 88.845
11.1904 17.6174 87.6161
11.364 23.8631 98.1456
14.687 25.0617 93.8843
16.2225 29.6145 98.6056
13.1071 29.0491 90.1847
12.487 22.4845 70.7642
9.68441 16.0947 72.7379
11.3326 27.5651 82.8881
12.2811 35.094 127.541
15.2278 22.9146 106.787
12.0038 26.1142 78.5016
8.30509 20.4956 85.8859
12.7268 27.6443 101.265
11.8186 19.8042 85.433
14.2872 26.9611 91.6243
13.1638 24.5673 86.3933
13.8172 30.8361 99.0176
15.1442 29.8753 112.468
11.4386 27.531 126.839
13.7075 34.3694 117.291
13.0266 24.5195 102.109
19.1264 30.8909 93.953
14.9918 25.6133 88.8991
11.553 26.9228 106.96
13.4407 30.706 115.747
14.1538 25.7606 109.983
17.5371 29.5354 96.5607
14.2334 24.0011 98.3686
16.0296 29.6642 94.2371
10.5398 23.8114 99.7634
12.2826 26.7184 112.368
13.6367 30.0353 94.7994
11.956 26.3524 96.2159
11.6377 24.9617 89.8267
11.3007 23.2701 92.996
11.7813 24.2298 108.336
15.4889 31.4134 95.0645
10.4557 28.1296 90.3791
10.952 30.7445 114.896
12.2222 25.352 93.3651
13.455 28.3846 96.5986
13.9546 28.9593 128.395
14.8186 28.5044 101.696
13.8385 22.3194 78.5217
11.441 30.2102 106.024
11.6464 23.5276 103.58
13.2656 22.2119 79.4186
9.95341 27.9052 110.101
13.6632 26.993 106.134
10.8857 25.1473 97.9377
12.2878 27.0533 113.013
15.969 27.9267 88.299
11.4242 29.6841 100.854
11.5687 23.7279 95.9252
11.877 26.9731 104.55
13.3739 25.6143 108.672
16.3398 28.1608 84.807
11.7218 31.0782 122.266
10.7033 24.3367 112.318
14.1602 37.0246 129.662
15.3827 25.3375 108.583
14.5058 26.2746 103.587
13.4085 27.2798 92.1071
10.7509 27.6706 95.6406
11.6358 24.7929 122.257
14.5898 31.0051 114.527
12.3452 32.5643 113.121
14.306 29.921 107.85
12.3629 24.1872 95.1054
13.761 24.2158 95.778
16.0459 27.4839 98.6743
12.2119 24.0033 93.844
10.9171 28.2336 109.936
13.3352 28.2567 117.867
19.7127 30.0897 105.628
10.8966 27.5683 92.4246
9.48962 22.193 97.0489
15.0713 25.505 108.525
13.6748 27.3055 92.1604
14.1023 20.8515 79.8795
10.2694 23.0838 111.297
13.6377 22.2705 76.4204
13.7084 25.7226 84.5055
11.9463 30.47 120.422
11.788 29.3257 79.604
12.3752 21.4998 108.282
10.694 25.6103 111.679
14.4382 27.3482 91.3641
10.5181 22.9954 97.2823
13.0076 30.9193 128.399
17.1565 30.1015 114.83
13.1428 25.9626 106.045
13.8454 27.1598 77.4671
13.1678 22.859 103.336
13.0984 28.4067 93.8615
10.4094 26.1028 94.2381
9.82564 23.8121 123.296
12.9733 29.4378 87.7205
11.6208 24.1787 107.332
11.5695 25.3144 111.35
15.7413 31.5599 88.5838
13.5862 23.7055 108.852
12.7264 33.3532 132.821
11.664 32.5788 121.295
14.8417 20.7989 105.652
16.07 29.5029 86.5957
13.6558 33.6855 129.004
12.7122 26.4615 99.7981
11.9575 23.879 94.6744
11.8235 24.2739 101.559
15.9222 27.3528 98.9989
9.6799 22.3851 89.5051
11.0812 24.0119 95.1229
13.1017 28.8368 142.466
13.8665 33.8024 109.885
12.7289 26.4016 115.846
13.7366 31.9853 119.427
14.559 32.9125 109.137
12.9598 24.7136 105.339
11.8936 23.3615 121.84
15.2052 34.8406 135.226
14.2665 38.1029 122.236
14.3469 30.3652 95.906
10.5259 22.3697 105.277
11.2003 24.7793 97.732
11.5459 25.0521 114.092
15.504 25.3758 78.1199
11.6797 28.8024 110.507
12.7763 30.806 139.374
12.1095 23.9972 81.8782
14.8123 21.3278 115.202
15.7319 28.8999 74.7781
10.6634 23.473 111.041
15.0021 22.7059 83.0016
10.6301 31.8021 99.7778
12.9263 22.1125 108.17
12.5288 29.5199 125.98
12.5271 33.239 113.316
12.7513 24.8069 101.149
14.6856 32.2321 121.528
12.7281 27.0227 114.542
12.4855 35.094 107.486
13.1386 22.9676 99.8138
14.8326 24.4432 125.31
14.1503 34.386 94.2351
12.4486 19.9571 98.0323
13.4574 33.0802 122.815
12.5358 28.0875 99.9029
12.19 21.0286 94.7478
13.1793 30.5593 106.037
12.79 24.6581 92.6918
10.7951 29.0465 107.731
9.90172 20.9903 101.172
12.2776 27.445 107.954
13.6355 30.8795 120.657
12.2877 33.6253 133.765
14.5119 25.364 110.066
14.8155 29.8672 111.864
16.3568 27.6817 111.176
11.1051 29.0092 110.185
13.1855 28.7376 123.213
13.4236 28.2589 116.632
14.2614 30.96 94.4798
10.1838 24.9823 115.667
10.6795 29.7931 128.086
13.2616 31.2873 100.04
9.91456 25.849 91.2475
13.945 31.2889 120.01
11.0166 21.7663 123.42
13.1552 22.1009 96.7874
12.3186 26.7697 111.5
12.2306 29.7483 115.161
13.8838 27.8393 104.43
9.22093 27.2024 116.101
12.088 28.7498 83.8244
10.7105 28.7118 104.531
11.2405 23.8636 92.9724
9.53854 29.5262 128.402
11.5105 25.2564 123.182
15.4907 28.8932 111.658
12.6349 30.2019 110.714
12.0791 26.4056 111.781
13.5745 23.166 68.6279
9.69471 28.6534 108.383
15.6895 23.9085 106.411
9.59652 31.1823 142.689
12.2479 30.8824 92.4715
11.0301 22.1009 86.1877
11.0474 29.4043 91.2573
10.077 21.6586 102.966
10.9833 26.7683 126.964
15.8012 27.5477 110.562
14.0091 28.5455 98.0998
10.9729 27.3576 91.7441
11.3364 24.4433 75.6363
9.05752 24.4695 116.914
13.5413 30.7886 138.842
13.897 26.5681 96.6041
12.0798 29.2331 92.7692
11.3663 18.6437 91.2412
10.338 25.3323 112.774
12.332 29.5657 105.763
11.4322 36.7711 123.332
12.7092 30.3712 141.527
14.1309 24.0119 99.7115
13.1932 27.222 125.363
14.1536 28.417 102.18
12.1155 30.9912 99.2336
11.4792 30.4307 134.228
16.9516 36.1119 137.591
15.4696 32.0447 119.599
12.3623 25.3312 89.7567
9.42968 22.1015 111.135
11.9387 30.1287 114.332
12.0274 27.2285 92.4034
11.8842 22.1315 103.162
12.4718 20.4474 93.6368
8.31871 26.2702 93.7066
13.0392 26.904 102.541
13.296 28.0394 129.245
13.4914 32.6866 133.466
14.0936 31.7827 108.716
11.7268 25.2495 103.428
12.3094 24.2604 99.1561
10.5859 32.8314 143.11
15.3453 25.1656 100.493
10.837 28.5293 103.821
9.69925 24.115 108.606
11.8173 30.4877 112.563
12.623 31.8794 117.741
12.4894 23.3724 95.3278
9.56767 25.1496 116.402
13.4268 27.3457 109.213
13.8482 25.594 90.8027
9.70576 26.9924 107.879
10.9818 22.2479 91.8223
10.4357 24.5307 101.482
11.0742 22.1543 111.131
11.9096 31.1928 109.35
12.601 23.7346 97.1159
9.78341 30.5823 117.106
13.5939 25.0943 100.579
11.3096 25.5161 117.927
13.4712 22.8616 73.2266
9.28395 20.7189 72.5121
8.55064 25.466 115.849
13.2679 26.7916 107.173
13.7411 27.8821 102.211
11.3407 30.4375 110.288
10.7758 24.7319 99.0184
11.7843 20.1652 102.724
11.287 34.4845 113.663
13.88 22.7238 96.9637
11.8507 21.5417 87.3244
9.23878 22.798 87.923
9.5624 22.5373 103.188
14.0901 21.1682 98.7302
13.0975 32.0602 107.462
10.5283 25.1168 91.8656
9.83638 27.8 90.6656
12.4449 24.6719 101.757
13.1396 23.3228 94.886
12.3314 24.9012 138.505
13.4724 33.6234 113.586
12.4766 24.4857 110.926
12.618 30.11 110.706
16.2107 25.7985 104.719
11.9931 26.2559 89.8083
10.6523 0 0