# pn-170911/CsIIF-65-WTZR-1280-1959.psd
# Power spectrum* (dif=0,1,2) (really just |FT|^2)
# NOTE: only the first half! (symmetric)
# weeks: 1280-1959
# 7 clock-days, 12 excluded
# PSD: 1441
4988.1 0.683825 0.0952625
445564 6.49803 0.0453042
1.16728e+06 22.5992 0.020133
1.6544e+06 79.7868 0.0422137
298841 15.227 0.0753547
234468 23.5375 0.0504758
219242 36.9928 0.0238398
132537 31.0466 0.0324124
75192.8 25.5129 0.0955622
71265.6 32.8341 0.0928787
95007.7 43.5201 0.0177137
82541 37.2259 0.0278729
34350.6 21.0773 0.0576928
54117.6 40.8629 0.0739978
19085.6 19.6038 0.0150179
26403.7 27.2091 0.0434136
41353.1 43.3372 0.198179
17417.7 24.7737 0.0410676
22037.4 31.6282 0.101812
13459.8 16.0114 0.0485423
27704.9 39.7304 0.10425
19509.3 37.8419 0.156361
12535.4 22.3495 0.0747041
7821.51 20.2231 0.08628
14817.7 48.5838 0.179921
14394.1 35.8588 0.199589
10765.5 29.2088 0.213272
9659.17 34.7593 0.127614
7635.11 28.9908 0.0970775
9813.88 38.1117 0.21641
4752.73 18.1436 0.0871368
5566.65 18.5282 0.0975877
10269.8 41.6074 0.331736
3493.91 16.5126 0.157695
3207.55 19.5621 0.222551
1726.69 14.2525 0.109986
4991.53 34.9401 0.239629
5680.89 34.6481 0.279243
5930.04 40.945 0.315142
7714.86 59.6772 0.550879
2288.63 14.0086 0.192403
4700.02 33.7541 0.325428
5668.13 45.0204 0.576224
3918.88 34.6504 0.480221
1957.26 15.2448 0.150255
2834.6 22.1047 0.198818
2505.56 21.011 0.26417
3328.47 34.0555 0.477227
3700.9 28.1916 0.344688
4488.64 52.4352 0.822621
4236.78 40.3355 0.616677
3133.62 31.9403 0.345862
5355.3 73.3356 1.04608
2302.05 30.7632 0.411758
1516.74 22.8973 0.581617
1403.56 15.4068 0.248372
1999.05 27.5674 0.465915
1251.09 16.8248 0.294497
1649.47 23.5284 0.415516
2507.62 31.8042 0.656662
1571.78 23.3076 0.406949
1441.9 29.422 0.606268
2733.34 46.0607 0.831087
1049.54 15.7165 0.419838
845.17 19.0924 0.458898
803.517 19.9728 0.348651
726.016 17.6781 0.390557
1709.34 27.9162 0.691759
1636.69 31.8822 0.783454
1296.33 27.5633 0.673888
1003.05 25.0512 0.776538
1189.4 28.8771 0.463137
1088.93 34.1858 0.858681
1401.29 24.7653 0.833399
1805.9 41.6447 0.950849
1558.22 40.5458 1.32143
1689.1 35.9237 1.01702
604.81 15.8939 0.45659
871.025 21.4379 1.013
933.238 20.0627 0.816808
508.78 18.4478 0.604918
1421.52 38.4596 1.19666
663.91 20.2686 0.704511
1382.85 39.8634 1.19554
903.985 21.6134 0.64758
779.791 28.5119 0.989364
650.968 21.8072 0.786088
1238.19 46.3176 1.69998
793.688 33.1607 1.2593
900.921 34.756 1.46529
1241.9 37.3657 1.18787
1016.03 35.2178 1.62912
515.619 13.7781 0.670202
523.066 18.2036 0.908508
590.229 17.0261 0.999672
844.878 25.968 1.18549
572.095 21.7406 0.679312
503.51 16.7975 1.06869
173.763 6.21701 0.233009
658.113 22.327 0.902373
848.463 38.892 1.89673
761.045 28.2587 1.49185
800.885 31.75 1.79629
562.104 26.9635 1.41144
379.472 18.3364 1.1841
860.377 37.8385 2.01945
593.125 29.5312 1.54904
781.527 36.7012 2.17759
610.643 25.3402 1.39261
552.278 28.8532 1.39886
776.835 38.3406 2.6085
253.048 17.0249 1.22367
413.924 26.2753 1.50285
678.449 38.7648 2.15729
415.822 20.489 1.28503
393.005 20.1623 1.09341
571.275 39.8419 2.89185
410.832 24.9363 1.69071
425.267 28.2095 1.80586
270.812 25.3178 1.8679
723.851 37.3661 2.46608
395.99 26.452 1.92511
430.892 29.2932 2.04722
430.6 25.8339 1.78956
465.804 31.4075 2.48709
392.726 30.3143 2.35934
611.501 43.9079 4.11002
387.13 17.9227 1.27324
685.468 43.0458 3.29093
466.057 33.6553 2.96878
172.518 16.8622 1.44204
385.796 23.9061 1.7344
418.611 30.7618 2.32256
305.565 27.96 2.15559
369.819 23.4495 2.23805
266.415 16.0719 1.66922
197.727 22.0025 2.11212
314.269 24.5784 2.43919
412.636 36.409 3.22516
243.411 19.5564 1.71743
324.721 29.7917 2.46847
305.545 24.1284 2.72812
234.119 25.305 1.92104
481.106 48.9347 4.02723
319.421 31.8386 3.23306
454.112 36.5389 3.63288
301.804 23.7761 2.70623
569.475 56.4525 5.30055
329.183 33.5552 3.41672
357.146 35.5122 3.72052
319.223 32.1471 2.98358
285.093 28.2951 3.17066
300.686 29.283 3.06668
356.846 31.1442 3.31632
604.078 63.9211 6.00066
192.642 21.021 2.54738
272.158 33.9864 4.13508
376.009 38.5605 4.21092
234.745 18.9751 1.82839
195.256 17.9658 2.09211
581.784 65.7882 7.92607
297.12 37.064 4.6252
154.093 17.2789 2.04539
210.989 25.8353 3.78621
126.617 15.6092 2.20845
292.301 30.0473 3.58588
228.115 32.5092 4.6406
136.172 20.6884 2.94577
196.869 31.4779 3.98566
226.468 22.4692 3.03837
161.761 24.4426 4.1128
296.799 34.1425 3.94092
259.656 32.359 4.52219
279.072 40.0035 5.19603
193.069 29.5572 4.26342
218.011 26.9984 3.64511
150.824 24.5055 3.63741
217.718 28.9509 4.38547
231.802 32.7313 4.5365
141.159 27.067 4.53073
182.633 23.802 3.89374
117.472 20.2177 2.9859
114.507 11.2557 1.46421
106.655 19.1173 3.32792
85.0508 19.2624 3.53414
75.3288 10.4537 2.32991
295.527 36.956 5.51179
400.091 62.1258 9.84512
186.89 31.1855 4.97051
162.628 24.0793 3.6895
217.069 45.498 8.41341
348.294 49.8156 8.21655
98.1841 13.7162 2.79083
194.474 30.5475 4.57984
235.316 31.872 5.72062
155.54 23.6834 4.05466
244.035 35.999 6.28897
160.612 28.7253 5.28187
170.618 26.91 5.85032
312.26 43.8887 7.157
114.499 24.3775 4.40209
76.4404 15.8978 2.84967
182.921 29.6312 5.49732
242.16 46.6534 8.67224
131.496 22.1859 4.10611
136.053 34.1469 6.85181
167.955 39.8737 8.21551
125.918 28.7228 5.55662
121.279 20.4124 4.1564
115.446 21.4643 4.07544
156.375 28.2534 5.65875
146.315 31.2892 6.69334
136.531 19.9068 3.02164
111.588 24.1342 5.1624
89.4891 18.5301 4.39094
203.847 55.7574 11.2198
137.454 24.9092 5.39064
41.9071 13.0168 3.80775
190.982 32.2475 6.59422
230.041 45.12 10.1568
102.969 15.9855 3.58226
171.734 31.3507 6.0827
159.869 39.392 8.29167
80.6809 23.9842 6.64342
163.845 22.6275 4.81139
111.199 22.0674 5.24252
64.1011 14.7674 3.36547
220.462 48.3882 11.137
110.061 31.7659 7.6758
47.5321 8.84838 2.57951
147.036 31.8659 8.3089
115.603 28.063 7.93352
206.005 46.3246 9.49398
159.56 40.4676 10.5611
85.675 21.5669 5.17008
83.3714 21.5601 6.13447
50.6914 17.1189 5.12056
203.738 43.0593 12.5631
104.594 27.1465 7.81807
90.2952 24.761 6.55919
126.381 40.3723 11.9146
100.654 28.5203 8.12911
109.243 19.0659 5.56832
122.281 24.3815 6.09824
92.6943 21.3231 5.69166
167.29 42.6296 9.96794
190.786 53.6074 15.9464
157.199 51.7653 12.4681
118.813 29.3182 9.11361
98.1802 29.1187 8.62382
106.729 31.3957 10.3591
95.6284 20.8171 4.97585
134.747 37.6794 10.6106
100.995 23.3027 6.1345
59.0887 14.2826 5.13337
57.5536 12.8807 3.96847
166.592 41.0544 11.8447
66.6778 22.5488 7.87859
76.2875 14.6258 4.22908
84.4617 23.7782 7.81974
93.7814 29.4202 9.27038
72.9616 19.0146 6.60948
93.4748 29.2836 10.2311
184.325 53.2496 16.8797
72.1686 22.9575 7.10711
81.7284 25.5543 8.73416
121.449 31.9575 9.69259
101.585 32.0181 9.90377
63.9298 13.0923 3.96466
136.926 47.2584 16.9558
157.955 38.4278 10.359
76.2565 28.1892 10.3778
48.8663 14.0703 5.55314
185.346 64.5939 22.9478
112.733 26.7275 7.587
73.4651 25.1571 9.00207
73.1195 21.7259 8.12452
57.4517 16.2336 5.19869
57.2753 14.6014 6.32163
67.7649 19.679 7.75809
74.1176 31.4554 11.9237
80.0201 21.2799 6.71235
46.8642 11.8702 5.55715
64.2767 20.4493 8.28256
94.3923 41.1149 14.1466
152.092 54.8588 23.1474
110.415 41.3677 14.3009
118.48 50.3076 19.059
37.7936 11.9597 4.52969
56.1757 18.2745 7.32567
58.9592 22.4938 8.08169
63.5047 30.0343 12.5357
106.321 36.9737 12.7092
40.9013 15.8962 8.09745
40.4716 11.0882 4.77727
123.201 41.4 17.7945
136.957 53.1152 20.7269
58.4572 22.381 10.1196
102.392 39.4995 14.4609
65.5494 29.1351 10.6955
55.1033 17.4876 7.96335
47.6674 16.871 7.84537
108.562 35.4845 15.1829
44.46 13.9374 5.19296
42.864 24.22 10.573
68.0937 30.0915 13.3216
66.7782 33.7235 15.392
78.8093 30.9424 12.5414
42.2739 23.262 9.77993
28.7652 14.3539 7.41141
85.9417 25.463 9.98532
54.526 14.3454 6.71872
76.611 28.5054 11.7025
40.773 21.8074 11.9635
96.8349 36.0727 15.2865
55.1658 24.7582 10.8664
43.7615 24.5611 12.2415
56.5305 23.8683 10.5327
66.5456 27.0892 12.6887
97.154 44.626 18.8554
29.7637 20.7467 11.32
26.6812 12.3376 6.71133
74.3106 31.8055 17.2151
91.1151 38.1855 15.9279
33.7911 18.8926 12.4192
128.249 52.1398 21.5658
44.7678 17.3815 7.90675
58.1101 25.3189 12.8114
34.412 17.8426 9.40012
80.8336 29.6893 12.5518
45.8495 19.9984 11.0624
50.0193 16.7568 7.89105
28.8973 13.7851 7.66935
27.1002 11.6728 6.61388
54.1096 31.9315 14.9812
63.4166 31.7592 16.6068
59.8618 31.0435 16.2503
55.7533 24.2081 11.3846
52.2292 25.2503 16.1198
91.0979 48.633 23.0899
49.1566 22.2906 11.8784
47.9811 30.954 17.3982
40.4437 15.0427 7.28047
22.0402 17.4648 10.7953
79.7837 37.5378 18.4363
72.5748 33.4957 18.8949
56.4237 22.9787 13.863
20.4803 8.49918 5.70373
81.1263 37.1579 19.4869
33.9607 24.7629 13.2247
59.216 35.1311 18.0667
75.311 42.1523 24.6932
57.0016 37.1267 27.4984
136.747 53.5692 21.7709
57.509 36.0043 23.9034
44.4849 23.7129 17.6777
36.5984 19.2574 9.38284
48.1928 26.0836 13.0506
42.0418 26.0341 15.5001
38.7721 18.5273 12.7312
41.2559 17.3278 10.587
49.6266 21.8319 11.0564
56.0503 22.2623 11.6603
47.3092 29.0562 18.3686
36.9119 17.5399 10.918
63.1263 34.9219 21.0136
65.5603 47.9726 30.3213
49.7497 21.0241 10.4643
42.5388 18.922 10.3388
49.1037 38.3405 24.4225
65.209 28.0538 14.5994
55.2414 29.7036 17.7422
51.2164 33.5231 21.341
39.0774 31.3105 23.108
46.1698 18.9669 11.1832
57.8743 30.2932 21.0337
87.1252 47.2811 28.3064
53.719 23.3125 12.4715
33.2259 22.7612 16.7539
61.9252 34.4371 22.8141
37.6559 23.3034 14.2374
46.7712 29.7519 19.3759
37.4429 20.7523 16.5917
38.2377 17.1273 10.5985
56.9591 32.8166 18.3981
39.9245 28.3554 23.1884
76.1506 35.365 19.6432
35.5651 27.1183 25.1577
53.6377 28.5663 19.8205
77.5819 49.7752 30.1025
46.9928 17.7238 9.00902
35.398 28.2821 20.1363
20.3039 19.1911 14.7021
53.2166 36.265 28.309
52.545 30.775 20.3698
25.672 15.9824 9.251
30.3672 20.6383 12.6898
32.4588 26.129 18.62
25.7879 21.0807 16.7698
32.6546 18.0386 12.5387
52.0865 35.9625 25.1182
47.0916 25.5681 19.1609
33.6942 21.0239 13.9936
39.7192 24.9766 18.473
30.0867 19.537 12.438
41.5419 35.9667 31.037
68.5109 33.4095 25.2445
59.4825 42.5197 28.3727
42.3242 27.412 20.172
14.691 8.58791 7.40662
46.2478 26.8899 16.2794
28.8823 18.0329 14.8204
43.0584 32.7845 24.1559
23.8964 23.764 17.0508
38.6722 30.2848 23.5003
42.9278 29.7044 26.7719
30.7649 21.244 13.1399
36.9149 30.4651 27.548
65.8689 41.1959 27.7354
63.7584 38.4725 29.6248
78.711 54.527 38.2357
43.033 29.4115 24.2875
26.3586 14.4798 12.003
79.6349 43.3759 30.9375
22.7841 15.0593 13.6712
64.3559 54.8207 40.6972
31.2218 23.5715 23.5142
34.8137 19.8434 14.0082
35.8224 28.5519 23.9098
12.912 18.8227 20.8824
42.4964 19.5989 11.692
33.0878 29.0794 26.1866
56.5611 37.6083 31.2688
38.1609 24.4876 14.8212
31.8778 25.433 22.597
42.9027 24.4779 20.9035
41.9092 30.958 29.3091
54.4895 38.6033 26.1007
24.5191 24.0534 20.5588
21.0824 16.5468 16.2021
41.3883 26.3097 23.7154
40.8478 27.8174 21.8915
57.3648 43.9952 36.9698
14.5425 12.6761 15.3909
32.8699 30.5482 21.358
26.8007 18.4371 20.6791
21.5286 23.921 24.76
63.9249 29.6804 19.0503
28.8969 17.4351 14.1276
35.4431 39.1172 38.6617
27.8514 16.9411 11.8573
26.047 22.0778 23.4406
50.3773 41.9171 32.0834
28.9599 30.5245 25.5747
33.3383 29.5378 30.1304
26.4768 15.1914 14.4133
53.3207 36.8294 28.3364
22.7478 23.9455 25.9767
19.524 12.0579 8.49013
24.5921 21.0707 19.1271
15.4196 18.292 19.4924
16.2108 11.3101 10.6441
12.6534 13.7621 17.2609
21.5537 11.7252 7.4624
31.8512 35.7264 32.787
23.4014 17.3887 18.2572
26.2672 17.3908 9.24663
40.3002 48.1986 45.4624
38.5061 26.4226 28.0704
30.7966 36.8678 36.5811
23.8248 24.9891 29.8362
64.2062 51.6641 46.7414
26.9999 21.1206 21.7301
47.1716 38.8317 34.8698
22.0598 24.411 28.7354
37.8392 21.2125 14.6656
13.061 14.919 14.4299
16.738 17.2934 26.5591
42.6008 35.3803 28.4102
27.7041 18.3976 13.4326
12.9351 19.6102 21.2102
31.8371 33.9619 35.5259
37.5938 29.2209 31.0466
47.7048 35.4618 33.2313
31.8747 32.6702 32.387
22.4708 13.6653 19.2376
79.3104 56.614 45.6656
19.5517 18.0556 20.1662
19.3986 15.6188 21.3596
46.4471 34.8252 31.1422
33.1405 24.3489 24.1475
44.5303 41.5698 41.3918
34.0774 33.3134 44.6418
59.5206 47.0218 32.4275
52.9218 53.8708 54.0394
14.7053 13.3482 16.3609
11.4635 20.0633 28.2872
20.486 24.2693 27.131
15.8462 19.1524 25.0397
29.9208 18.605 14.0837
13.3964 14.6662 19.5489
36.2322 37.3207 40.4162
46.4299 34.8245 34.9189
35.5228 33.108 38.0077
48.4608 61.1432 78.6272
44.5133 29.8886 28.5347
41.4727 52.0606 62.1562
30.475 28.6034 28.2886
25.4101 18.5317 19.4425
29.7315 32.7476 34.2311
22.9853 25.1332 27.0293
29.3382 35.9784 33.9443
17.3926 29.8187 43.1805
27.3842 22.4577 24.76
50.3791 38.5852 38.1122
24.2769 17.2377 21.7983
9.30874 17.4644 23.7016
15.8386 14.929 19.2607
49.1358 56.4868 70.8972
30.0076 17.0685 23.3395
31.4551 33.8217 31.9614
11.4114 10.5026 14.5737
20.4427 21.077 29.3034
40.7541 53.4837 50.7224
35.6928 27.0081 25.0138
14.0959 33.4287 47.4081
32.1367 20.6292 18.7122
18.504 10.0113 9.55889
31.4986 36.6869 41.7274
29.4229 41.6748 65.8208
32.1688 20.5246 19.157
21.6721 32.6797 33.8647
36.5891 29.6435 29.1479
19.3345 29.9576 42.9912
31.2305 33.1478 35.1454
29.8421 29.8043 41.8855
28.7531 28.3669 28.2868
18.5219 20.8151 25.0383
20.1638 28.5531 41.7332
14.9338 22.3008 32.271
16.4855 23.8895 42.9996
27.1644 36.0278 56.1574
46.5635 41.1927 43.0337
11.1217 8.51751 11.5075
22.8367 27.5514 34.2758
39.239 45.5118 43.704
15.5019 35.0881 57.4769
28.4259 22.7097 33.4674
47.9798 52.6334 49.1859
14.433 15.2835 20.1118
14.9599 22.5846 33.4162
11.7269 13.823 14.7041
6.27181 11.9272 18.3414
17.3089 29.7231 44.8389
28.6653 29.7293 37.9501
34.5533 49.0507 53.8511
23.9063 26.0819 41.6168
42.7123 42.261 50.4236
44.4293 43.1135 47.6898
23.5708 30.14 40.0632
19.6833 25.6676 29.1051
11.3416 16.4328 27.7208
14.8979 10.8514 13.3073
13.3099 23.0023 33.0951
29.4859 42.2841 55.0602
27.7199 28.6645 45.6694
22.1782 21.6681 18.2791
13.2149 23.5452 38.0941
22.2861 21.7817 27.1362
24.8268 28.1314 39.7911
27.22 36.1497 44.296
19.9047 15.5891 22.2048
16.117 20.3748 34.6877
27.7804 30.7654 37.6841
24.3078 36.6224 55.8134
31.4412 31.9143 40.7709
29.3819 29.2906 33.6743
13.4978 16.6211 24.1449
26.4438 30.4325 37.402
23.9516 30.3339 31.4167
26.5955 47.1366 78.8045
33.4616 46.9191 54.6038
17.0224 32.857 55.8006
15.5753 16.9222 35.7093
29.2416 41.1053 54.5325
10.706 19.4871 41.7047
27.9159 24.8011 30.8677
14.4294 11.5254 25.0751
24.4674 25.8569 28.6241
30.5516 61.3768 82.0856
35.9594 41.7679 61.634
37.0254 39.2358 43.2495
12.374 15.2825 30.4386
13.6944 21.3603 29.2593
28.6962 39.2922 58.5943
14.139 10.7658 16.1698
28.7813 39.0518 51.3421
12.8745 20.5963 32.8977
14.6196 14.5393 17.2116
10.6209 23.814 47.8817
21.6895 30.571 33.629
11.5827 24.4071 49.5502
25.8112 22.146 33.7968
24.2602 24.9608 32.2068
16.3238 27.0644 56.4262
42.5676 58.0358 68.7271
18.0127 21.2808 40.7129
40.2536 37.9181 43.0334
18.1074 35.6756 54.0503
13.8172 12.1493 21.7352
41.5946 61.7562 94.76
21.4829 28.5685 44.5157
15.0806 18.8636 33.8052
15.6379 20.2817 21.422
10.7009 24.5617 61.5502
28.8811 26.799 39.222
32.6653 34.9512 47.9016
18.0889 15.6175 14.8576
24.0471 27.7445 34.6119
6.69819 8.258 22.1952
26.2384 45.253 69.7464
18.2892 20.903 26.6439
18.1121 16.3765 16.4746
21.8906 25.9062 39.2676
14.1748 31.8092 63.7903
14.8687 19.3705 49.4394
26.2691 36.382 56.6859
30.1315 40.9136 46.3129
25.4337 39.8906 58.8536
27.8531 34.1936 49.8655
21.0568 37.1476 67.5596
18.6744 28.3064 47.8861
19.1504 18.4514 27.2437
9.73675 10.2925 20.0823
35.9713 59.062 94.2374
14.2314 19.1182 45.4851
12.0641 15.572 28.6408
23.7902 34.657 65.3374
23.5946 35.6611 58.6572
18.685 24.9372 44.8621
23.927 28.1962 39.8049
12.9389 17.146 25.0544
16.1683 24.7744 53.7963
21.7788 33.787 39.728
21.2074 32.7024 44.8392
12.1153 12.7319 26.3259
7.25012 12.1158 31.8904
23.3901 31.0355 35.4048
20.645 26.3451 41.2031
7.59452 15.6441 37.9235
19.7514 31.7909 55.013
16.026 16.043 31.1154
28.5047 30.054 46.6529
37.9556 46.0394 63.7088
16.6478 26.5718 64.5275
14.3537 22.0914 29.3458
15.8795 12.6306 24.1407
25.5553 35.5716 62.352
17.328 27.7666 44.8769
27.6826 47.6667 69.1026
14.6102 20.3264 43.0615
16.4425 23.3137 35.3137
9.23117 22.045 42.1059
18.3154 32.0641 60.3398
11.9345 18.1239 41.5837
20.9305 29.8769 48.6401
24.9435 37.2056 47.4329
13.0881 20.5293 39.0668
24.1995 42.1444 54.6632
17.6781 32.6515 74.1498
13.8285 16.9893 41.4971
27.2892 25.0465 27.8134
19.1071 40.2083 85.9847
11.2634 16.7334 42.2379
22.9996 28.9483 40.2592
11.3397 19.4309 28.4107
22.3203 31.031 44.7701
5.34527 22.4604 59.7654
23.6894 28.0131 51.1776
23.378 47.0311 94.2676
36.9897 44.2536 65.1751
15.6921 20.5889 54.2925
27.7665 33.0993 42.8007
12.6752 32.8986 50.143
6.34464 17.4058 41.1652
12.4929 14.3394 30.8093
11.2555 14.5665 24.1455
7.74672 16.2174 37.7794
18.1968 36.4732 56.5455
11.7153 22.897 51.3309
18.5809 37.8295 70.9906
20.4022 22.1278 27.7072
6.86301 23.04 48.5107
13.7787 17.7082 34.8534
25.5935 53.874 109.401
23.14 30.1054 53.0663
9.26961 20.2883 44.015
11.5079 23.6264 50.4553
24.2952 34.2961 62.8268
15.0842 20.6702 42.7487
19.1992 22.5967 40.1737
17.6736 35.3233 58.0392
20.4688 28.4983 53.6661
24.4752 48.4049 86.4893
22.905 36.4666 62.3694
12.1092 21.0957 37.9
14.241 37.1104 87.6099
19.4394 43.6197 84.5694
21.0733 24.121 46.4817
11.7333 28.2423 67.1487
30.3143 35.3734 49.6583
13.9143 35.3345 60.6175
7.63781 20.4497 46.3223
11.6251 16.5474 33.4925
15.7882 19.8236 38.4349
16.6706 42.6203 98.749
22.0599 32.9563 64.0138
14.6075 12.4682 15.3537
7.67008 15.3704 35.6877
8.53091 23.3966 71.854
16.7909 9.81493 15.6715
14.581 19.7136 28.5003
10.5289 15.051 39.7356
7.50659 21.6893 42.9384
14.5409 16.6186 38.2341
13.1055 15.9188 36.7516
13.5915 23.1309 37.6293
17.387 23.3421 42.3916
21.5498 44.9853 90.2218
18.9197 31.4692 45.3554
13.8136 26.8641 45.5117
13.0252 25.3318 53.297
9.10847 22.9825 76.9537
23.4309 48.296 76.6089
20.2351 49.2307 139.401
21.8561 49.9115 100.023
21.6075 25.5409 42.1367
11.3371 16.5218 16.9363
9.74888 25.9894 61.3642
18.9448 31.3962 52.499
9.50821 17.6137 51.9039
17.4875 26.093 44.0011
17.3962 28.4597 54.216
16.6376 35.6454 61.8765
11.989 25.4293 54.0807
12.6739 29.8165 52.8887
6.99965 22.8531 77.5255
15.6354 30.1681 70.6614
19.2709 23.7754 35.0264
13.1962 28.8754 55.6948
11.8 23.1917 43.9966
7.90022 21.4988 85.6072
23.8187 33.2684 43.2516
12.0842 29.9976 80.2289
15.9717 23.5423 45.7765
17.0911 38.4935 79.2802
16.9168 31.2896 44.25
10.1008 20.2212 50.1915
12.641 29.0423 66.1242
10.4887 25.5909 60.1963
17.6914 15.3289 36.4701
15.3556 32.7907 70.8126
15.3009 30.434 63.0591
12.3732 23.2709 67.5823
22.1968 34.0561 66.3006
18.0319 30.4898 80.9073
20.0874 48.9154 103.944
25.9581 43.4255 94.062
16.8473 29.8763 54.2243
18.083 38.4347 74.2843
9.3552 17.8305 60.5371
9.53671 20.1219 49.7212
21.7106 37.9785 78.0872
13.0094 22.2804 63.9228
12.6261 19.5782 42.1046
9.47838 18.8153 50.0513
15.4456 43.6161 96.5182
18.6574 20.9742 44.4775
15.2728 38.709 64.7023
16.6374 46.9145 105.158
11.7339 14.4106 46.9416
14.6075 15.1583 26.913
9.97937 19.6901 48.1603
8.22159 26.187 60.5254
6.50139 22.6971 62.5245
18.1952 18.5158 29.0742
11.8418 21.9997 59.0942
21.3502 40.2411 86.6855
19.7006 33.5816 64.6782
18.4582 36.2767 93.4887
20.9911 31.2422 48.7509
8.62953 14.6757 32.0652
5.50807 19.9486 40.7732
10.2244 29.0496 67.8901
10.6663 14.5974 43.9734
14.3345 34.3317 68.984
15.6309 37.954 100.812
18.9593 28.0994 57.6026
9.11524 19.2044 58.7577
9.18099 13.7074 44.874
13.0756 16.5066 30.0216
10.1156 23.9556 54.9358
19.6678 37.3645 99.7403
24.4828 36.4599 42.4327
9.21537 23.5616 60.1233
7.98654 25.6756 71.3762
13.47 25.0005 74.3921
12.8699 26.8839 70.6627
13.0463 10.6576 33.1753
16.138 36.1629 68.5865
9.28059 16.7497 45.1382
18.3991 42.8506 94.2238
18.5483 42.9888 112.775
10.2442 20.7423 30.0932
6.05749 10.7403 34.402
9.43133 15.3696 60.3531
20.6869 38.1685 70.0471
10.1439 22.584 61.958
15.6943 31.6923 93.8309
19.7406 34.0066 75.0183
27.3178 72.9531 144.196
11.3766 35.0013 93.8442
15.8508 27.3068 96.274
15.8806 25.5361 58.1001
18.1667 35.1208 50.2018
8.2561 22.5135 66.2664
8.91992 19.4449 44.8577
11.5621 38.4421 99.6913
17.3931 26.049 47.2216
11.4831 42.9745 117.556
15.6044 20.7111 32.5855
7.17213 20.6669 60.4466
16.3557 32.4734 89.7163
12.3458 21.2677 53.6204
14.2964 29.4585 68.7359
13.785 26.0381 66.962
15.6527 28.8928 83.323
17.8768 30.6311 50.0261
18.2524 54.8845 102.974
11.844 26.0774 98.704
14.1104 32.025 81.1833
10.4071 24.1046 52.4036
10.2871 33.6056 95.6297
17.6212 23.7306 50.0055
7.39862 25.1524 67.3647
7.81862 15.0231 31.2005
1.59711 8.39177 49.3583
12.4361 21.9994 80.3228
28.4999 39.8164 63.8573
4.30919 19.0148 75.6194
9.69056 34.4256 85.8602
13.6462 17.3091 68.6617
13.7953 28.9577 63.3537
14.4812 21.0007 26.6881
5.69817 17.1087 38.2802
8.77559 16.9052 66.2537
20.4458 39.7128 77.9266
16.7876 43.0831 93.7211
10.8557 25.6524 70.9259
10.5501 21.4152 47.437
8.59425 24.6748 96.7506
19.4021 37.6344 81.07
12.6847 29.2454 72.0189
9.47016 18.3987 93.8376
28.3099 64.3102 123.597
16.4774 27.7886 61.4777
9.6978 33.5813 112.015
13.4333 17.6366 66.7751
10.6546 35.0993 125.431
29.5949 48.8701 85.7424
12.4748 23.1694 52.1583
10.386 37.1824 97.4797
10.9885 33.2066 80.5382
9.38157 19.0752 30.4239
4.81704 18.4627 56.3824
14.3678 29.5787 107.645
12.567 44.0772 106.281
15.5929 21.5331 65.2557
14.6812 40.4515 96.0565
6.54582 17.6624 72.8997
11.3765 29.6692 61.0114
6.26636 16.653 34.4668
10.0926 26.6702 94.3837
16.0283 53.9752 108.961
16.0244 40.9596 101.762
16.8008 27.3182 100.525
11.7401 23.3243 60.8811
8.19838 25.3131 48.3946
5.96351 19.4424 60.3114
10.0369 21.2293 49.8673
6.27625 19.1296 66.2498
9.7523 25.0435 42.7544
6.71111 25.2785 74.1764
17.5019 23.4785 47.1623
7.16854 25.2162 83.3742
6.81125 21.5663 61.8433
6.86023 23.4124 123.758
22.2625 39.8604 93.0857
8.7372 19.7025 79.278
10.2325 18.6425 47.7138
10.7542 39.5724 88.0823
13.2264 14.5945 65.9765
21.8381 51.8761 181.588
18.7637 26.34 33.0626
9.37491 29.517 93.4051
14.8008 32.4007 92.8928
15.0896 31.5562 86.3597
6.62788 17.6269 42.4056
8.25535 18.2918 59.9967
11.7719 51.648 129.668
8.4839 20.7618 82.4346
13.2018 27.566 72.1955
13.9228 43.234 109.308
15.9642 37.1718 133.67
18.8685 20.578 45.6466
8.8075 15.9647 27.6838
8.4463 24.4135 61.4043
12.2476 35.3129 78.5723
4.34696 10.762 51.5624
11.1992 14.1755 36.0408
7.45098 10.8808 25.2592
5.68054 23.8679 112.516
17.8128 29.3365 54.0462
7.38279 11.5448 28.2296
6.81009 16.95 84.0627
16.4587 28.4435 79.7655
12.8495 29.3404 88.1052
8.30088 16.6104 48.7842
11.495 28.7269 77.2115
9.83278 28.8438 91.4783
16.5417 31.2976 81.2876
12.4729 28.0388 82.5268
16.067 42.8759 87.7717
6.21928 26.9539 103.809
15.7895 30.7447 98.4774
11.8713 25.9251 72.8485
11.9146 30.4065 46.307
7.15405 19.5394 61.8947
11.7834 18.2971 79.2335
16.6257 33.0697 85.5472
8.64815 14.7008 40.8727
6.33791 22.1489 70.1214
9.46211 37.038 130.624
18.1566 51.7108 110.38
8.27648 21.1669 96.9926
12.5454 31.8612 74.213
9.08618 30.6221 130.435
17.738 37.1231 90.937
14.395 26.0436 83.3939
21.9749 51.4189 87.7438
4.21241 11.8455 79.0553
17.0456 42.4475 59.9881
6.36926 28.6454 101.906
9.82915 34.6644 112.954
5.5963 14.8153 88.5088
11.9913 16.785 40.9517
11.3293 13.2883 60.0521
19.8562 29.9352 54.8841
7.76323 26.7398 80.3245
15.2451 33.1102 77.9649
6.54757 18.6215 62.1363
11.5444 25.282 56.922
5.97675 35.0979 110.566
14.5831 46.4299 129.22
10.1737 21.1188 61.2883
11.179 37.7071 120.624
10.5685 37.7892 102.637
6.07576 23.9012 116.442
11.8318 19.1862 83.9294
18.1288 44.5953 120.519
11.1616 18.4089 62.3743
13.5353 48.2396 120.729
12.6557 25.9593 63.825
8.53894 21.7424 56.6085
5.41023 23.0074 79.4088
11.9541 28.4675 119.809
12.18 24.417 62.6311
6.61096 17.1426 90.5359
11.0342 31.868 88.6756
8.50202 18.6953 81.12
16.4369 29.5938 74.0774
10.7711 19.1106 59.5172
7.86921 20.0585 59.6161
5.94123 22.8543 61.3276
6.90233 15.6141 52.2241
7.09979 24.069 86.5499
13.1864 28.9557 54.2191
4.04968 21.6412 109.452
16.5549 25.4171 90.9636
13.2828 21.8964 41.6088
3.06568 13.5125 45.602
8.23083 20.9088 58.2116
9.85677 11.369 50.6627
11.154 29.0452 79.8019
9.3681 29.3717 78.0914
7.21674 31.2567 118.83
9.98915 16.8458 52.377
6.06636 29.6482 68.2824
8.58048 15.0356 59.3775
7.36226 21.1805 93.3661
17.2393 43.7928 89.9422
7.15238 12.5047 84.1729
12.8502 15.6115 62.2345
12.5102 34.4206 76.6305
4.5069 14.7535 18.617
4.41623 14.9621 48.6744
9.0907 19.583 78.8545
10.85 28.0972 113.176
12.7685 44.5817 115.978
15.8833 31.7611 83.198
10.4882 21.72 109.185
17.283 34.4027 56.6447
3.8194 10.5548 34.8596
6.52636 21.7008 89.5144
5.16791 21.0545 85.1553
10.4444 15.6711 33.8011
6.42074 13.9661 57.0856
5.36188 23.1707 61.7008
6.39917 19.2659 51.7632
5.48645 12.3046 75.6662
11.2313 29.0381 89.5576
10.6917 38.7557 109.242
6.4384 15.6363 74.7247
16.6 48.1068 127.768
7.80569 32.1938 102.165
9.68454 10.4122 60.75
11.4941 18.6533 99.6408
10.0486 41.6308 120.862
12.0469 31.5288 48.149
3.71598 14.6957 45.6729
6.4511 24.7429 107.586
12.9158 20.5183 66.2332
11.5714 31.4651 96.5327
8.54854 14.7405 62.5157
16.4211 42.8261 99.0205
8.79267 26.8949 89.7456
12.3706 16.2118 41.1329
7.71958 23.5406 68.7895
4.01769 21.3415 73.6157
7.20121 29.1773 165.903
14.9465 29.1802 66.5189
4.48239 14.0622 62.8895
8.08873 36.0132 102.873
10.1862 20.0687 63.8645
13.1191 23.5448 54.0791
4.09301 20.6468 72.8339
7.24445 21.0204 86.4053
11.1829 24.3673 82.9884
10.9084 38.1917 84.3645
6.51716 17.7927 67.0201
7.12976 9.42479 47.1564
10.3866 15.5267 31.1744
4.0306 14.8575 64.4503
10.074 36.0463 102.895
5.90319 19.0655 88.7667
11.8842 21.8663 107.509
14.9798 32.5319 119.87
15.9737 38.6017 123.467
14.335 57.5567 133.036
7.74879 22.4534 77.4906
5.0147 14.5131 117.396
14.9462 31.7123 92.3772
13.3775 44.0518 122.557
16.2932 51.614 134.802
9.996 14.9165 61.279
6.49567 22.7334 53.327
5.38686 24.9345 71.2417
6.26953 17.9983 67.0669
6.8888 15.8737 114.721
8.19601 28.303 93.6755
10.73 19.3642 73.0784
14.9664 26.253 58.2211
6.50302 21.1916 105.575
11.221 30.1823 64.3124
6.50852 25.2976 107.556
8.64301 18.6632 104.612
11.5622 19.0085 87.8816
10.8602 33.9612 83.8326
8.66043 26.1884 111.488
16.4011 31.5043 63.9354
6.27932 22.0457 70.1127
6.99454 16.081 90.0112
10.0902 37.2084 59.9994
2.77617 15.4887 66.9878
3.91663 24.9168 180.4
19.2958 48.3629 120.504
10.5165 27.8913 90.8294
9.97147 30.775 77.9708
11.7349 16.6475 70.3598
10.3564 22.7069 88.7756
8.53999 24.7919 66.0422
7.41943 23.7682 86.8249
9.39532 13.864 67.499
11.1064 27.7094 106.481
9.56497 25.9656 40.5812
4.5457 14.5404 93.4008
10.9619 40.531 135.327
14.3115 32.7684 94.3677
8.63217 18.6706 56.2225
4.63274 15.7235 87.8997
11.7272 38.4114 86.9025
4.56525 18.5003 102.483
11.4945 43.9869 88.5614
7.09598 25.055 100.087
9.81482 25.4723 72.1863
3.15819 14.774 64.3595
10.0387 17.9886 51.6703
3.7693 16.7295 56.825
5.83185 22.65 124.977
11.7937 32.8168 97.8058
10.496 34.9926 145.657
18.649 34.764 78.8269
6.63399 27.0243 106.696
11.3172 22.2884 26.5462
5.34138 24.0447 111.997
8.2919 13.6995 82.2343
8.52367 40.7966 101.59
7.69009 20.1981 72.4864
7.78633 20.3064 135.896
15.5538 29.2005 72.8039
10.152 30.5971 103.459
8.35936 21.54 44.3469
6.10579 17.7263 51.9966
7.79027 29.5367 115.79
10.5193 24.4179 89.0309
7.4161 27.6033 139.101
8.45795 42.503 138.687
13.3731 26.3139 63.4035
7.69346 21.0136 81.8403
10.1025 25.2811 59.9028
7.41928 22.2945 101.665
9.6785 30.4002 116.086
12.2875 24.2874 93.7736
7.69794 34.345 128.831
14.5219 33.0879 126.189
14.4766 30.7848 127.638
10.1566 24.9783 85.8678
6.57932 25.044 76.9226
13.9708 46.6334 127.181
8.0025 24.4572 107.739
9.89795 24.1859 81.7092
8.98445 22.0676 69.9713
5.21407 12.6229 82.3314
7.19585 13.5814 35.7634
3.55389 13.592 54.3231
6.25702 14.6001 36.3022
6.31365 26.6125 97.2735
7.18427 13.6731 81.504
8.19648 23.4839 84.4916
11.0563 26.0228 103.092
7.77739 41.506 88.1594
7.52528 15.5371 77.8778
8.31552 33.3662 147.224
13.2523 23.1665 69.8782
4.25658 13.1235 90.4807
12.1869 43.1333 90.2787
5.34079 9.60837 75.0675
10.8858 29.7328 65.5177
6.82397 29.9739 119.56
11.5288 29.6709 102.086
5.40525 14.8781 59.0039
5.44814 16.6628 62.0121
5.25432 20.8112 62.7061
4.67984 23.0588 106.967
10.8229 16.0092 40.3291
3.55028 10.371 71.6748
7.48505 24.1159 73.4945
5.96996 8.53902 55.1851
5.71553 23.5806 64.9349
5.96581 25.5582 68.096
5.64006 34.7083 111.767
9.38349 26.4849 86.5731
4.86285 19.9831 114.276
7.44838 32.3785 92.0034
10.2226 27.5427 111.601
9.0159 29.7148 125.683
9.77439 28.0242 72.5318
5.97788 15.1357 76.1343
6.39811 15.1125 96.4351
7.70786 17.6176 68.4436
5.11092 31.4712 92.2882
5.55179 39.8358 148.927
10.5729 35.1876 106.804
6.53844 22.1511 85.4052
6.44295 22.5008 99.0059
9.13303 29.1854 62.1163
3.73813 22.2041 83.7076
7.91059 13.7912 91.8181
9.72243 36.3338 151.118
12.3947 26.1658 68.3449
9.31804 31.7702 93.9743
4.95433 21.0639 115.562
10.8152 32.7437 130.734
15.5466 35.048 94.2417
3.86861 24.9086 102.867
5.75156 22.5422 85.1753
6.09508 17.0651 45.5204
6.17193 14.8266 83.3537
5.58071 20.3683 54.428
6.5786 25.0988 80.7334
6.68071 28.3376 127.029
13.502 21.2052 173.583
20.6822 45.9903 90.2902
6.11009 39.0265 136.973
12.1808 29.5109 102.539
10.6172 35.7274 178.307
15.7091 24.1075 63.7818
4.79047 23.2729 112.973
11.0203 14.9923 49.252
9.50095 34.6081 62.8087
5.40511 30.8771 144.68
11.3338 35.818 95.8097
7.52735 27.9056 159.484
10.1427 10.5312 64.1418
8.27211 17.388 70.3264
7.74561 26.4732 60.7941
6.71656 23.4248 100.951
7.79537 23.2054 79.3527
7.46869 18.4207 116.684
10.8933 30.2511 103.349
8.94455 21.584 27.2371
2.29307 10.0162 50.4403
5.25722 16.4578 71.4204
5.32456 21.2547 91.0791
3.26965 12.8495 98.3865
8.85543 39.7101 108.219
7.17475 4.80848 54.646
8.07886 20.4188 54.6434
3.87142 16.0305 54.6737
6.72746 20.7741 111.919
10.0048 57.5244 186.971
11.4902 25.7564 91.5998
5.55403 19.3627 39.7222
3.318 17.0965 107.84
9.12097 22.1934 100.488
3.78036 19.3068 50.2511
5.27214 10.9927 95.1605
11.9375 31.9191 98.7961
9.36251 30.2387 117.068
6.52449 34.9939 152.674
13.083 51.3287 126.72
9.15723 20.7881 72.0604
5.73071 25.5111 110.691
8.57947 15.9986 63.3709
7.46816 34.1733 130.786
7.27693 22.0946 131.434
13.9988 35.2927 110.018
8.47123 27.1701 83.1695
7.90871 17.5432 73.2864
7.58469 22.1641 112.962
6.4903 29.7929 123.487
11.5688 17.4887 98.0971
10.1427 38.8209 66.8512
5.94978 17.9411 100.161
10.3772 31.149 60.3144
5.37257 8.17055 48.4111
6.24775 19.3575 63.7985
6.30316 18.3195 87.6115
7.42943 11.4149 84.5214
9.57142 35.2095 112.791
7.51773 27.3813 79.2115
5.57678 15.3204 128.161
14.2695 47.8466 123.583
8.43714 31.9544 156.792
14.7867 24.2454 78.2898
6.75238 24.7428 63.3272
5.97509 20.3819 78.0188
4.64793 13.1427 84.699
8.82745 54.4477 183.931
12.6197 33.8889 92.5173
3.44121 15.5121 71.1329
5.80936 26.5567 102.965
8.43352 37.4489 97.5986
7.11777 31.2264 146.957
8.86307 13.8512 32.4243
1.71228 12.191 30.1916
1.60978 14.6163 93.3752
8.16167 28.0128 139.36
8.03702 33.3654 122.775
8.54155 29.8107 145.064
14.6241 27.5523 87.2211
8.63699 21.6825 70.9636
6.98236 19.0488 103.785
10.4133 25.8898 69.7767
7.37782 6.22679 85.9356
7.4604 36.2997 114.058
5.16938 15.8295 38.9874
3.68331 12.0948 71.1448
8.16054 22.7004 137.003
13.732 39.2261 102.605
7.30735 17.9147 74.8282
8.58111 19.542 143.354
16.3094 28.2295 94.1039
6.29886 19.4514 52.6775
3.68053 14.7588 161.115
11.9799 45.1061 163.874
13.6691 45.0486 130.619
9.64215 30.1732 106.87
8.36192 16.5435 103.11
6.70969 33.0185 80.9066
7.77006 21.0981 71.0061
6.57847 31.0619 132.199
7.41779 28.538 96.445
7.42319 19.1835 50.5524
4.09205 19.4943 129.415
12.6761 22.6462 65.1207
6.00611 29.8197 93.9401
7.87439 35.5416 167.868
14.3328 24.8708 53.5556
3.88909 16.6431 103.782
9.88242 29.6971 100.376
7.92478 16.1133 58.1891
3.7542 15.5195 87.6951
6.64814 25.2839 72.6072
7.08605 24.3667 177.359
15.9391 74.9046 124.208
5.80543 15.4339 98.8896
7.46915 16.5842 92.6751
8.02867 25.734 95.9519
5.10016 28.8789 100.116
5.00488 21.9217 93.4399
5.36258 18.4808 75.3758
3.85338 17.2265 170.309
12.8105 42.5898 48.5052
4.71813 13.897 85.9291
7.25385 45.1672 103.376
7.06858 29.2523 145.882
11.7942 33.5117 135.62
11.0575 29.8036 98.5698
8.5925 9.35359 67.9848
7.786 25.6376 87.0748
7.29118 24.5615 110.182
8.54154 17.3482 108.619
6.54043 22.0436 97.7275
8.36044 31.4166 54.6311
4.6034 15.1393 143.259
15.4749 31.6256 89.4777
9.76152 23.8021 39.7258
4.37784 17.0298 91.8312
6.70956 31.311 154.456
9.05869 28.1184 101.542
6.90512 55.5013 180.963
8.94189 15.0404 71.5327
7.53548 25.1356 68.3973
5.882 16.2574 70.4454
7.70809 25.8001 88.027
6.74708 19.8601 79.2821
6.14413 23.6221 131.648
7.79387 18.3308 85.9806
8.38456 21.5805 103.187
8.21143 30.142 83.4321
6.86685 17.2382 78.2471
6.79185 15.0277 63.2458
6.93973 33.3182 96.2198
5.86509 17.5329 73.3019
5.08104 19.1446 92.7006
7.8257 14.3855 27.9003
2.3308 27.1898 147.746
13.8132 23.3362 99.1593
10.9944 16.568 106.438
9.42953 31.1665 100.251
7.98962 35.7038 119.885
10.8316 8.32017 80.7347
7.73165 23.1879 47.9113
4.59607 18.6957 93.0795
8.42934 31.6656 96.6987
6.89392 22.7009 105.236
5.98813 11.8147 123.014
12.3327 30.5867 91.9537
6.63542 16.3083 101.33
9.24419 40.1701 97.9989
8.93256 25.5509 87.0212
8.71626 20.7635 37.7366
3.14153 23.854 160.831
8.7283 32.9396 74.3934
5.87951 13.4103 63.4644
5.05642 15.2831 105.472
8.59579 29.2662 74.7355
4.27496 17.6115 98.8165
8.22144 18.8913 96.4417
8.07024 26.3064 100.606
6.63034 34.8098 101.396
6.10263 16.7599 70.52
5.43414 22.1947 86.4837
4.65359 19.5194 127.465
12.0304 21.7976 85.7049
7.45543 53.2773 183.344
18.1073 38.7167 91.7121
6.9883 17.1738 66.4696
4.80989 15.3876 149.247
10.1271 22.522 160.034
13.0667 32.5222 88.8615
6.14068 18.9367 59.5184
5.06227 15.7955 65.9701
4.29944 20.2142 86.3508
7.26144 37.7783 207.429
14.8907 38.3969 102.315
6.93525 32.0539 95.6547
7.62459 22.5122 76.0322
4.2603 23.2189 83.1303
8.25564 17.8892 80.0493
6.56915 28.7585 104.563
9.4943 21.4572 79.4875
9.01141 11.8261 102.237
9.33833 28.3135 92.4734
12.6583 30.0852 161.275
13.8504 22.7217 77.1692
6.56859 35.0528 107.924
9.03852 30.0388 195.202
13.0749 37.9415 79.7256
6.74244 25.1572 75.967
4.42886 16.2813 67.4156
7.68619 11.8428 63.4997
5.34872 14.41 105.371
8.50569 39.1861 133.091
5.8695 24.7662 64.1368
6.44168 12.1174 82.5371
6.31633 24.05 63.8268
4.19534 18.7665 116.523
8.19471 20.8933 109.835
10.0217 35.0967 77.2968
2.96591 31.7866 106.323
7.73666 35.6239 116.738
8.27584 13.2577 89.4856
5.69469 24.6107 67.2036
6.40382 11.4235 83.1532
5.45438 10.1975 61.6102
6.33724 13.9877 86.7112
7.30764 40.5842 142.118
7.39039 35.3806 115.496
9.78425 16.9538 60.4468
6.9999 12.91 88.1827
9.48339 24.8447 143.053
7.63712 32.1959 71.1152
7.55814 39.1957 141.357
9.60977 23.1326 108.83
7.90377 21.1378 48.1149
5.77438 7.41521 80.3096
7.89094 22.7359 116.004
9.66652 30.963 28.9005
3.63391 0 0