# pn-170911/CsIIA-25-TWTF-1280-1959.psd
# Power spectrum* (dif=0,1,2) (really just |FT|^2)
# NOTE: only the first half! (symmetric)
# weeks: 1280-1959
# 2 clock-days, 0 excluded
# PSD: 1441
12391.5 2.30163 0.0722788
1.67475e+06 36.1581 0.0212208
4.1274e+06 34.3769 0.0232411
2.17601e+06 142.156 0.0148587
1.41428e+06 56.4962 0.0231835
1.01925e+06 133.295 0.0149972
194738 70.9627 0.0291203
360009 48.8319 0.0531734
181605 73.3632 0.0165543
344516 85.3959 0.0484456
108249 71.2907 0.0836102
137480 41.3843 0.0394573
23269 12.3708 0.0122379
19302.5 4.83184 0.0313528
87378.2 82.9879 0.11195
55844.1 45.1395 0.0870168
79199.4 54.6713 0.103291
11549.7 17.5966 0.0213157
29076.9 40.2593 0.139025
47402.7 53.9835 0.16684
33221.7 74.2323 0.250209
53226.4 78.451 0.161731
9874.31 27.5893 0.0786493
49438.9 109.869 0.331585
89961.8 165.376 0.397228
12164.9 23.6373 0.0982139
48300 93.6352 0.3873
35492.3 81.5841 0.260167
10887.2 11.1173 0.0600062
12204 47.6122 0.29061
3365.35 16.0231 0.138325
26818.2 73.9439 0.420995
11224.5 57.9337 0.223385
7981.47 31.1439 0.184224
49192.8 214.038 1.10902
19097.1 55.0736 0.379422
8899.71 43.9435 0.161068
20469.7 82.0622 0.462965
11820.5 43.4345 0.401709
2257.31 18.0413 0.164395
3604.17 13.7474 0.119454
13907.4 67.4393 0.538746
5998.27 40.3978 0.451357
2339.46 27.4727 0.314521
30851.6 189.295 1.76121
12923.6 83.4921 0.986824
1864.16 51.0552 0.498088
15412.6 157.269 1.76974
6992.04 34.5425 0.44463
3017.18 23.5126 0.218032
8869.14 116.606 1.66918
369.983 21.0913 0.218457
5552.25 69.8308 0.981059
2026.58 8.28473 0.210798
3160.36 13.6486 0.157699
4100.95 52.1951 0.53709
2476.48 24.4109 0.400511
5174.36 72.8738 1.21482
859.946 19.5451 0.356923
1398.3 16.0414 0.437987
2515.63 12.7071 0.299203
4242.44 81.8369 1.22339
4075.74 95.0916 1.93209
7371.68 78.1866 1.49016
3818.2 61.781 1.3131
2720.83 80.201 1.47042
1667.13 50.1375 0.835844
4011.73 62.8536 1.36191
977.939 19.9517 0.579091
1971.33 38.9295 1.10566
1732.48 21.6609 0.478654
4136.24 62.0364 1.60397
1389.44 12.1277 0.317626
1814.87 44.9459 1.30378
5851.96 105.346 3.186
5095.35 98.2907 2.43048
2782.19 56.7062 1.99425
5470.68 124.378 2.9278
2383.18 39.4061 1.20954
675.423 28.39 0.952961
508.537 25.6383 0.767916
8650.78 240.351 7.14702
2858.33 68.0647 2.31923
2525.3 84.5035 3.16915
4668.51 135.842 4.2502
2261.17 117.489 4.18797
4409.81 157.179 5.61442
1600.08 51.2092 1.86329
952.027 59.9457 2.29813
4658.21 196.764 7.87144
1145.5 33.2602 1.61589
2041.31 49.2292 2.35788
356.075 10.3943 0.607339
2726.84 111.979 4.32243
1097.94 44.1812 2.02641
2264.69 73.6895 3.20512
953.145 61.3926 2.74181
1771.9 70.947 2.59
280.086 17.4767 0.872977
888.374 21.7441 1.08096
1984.3 141.413 7.30658
3152.77 86.408 4.11559
885.491 32.8687 2.21841
2187.48 69.8895 3.60949
944.219 55.9809 2.39905
684.952 70.3953 3.27668
1949.59 83.52 4.07616
644.258 15.0342 0.820306
961.324 28.4428 1.96706
957.491 98.2946 4.85455
1668.4 148.82 9.0766
1096.89 52.0484 3.76093
1454.33 46.6288 2.9402
406.427 18.3629 1.06656
880.539 43.3898 2.45157
881.34 44.3774 2.38525
558.534 54.7902 3.52163
43.2595 21.2649 1.53229
417.992 19.4087 1.38855
1019.7 50.2263 3.97079
853.406 20.9513 1.52327
472.553 23.137 1.69767
429.416 48.6869 4.32609
869.641 28.3425 1.38191
1348.4 47.5446 3.00807
1571.35 70.5339 5.15392
801.187 59.9473 4.72216
1042.35 73.4048 6.02578
777.03 63.6626 5.50991
437.036 22.5481 2.82146
1162.42 136.759 9.84123
116.321 19.4556 2.20558
553.27 22.7914 2.15263
1100.7 83.8129 6.29281
246.454 8.58213 0.575526
859.451 54.7984 5.06356
1324.16 68.1178 5.34933
565.551 36.9822 3.74679
534.68 36.2297 3.06171
2022.8 132.937 14.5848
1650.88 191.963 15.3355
239.78 26.3686 2.27511
420.34 14.1047 1.16525
34.0153 3.86459 0.315691
316.509 10.2521 0.832179
1554.28 120.895 12.4546
270.376 51.4195 5.62317
398.865 29.8841 2.99853
189.497 12.5779 1.14742
105.476 27.6787 2.6963
472.707 22.4863 2.27152
406.585 49.9482 4.45254
249.092 47.4372 5.35847
215.492 23.1998 2.37315
600.815 41.1997 4.22646
494.741 50.4249 5.53122
76.5993 3.45264 0.429205
834.577 73.0388 9.64938
262.29 26.8644 3.28512
531.687 41.6489 4.07186
387.591 51.0619 5.78253
178.996 41.5905 5.23618
1081.92 128.843 18.1774
1622.82 121.132 13.1572
567.564 53.113 5.95139
1094.38 105.626 15.0493
478.491 43.8189 5.47012
673.247 73.1077 7.9949
729.528 80.915 10.8548
152.382 19.8932 2.16022
848.981 94.9667 12.9591
271.989 13.7233 2.67187
316.165 58.8156 7.2156
910.884 100.939 13.8139
640.891 67.2472 10.5024
531.667 85.6914 13.1719
584.694 44.4073 7.97397
533.008 68.4742 9.49695
816.861 79.0479 12.6976
334.097 80.9749 11.9226
324.864 29.5214 5.78814
777.413 97.9045 14.5309
546.086 67.2848 9.83199
1089.77 162.408 23.2079
69.5624 1.52373 0.417244
401.238 36.9271 5.85799
449.604 38.2146 7.32
367.917 72.2194 10.519
135.421 48.8898 7.92268
384.355 45.4637 8.01617
909.153 101.623 16.285
179.008 14.7998 3.3746
378.42 48.2736 7.9327
235.315 42.9589 7.96792
91.6206 5.11134 1.11501
135.09 41.1424 7.61944
27.018 19.1472 3.961
62.5731 26.7189 5.30802
517.22 58.999 9.1696
421.242 36.4046 7.13074
227.387 22.9122 5.53875
443.139 64.2936 12.1054
127.659 46.0783 10.0229
358.236 41.8293 5.68181
112.494 17.4155 2.76373
189.654 52.7737 10.0067
127.466 17.461 2.50943
200.252 44.0676 9.39684
430.498 79.2345 17.69
456.455 81.7853 14.3285
120.543 64.6181 14.0951
167.69 32.7585 7.10601
899.324 117.659 22.4913
203.965 66.948 13.0676
376.782 39.8031 9.08902
225.191 23.8059 4.31579
182.432 49.1404 8.95131
65.5214 25.8295 6.58214
285.279 29.7384 5.42013
462.513 76.246 20.2503
236.498 41.0534 7.63536
167.042 42.9032 9.50553
422.598 94.9444 20.2
132.111 22.9747 4.67772
174.124 36.4421 9.25634
108.378 5.26495 1.40844
13.2997 2.4853 0.36421
33.9626 7.25194 1.69352
275.279 101.545 27.1946
271.887 40.507 9.20505
226.943 28.3297 5.61057
302.388 88.5863 20.4288
59.8663 5.72554 2.23767
250.967 115.061 30.0555
205.066 38.9212 6.64065
621.805 223.148 61.403
267.332 26.5563 6.62324
319.236 63.5755 16.3792
659.424 113.442 31.074
321.751 95.6678 20.8417
54.8923 9.24635 2.7543
327.045 97.1891 26.8899
159.436 11.2003 2.91915
76.9866 61.6451 18.4328
240.245 39.5213 10.7951
299.753 49.164 11.7812
86.3773 18.6384 6.53014
267.894 54.3551 18.5063
61.1589 25.9556 8.11566
554.073 86.5127 22.5065
118.181 21.0856 4.90828
325.254 51.5858 17.2819
149.881 42.9596 8.6885
119.743 34.6492 11.5602
245.42 74.4068 19.9759
28.5432 21.4538 6.06965
65.5508 13.3157 4.7268
311.004 59.4931 16.6665
192.346 26.2825 8.57252
270.877 61.0927 22.1495
29.9654 12.805 3.787
53.5182 24.6785 8.39063
84.1063 21.0957 7.07299
306.317 90.0072 28.8928
88.241 47.5023 12.1824
219.816 52.9905 15.9198
18.5948 18.2986 6.84815
78.2394 26.5602 11.1578
128.952 61.3547 19.6554
250.665 56.0761 16.8786
37.2509 3.18142 2.07077
87.0915 3.60805 0.464271
274.793 52.6946 20.5807
190.582 94.5297 29.057
56.056 31.2298 13.7411
133.911 26.0075 9.24251
81.7175 41.8762 14.6447
146.971 22.8103 10.4601
108.56 69.3505 24.0244
98.744 22.5712 7.65408
91.3961 17.8257 7.99159
173.569 27.761 9.83725
116.027 11.2833 4.49399
244.833 48.8177 16.8747
81.9874 16.9649 5.7966
147.244 30.6325 10.5915
35.3137 4.29411 2.33597
130.813 28.9289 11.1594
341.258 80.8264 32.8945
37.7355 14.6246 6.39849
173.589 33.256 9.73883
111.836 37.4988 16.9405
164.745 68.2884 17.4577
220.711 110.997 44.465
249.238 55.4262 21.0835
56.7299 17.7243 8.8159
75.9111 32.5265 13.5352
191.29 48.8916 17.6632
55.488 11.5826 6.83172
153.685 76.6251 27.0953
109.657 36.2362 17.0768
54.1917 32.5508 17.0538
84.2645 52.7466 22.7178
122.08 17.8995 6.81436
52.8945 29.309 11.5381
24.6996 53.5134 28.0197
135.412 18.4794 7.22361
235.272 48.1736 15.7162
89.0707 22.7123 11.4227
45.35 9.87741 4.59156
126.728 28.9182 14.8443
94.1208 24.1889 14.2125
172.105 103.429 41.8703
83.2375 13.3811 4.10569
151.654 57.4145 24.8154
34.0574 24.2177 16.0792
69.9517 16.2092 6.39302
52.0054 12.8519 4.17201
77.5929 25.5329 14.8433
109.667 73.0768 34.3622
46.7903 22.4783 6.95739
39.2888 21.2774 8.85414
88.7898 78.6917 48.8005
305.989 81.1251 33.13
123.378 49.7992 24.5944
75.9465 49.5685 18.4863
16.9274 34.9441 24.1074
151.464 24.8871 6.50248
165.643 54.0989 26.2334
20.3598 34.9693 13.8502
97.694 58.2844 33.0499
57.4088 18.1983 7.47056
61.1066 10.5681 7.15072
116.175 23.881 8.39323
53.3085 10.0556 6.47985
65.1569 63.0045 30.6981
115.853 51.5585 36.5435
128.984 38.0253 12.7532
103.982 34.9453 21.0839
239.821 73.693 32.5074
40.8688 16.8452 12.1909
53.8295 37.7605 19.1845
43.8446 39.4882 26.2624
130.29 25.3212 9.51333
78.8614 12.5255 8.16628
62.8681 26.9055 10.6961
66.7462 28.0682 14.9065
14.0889 21.7905 21.2953
330.493 110.645 53.1503
110.434 38.6042 20.161
30.5101 25.4684 17.021
123.568 46.0196 26.2467
95.9561 38.642 22.9491
28.3615 5.73178 4.42093
38.5584 25.8521 16.7936
34.6914 47.3959 37.8228
101.211 36.3042 12.6575
120.097 40.1358 15.7141
69.3485 53.0603 25.9217
115.999 53.7087 35.1766
28.147 16.3092 7.2414
69.6726 43.6714 34.6478
139.916 74.8553 35.1944
83.7427 86.5222 54.769
75.1121 39.5159 22.3256
107.218 31.9266 16.6621
37.6945 30.8556 18.8819
54.1011 30.6436 15.2504
15.3215 8.15841 10.2824
40.6232 38.6254 21.9231
27.3817 22.9077 11.2917
115.409 72.1185 42.7638
67.0233 15.0097 6.08377
48.8721 19.0169 12.6143
88.7682 29.5968 13.7109
124.395 58.0416 34.2394
32.4645 6.31195 4.70461
51.2591 14.9425 8.04507
14.3089 8.23666 3.44983
71.255 57.5092 32.4951
52.8483 31.2738 22.1463
30.3981 34.6457 31.4363
117.854 107.007 66.9748
81.6207 28.4061 24.9757
27.0692 1.73493 0.763176
19.4356 14.3483 10.2881
60.6513 19.8107 19.1603
123.605 49.9129 21.9044
40.2145 29.323 23.1783
44.3163 15.5923 17.2307
175.834 79.4392 51.9173
21.4863 4.89988 8.38784
36.1333 34.298 32.9723
17.2708 11.6446 10.5691
93.1665 62.1368 27.3767
4.29487 4.31308 2.68928
28.5215 26.4318 15.3372
26.6782 15.5372 14.1773
83.2187 32.7802 21.6474
91.8069 31.4533 20.8482
13.2709 20.0817 16.077
30.7345 7.69914 6.32821
117.848 65.8369 48.5246
93.4318 46.5316 33.3863
22.5579 7.35208 16.5469
77.8622 54.8061 37.4094
41.5852 46.3306 21.4085
32.4331 55.3307 41.035
42.9107 23.4273 12.8195
26.8026 26.536 23.0259
57.5348 27.0099 26.3692
20.8202 17.6525 19.8294
59.399 14.0662 2.91361
93.4601 40.6588 20.98
47.8249 33.7377 30.8823
43.743 16.6688 11.5269
20.2731 36.4195 26.9206
58.9666 39.3722 27.3068
45.3969 33.9163 21.3872
3.5678 6.67653 6.47897
57.2985 71.6738 54.5525
23.14 20.1843 29.2167
49.3388 13.692 7.7892
43.0171 23.1322 21.3172
52.8949 52.0361 37.5472
39.8679 10.1323 10.2178
28.6804 5.44477 2.83452
8.401 5.02126 7.96566
34.2669 25.4427 21.5092
83.4784 42.094 31.7996
44.9832 11.0178 13.7597
20.2713 24.2405 15.5435
11.1493 22.9984 22.3901
46.9012 13.0381 9.18822
48.9269 11.8241 10.1862
71.6645 37.4589 25.3667
24.8009 13.9472 17.0613
30.5302 9.04099 5.44479
25.7099 30.5896 26.0461
32.9415 13.4814 20.4676
95.3354 72.9186 48.211
40.6981 29.9827 28.4814
21.5961 12.7677 14.1276
68.3447 31.481 23.0952
74.6936 43.2049 42.825
115.101 89.1072 118.482
94.0907 78.8441 32.9077
57.1084 49.7661 34.8887
12.249 20.1583 11.9155
30.4759 41.8197 40.1722
25.8253 28.7837 23.3378
16.9491 25.0861 14.1334
44.9174 61.518 46.4316
18.97 67.5697 88.4451
138.629 72.5656 52.4952
8.50848 6.37285 16.7923
27.9489 18.1924 10.5748
29.1454 10.4135 10.7777
11.5454 9.16191 7.56424
25.5086 19.1216 20.4844
23.2778 20.9527 11.9503
21.4756 21.5861 19.026
9.55231 16.5797 17.1094
27.7668 53.932 54.8952
32.5526 8.41915 9.64325
24.4196 9.57492 16.7834
73.4917 39.7935 36.7705
31.1618 7.13192 3.40912
32.333 15.4003 12.6123
4.72616 36.0507 42.9757
46.3192 2.59256 0.416781
88.0377 63.0183 65.2227
40.084 11.6746 3.83138
16.6454 5.65941 7.35625
38.9661 34.3075 41.1833
90.6353 32.9927 24.4619
16.9129 28.6936 34.0608
76.3342 39.7348 31.0229
48.6634 34.7396 35.0261
27.2578 26.5603 23.3307
26.3912 5.64225 11.8646
79.6824 52.4961 47.0866
21.7293 8.05438 11.8812
31.714 18.5087 23.4336
26.9249 57.2117 51.6877
12.0405 15.5602 25.6807
33.462 16.8796 18.682
99.9385 60.3099 42.2125
26.7294 37.0458 52.5307
63.7412 39.1433 34.6426
77.3826 38.4878 32.2536
39.4562 32.1449 48.2456
60.2502 27.0437 21.9586
30.2976 39.4152 40.5297
29.8456 11.6 16.0468
52.1736 49.2183 62.3559
18.9559 31.9689 39.5072
43.2411 21.7139 23.8951
57.0435 56.7876 35.4759
35.7363 31.6621 32.456
20.8576 44.0168 64.6617
65.8005 42.9465 37.0639
21.5855 5.06644 10.6889
28.4588 30.8191 22.4301
2.86547 18.8365 29.0999
26.2676 1.66542 5.17607
76.5142 45.2976 49.8982
33.2724 23.488 22.3656
8.91292 12.9328 8.22649
6.31032 22.8103 36.0204
59.6235 40.9194 39.6843
39.435 21.4018 26.6826
26.9675 35.8454 60.466
84.059 31.9691 12.5569
74.4219 70.1651 69.53
13.712 17.5837 24.2496
62.5975 39.6796 53.9208
6.43377 18.4182 18.7866
13.3061 25.5967 21.5253
16.1518 21.9055 27.576
22.5992 29.0039 39.1037
43.041 11.768 5.76813
30.2048 17.9462 27.4307
43.6678 44.5257 42.27
9.04698 25.526 51.3343
30.0695 39.505 35.1554
28.8161 25.7273 21.0233
2.88656 13.025 24.9079
48.2507 27.3075 32.5945
3.59947 11.8654 27.4415
61.2186 27.119 15.0902
28.2008 22.6772 30.088
15.6404 6.96595 19.2836
59.8365 34.0097 23.2429
15.8957 5.26191 4.87134
18.9156 7.38402 6.06666
24.1671 14.2031 18.5291
22.6142 18.8432 45.6243
41.5036 49.2426 38.7394
16.4534 9.37647 21.5315
26.2958 16.4068 23.9878
12.4302 31.4693 41.4145
39.9601 30.477 25.1856
17.7031 3.82224 2.27007
17.5637 5.09057 6.17881
31.0411 45.8833 49.3018
50.6785 39.4317 50.4432
25.9684 19.4142 34.8233
5.99709 29.2244 36.2322
17.1004 9.14116 10.6907
7.76237 11.5322 16.9669
47.5319 43.3798 58.4439
23.1818 8.07615 4.8849
7.71277 17.4468 35.4543
45.2764 19.6568 22.4925
31.589 33.9292 51.9794
16.3963 21.5315 15.8747
17.9138 24.5368 26.9365
10.6255 2.23512 6.00732
3.43955 15.5568 30.6713
64.8305 59.3495 84.4058
11.4245 19.7134 19.1869
11.4203 6.26017 14.4354
36.7395 30.4925 46.8609
11.8695 6.68091 5.6562
32.5262 44.7862 68.9731
30.8668 11.2082 5.96437
14.2064 15.5955 28.6825
13.8961 16.8652 23.1813
61.28 53.1696 70.6936
30.0834 13.119 5.35186
29.5514 50.3858 66.5456
26.023 48.5993 82.3543
26.7957 10.0168 23.0236
31.0353 37.8584 57.4423
95.1706 69.1619 78.3812
8.55425 11.6527 18.6609
32.5536 56.2731 79.235
15.2378 6.30664 32.2175
31.5813 5.98739 17.0786
99.7852 80.1438 82.4646
32.6073 28.8666 54.0458
28.6766 36.5387 68.9566
31.6719 60.3023 38.8235
2.52224 19.5646 26.2559
16.1673 37.6202 84.9224
66.84 45.5114 46.569
15.5723 10.8376 28.8318
41.4155 21.5078 12.1154
16.5646 6.05618 13.7544
20.8477 37.8026 62.2057
83.2633 57.1011 66.2516
23.0311 20.0988 28.428
15.3208 18.3583 24.9283
25.4156 10.5861 27.1047
53.6071 68.3902 84.196
9.20949 15.0598 30.0503
3.6597 13.6216 17.8434
26.066 28.1753 47.2056
32.6452 15.7387 12.2406
16.913 10.4616 23.5895
11.9819 12.9401 15.6294
2.95299 7.5159 20.6726
29.6462 24.0344 36.2416
24.3204 34.9424 39.1357
17.4712 7.06356 23.4318
10.8991 20.1017 23.5717
35.2311 51.0644 61.1725
3.55405 8.15673 23.0439
24.1378 5.6229 5.32601
17.2173 18.4303 23.7349
14.9885 5.70345 15.6029
40.6273 38.8336 58.0224
4.48482 5.981 22.5429
13.0954 16.2077 26.1143
20.0381 9.73979 22.4105
10.5184 23.3587 16.0902
7.56848 13.3366 25.5271
32.5942 34.6044 45.7016
11.4156 8.25072 23.4726
20.9812 7.40307 4.2502
7.11164 1.52737 3.07418
8.4533 3.43335 7.81308
19.2016 7.1865 7.8273
21.9625 15.6904 40.5999
18.2277 19.3667 22.5023
9.2238 27.8397 46.9599
9.35052 3.27758 2.20383
5.35028 12.5441 27.1427
10.9285 20.7742 30.426
22.2379 10.0872 9.02002
8.80659 5.78421 7.132
16.7591 23.6229 48.7024
32.9181 25.4837 34.2703
34.5202 31.7832 37.6605
11.7349 8.08224 21.427
11.8185 4.91421 7.23291
4.25712 1.543 10.5412
8.01364 36.2641 46.0542
19.6074 15.1098 35.4747
22.4155 19.7231 29.0896
8.70283 2.2051 6.70746
4.08453 7.15582 17.9055
23.2674 9.23341 7.67629
10.46 18.4004 31.4483
13.0995 2.04823 11.4109
24.0914 24.4605 32.9598
11.7259 9.93913 10.5327
6.45642 15.1748 33.2459
2.75341 13.0472 25.6609
7.3924 9.74601 35.7707
27.6121 12.6869 27.7787
42.8448 33.5408 57.8865
27.3645 15.0086 18.3212
13.6622 8.58835 10.808
14.7366 9.7304 17.7492
37.2029 17.1379 10.5185
16.4794 10.7535 14.7401
7.73788 9.8983 14.1331
11.6199 12.8525 27.8184
20.0743 19.7588 33.6789
8.87475 2.76659 5.39372
10.1753 5.11797 21.7115
27.0298 37.2635 61.6443
25.3538 33.0447 45.0156
16.0513 3.80588 8.51708
20.7305 19.5653 33.1174
39.6165 45.0945 93.1462
7.48945 20.2558 25.845
29.8136 29.2112 45.8248
3.73288 6.91503 19.1439
11.9093 10.7448 26.1468
44.1952 32.8551 40.6067
27.6349 32.816 61.1346
15.1806 7.75992 19.62
6.18786 12.9742 22.3552
9.26772 36.3374 80.1668
30.5865 12.1583 18.8146
22.1049 15.8091 15.3672
8.48343 10.5806 31.2696
18.7788 17.9125 43.337
23.1645 16.6333 24.9449
19.4994 22.3875 22.2762
35.7224 43.7424 85.7607
4.48725 22.1182 48.0212
25.1828 16.7624 31.6353
10.008 20.9195 86.1606
43.641 35.7477 16.9611
14.8607 29.5944 50.1073
3.30212 26.7267 71.0707
33.455 18.5564 23.3548
15.4946 18.8653 28.0734
20.8749 13.1175 14.5862
31.8884 47.5037 115.615
20.7767 21.1842 28.3442
17.7548 22.976 33.7912
13.4871 23.1479 45.8923
12.4113 26.6417 97.9309
21.3654 10.208 1.93794
17.5368 36.0289 47.7026
10.9028 19.2775 32.8393
10.0523 3.94376 7.14556
7.29736 2.70662 18.2505
31.7827 21.6316 37.4735
16.4981 9.88294 28.2157
15.3921 28.5125 16.8192
5.7327 32.0027 80.0138
33.2743 14.1692 14.4683
21.3794 17.7545 27.8629
10.8652 9.98275 20.549
21.8679 35.9114 62.5595
18.8118 15.0318 28.4522
10.4447 2.77289 6.78715
12.1926 15.6781 44.9788
12.4569 12.3364 17.0546
8.23118 7.14447 16.2521
13.461 5.8846 12.8328
11.8214 9.33956 29.6709
6.89636 2.90754 3.72592
9.10746 4.88824 10.7109
12.0905 10.9464 23.3507
9.02408 32.1894 53.4146
13.36 12.7568 35.3175
13.184 4.5309 4.98566
10.2461 10.3988 18.5642
21.9358 17.1741 23.6044
6.14392 2.86871 9.56954
9.80708 27.4626 56.5095
21.8161 19.9528 44.2097
18.1843 16.5664 33.6398
7.27893 12.6281 29.6207
2.82437 16.7998 42.5505
31.4931 19.6294 14.0443
11.8197 14.8911 31.3939
6.27576 17.7477 27.2609
3.67337 15.4358 47.6972
9.93549 2.21238 10.2463
29.8243 32.5859 74.1597
11.275 41.9296 97.6948
31.1979 26.498 32.6561
10.5837 11.5368 30.2854
1.04876 10.0154 16.5653
14.0835 9.79973 20.8557
8.12241 10.4278 16.6273
7.783 10.2754 25.9637
8.30602 6.14025 25.7159
10.9892 8.32536 37.5875
17.8712 30.148 32.2946
10.4126 6.37274 14.2146
8.12243 7.44577 33.8158
5.93386 29.2134 65.7542
4.83575 16.2358 38.3867
15.4509 7.01579 3.23745
8.14025 5.56172 4.05304
15.4928 24.4988 71.2719
16.1728 30.0837 39.5952
6.08136 3.42928 11.084
4.1333 13.1291 45.4119
39.246 34.8129 55.5034
9.63692 24.227 62.2983
5.54456 17.4172 47.0985
18.2915 25.9722 25.6599
9.58529 13.0494 36.1621
8.83424 2.38182 10.3128
17.2163 19.0955 36.5503
9.70516 9.86413 31.6487
7.22109 15.6631 23.084
10.1104 14.1691 48.0183
11.3596 14.0226 15.4845
7.3385 8.08832 41.1242
29.3199 14.1337 4.78838
14.4957 11.0544 10.7133
24.1937 41.9909 90.1723
8.77627 8.24001 12.2466
16.8891 24.7343 39.5251
7.58976 24.0926 83.2478
3.40886 6.91048 58.249
9.88593 16.5463 9.61039
3.18637 4.32325 13.3805
11.0129 6.07701 20.3196
14.1177 17.8802 43.318
7.32191 4.70818 13.5261
4.32157 14.9572 24.1601
11.1142 8.42529 29.2375
10.647 13.9656 48.9312
1.13848 8.02519 7.71885
3.09464 39.3437 70.5506
15.1945 5.89862 25.3359
10.3655 26.9085 41.4903
7.26698 15.0041 45.2318
13.4876 20.5486 46.5474
17.5574 31.8654 81.6154
13.212 5.9588 27.7628
13.3386 11.4461 16.2476
11.7943 7.1135 10.4672
5.23681 14.4096 59.6099
18.6004 16.8921 17.8143
16.0289 11.4626 7.53408
15.7363 37.6656 70.3576
5.6289 7.47062 28.142
9.23794 18.5377 46.4268
18.0976 19.6934 61.8478
11.8151 14.0345 38.6107
3.01141 18.1018 46.1491
6.01208 6.58802 21.4399
6.12185 19.7273 28.8113
5.65938 28.2873 44.4808
6.21739 10.3006 27.6401
9.4018 24.1405 65.1217
15.9039 4.13644 3.68685
2.93816 14.7134 44.6246
12.5587 2.62742 14.2773
10.89 6.50638 19.5228
6.33 20.391 37.8436
17.1897 15.9641 40.3794
9.96016 4.54671 11.5498
3.36211 10.4887 14.3198
9.78256 9.9853 28.5426
6.05852 17.4951 28.3442
2.76463 4.16632 19.2594
8.57123 2.46133 16.943
2.26632 11.2396 24.8063
10.5798 10.7205 49.5968
7.14171 28.5444 42.1527
11.4786 7.2507 16.4379
1.29281 16.454 46.4142
14.8767 9.7966 19.2459
17.4502 15.1683 38.5453
3.47964 10.6235 22.9779
8.41565 12.7514 31.6156
3.833 1.51098 15.7984
7.17982 22.0895 52.5699
14.8182 7.41189 37.0576
12.8088 16.14 17.7351
5.3164 6.89838 49.6987
18.7552 14.8304 10.5361
8.50154 12.0861 31.5285
6.38269 6.30882 22.1151
10.7854 13.5271 26.6539
9.33983 14.0704 45.1789
10.0046 14.4482 32.9394
12.468 5.68444 11.0996
9.4173 7.13457 16.3267
11.3602 12.5378 29.0089
8.74787 10.6406 46.7243
8.2124 13.1866 38.9347
12.3361 8.51367 5.35507
9.38618 8.44697 23.5551
3.99653 2.09222 4.20877
0.85866 11.5784 29.2183
6.44171 9.34132 36.1871
20.4724 13.9075 15.413
5.18729 13.5894 55.0197
24.5163 20.9235 34.1064
7.20533 5.92532 52.1558
16.6882 26.173 44.1658
7.90906 11.8584 36.5436
5.95852 14.0939 23.6004
2.82267 9.4608 36.1626
15.4101 3.87031 15.602
20.648 30.3492 81.8585
1.69362 16.3729 81.4908
19.7104 8.96386 9.90211
21.2574 22.3201 19.4297
8.48493 16.6758 20.8461
5.77331 3.01338 2.94571
13.024 17.7312 22.3523
5.27117 10.0779 35.6759
11.024 19.7375 61.3348
4.18287 7.47886 19.4328
4.72584 2.38202 11.527
8.19196 1.50158 1.9036
7.27191 5.69627 24.3242
13.1404 22.5625 74.2626
6.42739 12.4301 8.55996
1.28377 8.72252 36.5004
12.6109 12.0936 47.0274
8.92559 23.3349 45.2724
14.3186 10.2859 27.1583
8.51532 7.71266 16.5552
6.9125 12.8564 52.9325
23.4284 35.4389 49.4843
12.2118 13.9511 49.6694
16.3353 13.414 11.4291
10.1417 20.2841 65.5463
1.09082 7.7256 66.8711
9.82696 14.5519 10.3061
3.13095 1.53561 11.7113
4.43691 19.7163 51.0361
12.3591 17.5986 33.4048
5.63928 5.95688 49.0786
12.9256 14.7221 13.4014
4.5893 6.50764 33.0236
10.026 16.2514 25.4733
4.88572 12.458 33.0193
2.57253 6.31669 60.756
20.4715 16.0936 17.0745
18.4598 26.9868 75.1737
2.52373 10.3744 14.8194
6.68235 3.28956 20.6325
15.7271 18.7997 34.1264
4.20478 13.7823 86.1473
9.24625 36.2606 100.767
9.64535 1.67575 17.4899
9.76447 11.8693 7.79057
2.64281 3.3928 13.8528
10.1263 18.1308 32.3855
4.11447 3.6234 17.2572
1.89766 17.4738 49.3363
10.9945 3.39774 22.3529
5.67563 16.9144 20.104
6.1996 7.6438 26.4711
8.40788 19.903 36.3134
6.67665 5.16012 20.5194
5.84162 1.81198 6.07136
3.03548 2.88171 7.8338
7.07988 3.75907 14.8579
6.64568 4.47143 20.0695
18.1451 16.624 12.0278
11.2047 27.7771 80.6189
2.28203 7.54056 73.771
8.4971 12.3717 11.7281
10.9986 9.00649 19.1189
2.51581 3.12431 15.8273
7.75964 8.43325 31.4938
8.09351 20.6806 94.3195
4.79398 13.389 8.79464
7.70178 9.68383 26.7563
0.580588 2.00913 18.0189
1.58309 15.9438 39.6439
9.08631 10.5324 47.4723
11.6657 10.1961 39.0846
14.0078 20.1892 27.3131
8.51367 13.5741 26.0389
4.38909 5.23776 37.2003
3.98327 9.38663 7.71158
3.3934 2.11876 6.68115
2.91398 7.93463 34.0852
2.43189 16.415 36.3514
8.54455 3.25827 24.9491
10.3769 7.00608 15.1423
5.78427 6.3615 18.0717
6.5622 16.6885 57.7573
1.92844 16.5385 53.1234
7.83715 8.90754 23.4991
4.915 9.36359 12.8032
6.91618 4.00936 10.4041
2.69208 2.11866 9.90226
0.719376 8.99807 28.7051
8.28601 10.9941 37.1182
12.4197 4.5298 5.88635
7.38887 4.22443 19.4571
3.84261 9.18883 39.2968
12.4278 9.28714 31.0339
15.0373 16.3936 15.7357
4.67649 9.80418 42.4611
9.11087 8.85638 12.432
9.875 14.3517 38.2283
2.97052 4.73755 29.5647
1.72844 3.60789 28.3907
0.674136 14.8101 64.1881
8.77918 12.1166 18.7419
3.8319 9.05554 15.6694
2.28596 4.7331 14.0814
6.86249 6.56955 15.037
7.06619 3.79233 9.5602
5.94259 9.60506 30.8684
3.37604 1.35982 23.0036
2.13019 16.3403 17.5564
8.00004 17.9914 58.3375
8.59155 4.64571 9.90063
4.66006 7.19434 31.4426
3.17247 6.53439 30.7311
7.52706 1.75945 9.17491
6.74982 15.5228 45.7248
7.04998 9.28965 36.1861
0.578808 1.8278 16.9615
1.48236 11.1518 19.4837
4.67302 4.41885 19.7815
4.5845 6.89319 21.1793
1.7259 2.00331 11.2342
3.79205 5.13209 1.07526
3.50952 12.4742 34.5762
8.30613 3.46007 6.57156
3.13586 3.99023 22.7197
2.53129 1.63852 13.7688
4.76374 15.3415 44.2284
7.00473 17.5213 63.0839
15.4772 10.1279 11.0794
2.25668 3.94764 17.3283
4.60169 15.5595 33.8456
3.26023 3.92651 14.1921
5.50565 6.87599 39.6099
12.7153 6.42527 20.7152
7.52492 17.4336 37.7659
3.80456 14.7563 53.7444
4.1976 5.99251 95.3386
11.563 41.7963 87.1895
18.5946 13.5416 16.879
5.4024 4.04361 10.9063
4.29007 4.58407 24.4067
0.600842 2.51939 21.8293
9.78367 25.4124 69.0627
5.5003 5.02391 10.6915
3.74785 5.15121 29.6325
1.17597 16.4651 34.0805
7.82289 3.17889 10.9251
6.85203 13.6052 54.6766
6.58214 11.5831 22.9261
3.33542 1.22741 18.9797
7.24548 3.70729 13.3823
1.22631 1.14743 14.8016
4.45496 8.4123 18.1799
6.19129 11.5108 36.7906
1.88099 8.81774 10.017
4.44015 8.01808 25.9871
3.56331 5.72322 15.2721
6.17823 3.44785 22.293
5.72169 2.26469 4.35574
4.41436 1.68152 17.0104
9.80784 7.95081 7.05396
3.36932 3.42168 26.1445
4.83412 25.6345 41.5934
2.36868 9.87546 62.7431
4.45692 15.423 60.1056
5.84017 4.20011 15.3997
5.34179 10.56 34.6991
6.97076 10.0241 22.859
10.2798 10.2366 51.7538
7.19421 10.2721 16.2062
6.54498 14.6604 39.2925
5.25352 2.25605 4.32813
5.81798 8.21912 32.6246
6.22415 1.95592 17.1534
5.79525 3.00997 18.9137
7.08685 9.41046 20.1332
1.84641 13.3616 38.5036
3.13836 3.66557 77.6015
7.0094 13.2887 31.3637
6.14388 16.8549 23.3498
5.09782 12.2996 19.0812
4.13467 1.64788 11.759
5.41364 11.1077 25.8851
3.16521 2.375 22.8279
7.59313 2.8533 4.53514
2.66481 1.43044 27.4113
7.78966 10.3544 13.8352
4.84598 13.7379 30.1586
10.3661 16.5606 42.234
2.3851 1.23479 4.80192
4.09557 2.88596 8.58491
5.88586 2.83359 3.2502
4.13487 2.43858 14.0751
3.42605 3.27894 5.19138
1.53833 6.75426 26.1216
4.78729 2.89532 10.1482
4.86844 2.25148 13.3899
3.68723 9.34032 37.0553
2.22415 5.71422 10.1497
4.27092 1.62039 9.74345
2.11296 6.52801 46.7424
2.50602 13.1767 26.8255
6.48689 20.6627 40.6376
4.62303 4.32269 21.1549
7.74443 6.01882 27.3636
8.53224 2.6157 13.1024
7.63189 17.9241 27.0477
6.06609 4.97142 24.0333
2.05939 9.33684 19.8161
5.57607 8.38958 56.1554
3.90498 19.3188 60.0486
10.6796 3.52067 3.37219
4.12731 0.465236 12.3683
8.67422 9.563 13.0376
1.1885 7.05532 22.3457
5.49708 1.73742 13.5284
8.65579 5.82415 10.0785
3.38041 3.49831 19.3181
0.480839 3.88436 19.9062
7.35343 6.63588 25.8611
4.77145 7.76993 14.9901
2.57621 2.19861 13.7287
2.37809 4.54186 25.5912
3.09655 14.661 56.5934
11.0345 12.8725 29.8864
3.0143 4.45601 11.7916
7.3081 9.11378 58.4095
1.96475 10.9261 16.3561
5.2228 3.97495 5.92367
1.52376 3.2492 5.85519
3.27462 2.91473 12.7118
6.58911 6.66576 20.231
0.614502 8.84063 23.5927
5.84655 1.02884 10.9865
1.92324 7.33936 21.6433
4.33068 2.40531 18.9543
2.06627 11.1557 13.3356
4.69767 3.02032 6.87966
4.18941 2.65459 6.76078
3.2656 6.85353 29.5703
2.53062 11.6306 62.9689
5.15881 1.84798 26.2011
4.42899 4.06837 14.2091
5.76559 2.31368 22.9405
4.32087 4.99846 8.98859
5.16076 8.85599 27.4482
8.08652 3.03244 7.64645
6.88035 11.6999 18.9475
2.26359 1.05929 9.36843
6.32706 7.46136 11.5673
1.98908 4.83019 64.4123
12.6252 21.6087 26.3531
1.62002 5.24517 21.7595
2.70971 11.0257 31.4275
8.55239 3.6083 24.1022
6.7733 5.01169 35.6744
2.89692 19.3644 48.3514
9.67778 8.77839 22.4921
3.22177 3.03065 11.1361
6.31248 1.95883 18.0542
7.82922 7.50539 22.1412
2.71245 6.93207 12.8764
2.6607 0.840118 9.1418
2.35885 7.04067 10.3551
3.47027 1.25335 15.4757
3.86764 6.91646 19.9358
3.3497 4.67411 14.2231
5.60249 3.65358 17.5911
5.27703 1.4113 11.3803
6.01286 2.50195 6.42267
2.21321 0.884697 15.1293
3.77617 12.7401 55.0919
13.0624 10.1241 4.70653
3.58183 3.57801 24.4511
9.03075 14.2249 47.4352
10.1098 8.17507 25.9344
9.67923 21.9171 52.3099
5.85136 7.72258 38.8385
8.94029 9.90529 30.2522
1.55612 2.09639 15.5292
3.75439 9.66149 49.9893
3.47429 1.68003 11.8472
1.86129 2.69936 15.2433
3.10319 3.6478 22.0252
6.85391 10.0952 16.1583
1.95844 4.8547 33.6567
8.37132 4.33119 21.5892
5.32418 3.04253 12.5146
7.11903 9.19369 40.4912
3.18905 1.64946 23.2723
5.54175 10.1246 30.5193
2.59185 10.8473 27.6782
5.69133 4.63809 10.8496
4.36152 0.180038 10.6161
6.09036 6.65289 14.7984
6.19587 7.672 34.9226
3.48037 4.66138 25.7789
6.1916 7.17187 22.7989
8.04785 20.0856 48.6894
4.62921 4.21343 45.2222
3.45488 7.58802 1.82721
3.39983 12.425 39.3695
1.86216 3.34165 11.196
3.03078 12.8164 75.5411
6.71715 13.4897 15.6401
5.12059 5.63136 17.2996
2.6951 5.68719 58.4725
2.63992 6.26601 11.9675
3.30746 5.07241 2.25259
3.63403 1.17714 2.12893
4.2381 7.69247 40.4463
0.530105 14.9142 29.9931
4.80972 4.20021 26.4337
8.5027 10.031 37.591
4.12247 2.33581 3.55306
2.94692 6.88102 21.0733
6.44775 8.13288 27.0871
6.75089 0.871812 13.1431
6.09078 6.20459 52.1632
8.0713 7.33205 12.3021
5.67218 15.8627 66.7103
1.66217 4.8169 7.0869
2.57511 6.05036 5.86462
3.75942 4.53379 10.6383
3.50141 3.9892 25.3557
5.22622 3.55554 16.3905
7.05339 2.67233 47.3316
11.9287 14.9983 29.8258
3.37828 11.2879 23.4945
1.42254 4.23828 22.7342
5.31635 2.75811 5.01931
2.15318 2.71527 21.8227
7.75143 4.20252 16.3069
7.19422 6.29323 4.61808
2.9167 3.83391 9.31868
3.24853 5.04814 41.0677
3.96214 6.68048 32.1381
2.05926 4.34631 19.8173
7.19204 11.5448 39.6658
1.33422 16.1601 82.6022
8.30042 16.7888 13.8883
3.641 1.99468 19.4229
3.73165 7.70045 38.3101
3.87051 4.70556 5.6489
4.45819 2.6389 5.66597
2.97521 1.8963 18.0887
4.23127 2.65659 4.10659
2.93519 6.15725 37.5851
4.1716 10.9167 24.5834
4.96824 3.42887 6.61731
3.98949 5.31866 21.2813
3.22034 5.42524 35.1187
10.3621 5.76442 26.8735
7.26516 9.26467 17.6227
1.82045 5.80845 13.6525
2.65489 2.93786 18.28
2.35722 2.27385 7.31872
3.61763 5.62673 21.0942
6.95066 6.03019 41.2276
5.13317 3.92506 1.30575
4.44729 5.62022 33.2793
3.57688 3.11023 14.4433
2.97538 3.43342 26.1339
3.86563 4.73226 8.48715
4.71651 2.24616 3.19239
2.13399 3.77364 17.2218
2.37927 1.88905 14.2044
6.04579 7.72574 24.957
5.69467 7.64435 15.1005
1.64801 6.33688 70.6992
8.20196 23.1101 29.2244
5.49182 8.85664 55.5985
5.48337 11.9008 32.0441
2.16002 3.9694 18.3107
3.05458 6.89815 11.3683
4.42478 2.89718 16.1188
5.71786 1.23062 11.7567
6.65711 7.55465 13.4965
2.36425 1.85603 22.4535
1.33892 4.79303 30.54
5.85544 0.907563 10.6096
3.26824 3.18286 4.84057
1.87489 4.5026 23.1142
8.66904 6.76555 53.3021
3.8142 26.1058 51.6358
6.13115 5.0967 20.7111
7.2794 3.82523 7.50253
4.44399 5.66734 25.5582
1.15988 2.98699 27.1056
2.74593 15.8012 67.8352
6.17384 7.40788 10.2371
1.83431 4.35914 18.3287
5.47702 2.03934 11.0464
1.92699 8.91136 28.9836
8.39116 5.13201 15.8727
1.32616 5.46784 15.9066
1.9173 6.79342 59.6057
6.18251 14.2174 38.2595
8.6649 2.91328 39.9787
11.3197 18.0411 43.491
3.11666 6.78588 40.162
0.881139 7.93905 16.8706
6.29694 20.4661 92.6129
7.45431 9.3496 35.252
7.86532 8.99161 15.6857
5.20297 16.855 75.3085
4.49303 13.0556 35.5405
1.88518 4.73308 16.1208
5.71435 8.02847 23.5348
4.11628 3.47428 13.5977
4.57034 2.73285 6.34743
2.69024 3.81597 8.52462
2.50504 7.17869 56.6541
3.01132 9.71654 16.0238
4.57188 7.80423 26.8646
4.37952 0.601261 7.33467
2.204 1.31262 37.5857
5.37068 11.1791 41.3735
3.44463 5.48033 5.27974
2.50223 2.70513 32.9733
6.28787 6.26187 36.2348
2.00562 4.70228 38.6055
2.92749 13.2721 8.7559
4.4616 9.01589 22.1101
2.91322 2.82402 12.7882
5.17772 3.70731 14.0404
1.1696 5.06032 10.0331
4.3012 3.59893 3.45124
3.39653 4.20249 26.8739
7.22367 5.00083 24.6471
4.34257 1.41718 15.6254
6.13653 7.19572 2.57443
3.28205 3.65367 4.47137
1.79475 1.84338 5.49237
3.33082 5.66953 28.116
3.94355 4.72114 38.9335
0.921063 7.85879 10.8783
3.80042 6.61662 27.3506
4.62527 0.953191 4.32655
3.46502 3.39508 30.8586
5.28067 7.30775 11.08
4.29485 2.82767 16.0878
4.57285 1.48174 13.4026
1.44554 6.90664 5.62911
3.09735 8.27952 61.6047
12.3061 7.17311 27.1219
3.2793 14.2748 40.6537
8.53462 2.22359 7.40428
6.00386 7.57975 27.6668
2.32571 3.04218 27.9188
4.18293 2.9892 6.02071
3.715 4.17157 14.1046
3.0493 6.76974 51.7501
10.5277 3.72492 8.64418
5.31018 10.5147 14.7488
4.0107 12.1108 71.815
3.21378 7.18104 14.1846
1.18806 4.89729 10.7392
5.10139 2.22815 21.8351
3.30068 6.67993 14.6061
5.12619 4.96253 13.5413
5.5975 3.17428 34.7292
4.40335 6.91264 29.0081
9.19749 6.78896 15.7202
3.99786 8.38853 19.0135
4.75247 7.45507 36.2952
2.2271 3.75825 27.1705
5.35556 10.9521 39.697
2.79345 2.32769 2.87382
4.03975 2.93979 25.3651
0.300986 4.03153 23.1302
3.01373 5.13856 9.32841
4.88076 4.4843 24.0641
8.31014 8.33193 47.0642
4.66436 14.4357 32.8993
3.90716 3.3617 15.9701
1.0727 5.58801 10.5
3.18311 2.92821 22.0451
2.06978 7.83677 20.0594
5.66224 5.48219 19.1167
1.30129 9.99751 31.5182
6.64064 8.62386 51.7557
4.87224 2.10278 20.5811
5.1292 10.3795 15.5495
3.41041 2.09993 31.1584
8.2464 10.2851 11.7917
2.55335 2.99349 19.3961
5.75033 2.75743 35.5865
5.83443 4.50639 9.60937
2.03556 9.47639 45.1843
3.34144 1.82208 18.3771
1.0719 9.09813 12.0683
4.69812 2.41008 10.0312
4.00302 0.593022 7.83457
4.05532 1.36623 17.3605
5.1875 4.39982 7.9888
1.25872 1.78497 5.22441
3.56693 4.94609 11.7792
2.32667 4.72913 21.3076
5.33695 2.98483 9.77583
4.50675 10.8084 53.9117
8.64809 5.08354 5.49898
2.06509 1.41712 15.8909
6.00432 0.811438 10.3479
5.17811 5.25329 12.9893
4.3346 2.52677 11.6427
3.89205 5.50418 1.8426
1.94711 2.97034 9.84168
2.65175 8.43059 20.7677
4.02984 3.11812 14.746
3.08997 6.30952 30.0658
7.19043 2.41072 9.06488
4.13811 1.5013 3.06688
2.31651 0.28987 8.08927
4.68586 6.28064 53.6428
3.95097 16.0431 41.4375
6.08668 1.48246 28.373
6.16218 10.0544 19.659
3.18453 5.56278 15.3255
1.66771 7.65159 24.504
3.04848 2.48381 15.6467
6.90986 6.32505 21.1539
3.62959 3.70073 10.3682
0.793688 3.53457 40.4826
3.60008 4.56487 45.9805
7.59205 15.0738 39.1459
2.74879 8.48631 26.4655
1.14924 8.83574 13.7998
5.39555 2.52314 24.5117
6.45899 5.78102 10.3226
1.96364 4.49642 32.5666
4.68724 4.30547 3.32983
1.70189 3.12451 21.6691
1.15785 4.1762 7.98514
2.47563 3.9916 9.66346
5.29278 3.45803 24.3287
5.38591 2.33497 6.21617
4.11113 3.44934 21.8373
6.2232 7.22574 24.4603
4.8124 4.65326 17.4763
2.7606 6.70134 15.7408
0.823919 4.45101 14.8379
4.19409 1.69483 15.9771
4.06191 2.83189 6.28645
3.13908 5.86899 25.429
1.82226 1.40487 28.3978
3.76133 7.51955 12.8199
5.12753 2.05411 11.3389
2.69722 4.34502 7.1611
2.65601 4.91244 13.956
4.76731 0.262761 22.6862
3.52388 4.97237 1.53611
3.46501 2.04231 26.2944
6.1532 19.5876 17.9172
3.871 7.58462 67.5748
9.17783 1.88508 7.90182
3.78593 2.89667 17.7609
6.84671 6.5694 27.4349
5.60926 11.6054 30.7526
3.93015 8.78357 40.0011
5.55832 6.47538 21.8742
1.94171 2.12729 25.3139
0.741477 14.5345 49.5056
4.08092 2.16762 33.7007
4.95194 8.13383 14.0988
4.44051 6.93331 22.5882
5.4513 0.966538 16.5431
4.05135 7.05131 38.6136
9.0532 2.43217 6.6911
4.821 9.47685 38.737
1.35618 5.17487 27.6516
5.99925 4.18366 44.893
10.6006 7.08512 7.84042
5.411 13.1213 21.4196
1.58413 3.43335 13.7519
3.49065 3.0282 18.984
3.15004 4.30048 8.47363
2.48647 5.50892 20.9466
1.43507 4.99289 43.0192
1.18921 12.2782 45.1813
0.737228 0 0