# pn-170911/CsIIA-33-CsIIA-1280-1959.psd
# Power spectrum* (dif=0,1,2) (really just |FT|^2)
# NOTE: only the first half! (symmetric)
# weeks: 1280-1959
# 2725 clock-days, 649 excluded
# PSD: 1441
69531.1 2.52031 0.0679856
3.66133e+06 54.7627 0.036563
2.00244e+07 426.532 0.0443526
2.95071e+06 109.13 0.0386924
2.15944e+06 146.315 0.0462573
1.06101e+06 106.067 0.0477955
776764 107.781 0.0544332
543820 103.927 0.0590607
421255 103.991 0.0675617
336472 104.485 0.0762027
274451 105.799 0.0863392
217358 101.73 0.0939055
190645 105.981 0.106868
160268 103.013 0.117635
139477 105.355 0.134838
122040 105.144 0.151112
104732 103.591 0.161375
91555.6 103.003 0.177786
82551.2 101.233 0.193863
74372.8 104.211 0.212798
65915.3 103.885 0.232606
60901 103.306 0.254496
57008.7 105.666 0.279799
50015.1 100.339 0.287502
45860.3 102.024 0.314683
42214.4 100.723 0.334676
38467.2 100.62 0.358849
37843.3 105.006 0.401125
34050.8 101.02 0.410827
31688.7 103.568 0.446306
29628.4 103.2 0.478509
28261.1 105.001 0.512252
26376.8 102.633 0.536373
24597.3 103.964 0.571225
22931.9 100.779 0.580423
22747.6 106.332 0.651474
20701.4 102.729 0.668044
19821.3 105.616 0.732508
18357.8 102.242 0.741596
18310.4 105.767 0.794098
16690.1 103.787 0.823273
15868.9 103.817 0.871052
15377.8 104.15 0.911729
14905.3 105.014 0.955774
14375.3 104.453 0.988081
13589.4 105.223 1.04397
12541.8 101.495 1.05976
12473.3 102.991 1.11775
11622.3 102.898 1.1664
11429.5 105.273 1.24434
10488.4 100.062 1.2167
10471 103.723 1.32751
10022.4 103.212 1.35633
9303.14 102.781 1.40761
9035.91 103.123 1.47655
8750.38 100.094 1.47158
8488.04 100.439 1.52855
8173.46 101.449 1.59225
7812.59 100.168 1.64622
7531.08 101.547 1.71735
7363.1 101.988 1.77425
7037.35 101.451 1.84029
7232.74 104.081 1.9256
6566.71 100.634 1.93157
6658.09 101.834 2.01724
6340.08 102.551 2.09507
5957.52 98.4784 2.07427
6065.47 103.529 2.24075
5786.99 101.222 2.27015
5641.04 102.146 2.34008
5298.19 97.9736 2.31304
5247.18 101.836 2.46916
4995.17 98.5269 2.46589
4945.05 100.82 2.59473
4663.99 97.2878 2.56047
4859.21 102.982 2.80503
4613.87 102.349 2.84009
4476.18 102.677 2.91781
4409.31 101.978 2.9738
4192.88 98.7627 2.94369
4068.54 99.4386 3.05197
3975.9 98.8327 3.1329
3924.28 101.829 3.26927
3899.06 102.325 3.3767
3841.19 101.596 3.44164
3705.51 103.648 3.597
3598.8 101.055 3.57014
3520.71 99.9281 3.60601
3394.82 100.412 3.71935
3354.54 100.839 3.82346
3295 101.961 3.95741
3289.83 102.147 4.05309
3146.26 100.054 4.03293
2987.56 97.3843 4.03797
3067.26 101.852 4.28492
2916.71 99.7344 4.3038
2890.62 100.633 4.43228
2822.17 101.631 4.5722
2744.77 99.2161 4.54968
2616.64 97.8226 4.57953
2520.13 96.0466 4.60065
2539.96 97.6437 4.75611
2465.74 95.877 4.74826
2454.66 98.7969 4.99885
2453.93 97.7859 5.05184
2271.7 94.2931 4.95238
2255.21 98.257 5.27073
2277.1 100.688 5.46636
2219.95 98.0422 5.44274
2203.55 97.7448 5.53507
2139.11 97.8359 5.62421
2109.28 98.7474 5.79068
2019.29 97.0645 5.794
2067.82 99.4357 6.05932
1986.1 98.3436 6.06211
1971.02 99.1019 6.22422
1923.5 97.261 6.26407
1893.91 98.2459 6.41349
1896.6 98.5502 6.50813
1789.08 95.8684 6.46081
1758.17 95.0039 6.49861
1772.37 95.3708 6.65201
1691.35 97.353 6.9118
1754.52 99.1156 7.08626
1638.75 96.5642 7.05353
1604.33 95.0086 7.05878
1666.49 99.8626 7.55376
1604.81 98.1536 7.53287
1546.93 94.4484 7.32533
1515.73 95.9987 7.56192
1529.62 95.0835 7.64868
1525.36 99.5941 8.1573
1482.32 95.0415 7.84286
1403.75 95.5335 8.03736
1395.48 95.4748 8.14129
1412.31 96.9808 8.39196
1364.83 94.5183 8.28186
1343.63 94.9905 8.47111
1322.57 94.0815 8.48173
1302.02 93.2734 8.52105
1299.48 95.7784 8.85581
1317.84 100.091 9.43981
1296.25 97.8049 9.38123
1251.41 95.0797 9.23077
1238.3 97.1398 9.52603
1207.74 96.836 9.64294
1199.86 95.9757 9.67657
1169.17 96.8706 9.94104
1170.31 95.0191 9.82816
1172.51 96.2582 10.0994
1090.71 91.2749 9.70507
1088.9 92.7449 10.0541
1093.37 93.703 10.2229
1088.16 94.9569 10.5298
1068.97 93.3328 10.4137
1043.68 93.934 10.7125
1051.77 95.2765 10.9926
1009.74 92.3554 10.7845
1000.87 91.8006 10.8463
1018.47 94.882 11.3111
1010.9 95.4198 11.5332
989.817 95.9403 11.6569
970.825 96.8667 11.9607
937.271 92.3174 11.6854
969.25 95.6507 12.162
924.575 92.4108 11.9241
905.238 91.6144 11.9515
892.87 94.6049 12.4669
899.1 95.563 12.6677
898.392 96.0719 12.9999
862.923 93.9873 12.7162
813.322 89.1202 12.2859
843.175 93.5649 13.0314
825.115 93.2173 13.1479
825.456 92.8896 13.2397
789.148 90.1449 13.078
795.065 93.0716 13.6046
782.945 90.7817 13.4363
763.473 90.9297 13.6318
787.837 95.6226 14.3058
728.36 86.6701 13.27
755.453 92.4274 14.2146
727.665 89.9625 13.9882
736.427 90.7929 14.3253
713.254 89.2928 14.1796
700.734 89.5397 14.4653
704.74 91.0983 14.8224
714.235 93.4899 15.4574
699.679 90.3886 14.942
705.873 89.5939 15.0633
690.184 91.3363 15.4831
661.534 87.6061 15.1407
689.219 92.094 15.9327
660.004 88.3703 15.5083
663.931 93.0477 16.3757
642.298 89.8111 15.9859
616.223 86.5961 15.4929
612.782 90.0741 16.4159
622.848 88.8721 16.4747
609.222 88.4973 16.5259
630.203 90.8357 16.9137
606.491 89.888 16.9945
582.885 88.0088 16.8158
591.429 87.5273 16.9837
578.879 88.7864 17.4264
564.903 88.7176 17.3011
551.831 87.06 17.3503
563.183 88.6955 17.8586
555.605 88.3366 17.9755
556.671 89.4835 18.2645
560.554 90.9917 18.7574
545.873 87.5844 18.2997
528.985 87.5457 18.4257
541.152 88.9687 18.983
533.192 89.863 19.2308
514.302 88.7194 19.156
522.626 88.1164 19.3047
512.972 88.2638 19.4254
497.336 86.1972 19.2916
501.963 87.4649 19.7715
510.447 88.7262 19.8403
497.471 88.9914 20.2483
490.326 88.3709 20.2536
473.442 84.7902 19.8117
484.531 87.6837 20.6432
474.202 85.7862 20.242
453.205 84.2475 20.1752
460.421 87.829 21.0569
442.454 82.8519 20.3303
452.556 86.5199 21.1638
456.608 85.3733 21.1446
457.355 87.3704 21.8037
432.599 84.0644 21.0258
432.281 86.9014 21.9109
418.956 83.8543 21.5459
431.204 85.3243 22.0043
445.478 90.1974 23.4591
442.051 89.0532 23.2091
424.278 84.2472 22.2978
424.875 87.1167 23.1814
412.699 84.8988 22.8235
405.456 84.7836 22.5528
409.853 86.5785 23.7729
414.523 88.9193 24.6428
406.075 88.084 24.3525
396.316 85.4141 23.6764
380.401 84.4477 23.812
385.003 84.0265 23.8183
395.542 86.3661 24.7134
380.108 84.4698 24.2449
370.473 82.2775 24.0432
369.659 83.2394 24.3449
369.181 82.1339 24.068
357.912 83.4444 24.9409
362.47 85.8259 25.7146
357.561 83.9056 25.4892
350.186 82.7146 25.2326
350.961 83.5409 25.6425
345.006 80.8771 24.804
340.573 82.788 25.8717
334.005 81.0301 25.4269
327.97 78.8867 25.0195
336.229 82.2138 26.2127
342.409 84.7086 27.1203
349.4 84.8199 27.3197
329.118 81.838 26.7056
316.783 82.1681 26.8481
324.366 83.4531 27.5143
325.899 82.3194 27.1947
303.47 80.8267 26.9573
319.018 82.783 28.0476
312.677 81.2319 27.8055
311.559 83.1156 28.3206
312.89 81.7432 28.2976
300.92 80.9796 28.0597
305.436 81.4891 28.8243
301.081 80.1259 28.19
306.242 81.5928 28.8067
299.643 81.1363 28.8366
296.652 82.6379 30.0865
300.782 84.0957 30.2216
292.698 81.0698 29.5993
286.342 80.0499 29.3892
267.976 77.2544 28.7354
285.803 82.5018 30.2129
272.979 81.0081 30.5385
279.754 81.3058 30.4329
277.461 81.2015 30.8454
278.043 81.8047 31.304
269.246 79.1173 30.2172
270.923 80.2579 31.3973
265.464 80.8769 31.3785
259.491 78.0734 30.6097
265.563 80.6363 32.1894
263.964 78.5472 31.2703
260.043 79.5694 31.8639
261.84 80.5188 32.2279
259.869 80.4148 32.6511
249.932 76.8286 31.2084
252.177 77.9279 32.3875
260.721 80.0949 32.8833
255.896 80.4573 33.4657
242.074 76.4388 32.0392
242.493 79.7261 33.5945
241.812 77.6581 32.8724
227.15 75.45 32.2076
240.928 77.1939 33.3071
231.59 76.0715 32.8589
233.5 77.8429 33.8516
229.166 75.8689 33.159
233.961 75.9049 33.4477
227.843 76.7742 34.1028
225.738 75.8398 34.0374
226.392 75.8932 34.0533
224.313 75.7726 33.8559
223.013 75.7759 34.5759
221.625 77.5111 35.3297
218.126 75.6266 34.7295
222.147 77.3406 35.779
209.048 72.4477 33.6831
211.314 73.0922 34.3397
207.415 74.5217 35.4583
216.583 77.6385 36.5242
212.284 76.1307 36.295
218.584 79.8139 37.9538
208.636 75.8809 36.7215
209.232 75.0117 36.0203
199.14 73.7451 36.243
208.941 77.0741 38.0491
204.859 75.0954 36.9907
199.954 75.8152 37.6813
197.264 75.7758 37.9679
194.443 75.0455 37.5716
196.327 74.9652 37.4927
196.444 74.1784 37.5667
193.675 74.7905 38.5478
188.093 72.6945 37.4903
192.428 74.2044 38.1195
187.917 74.4915 39.0069
187.794 72.5248 37.8622
187.033 72.5202 38.0713
187.322 74.2818 39.829
186.083 75.252 39.8108
189.475 75.8917 40.5221
190.088 75.4661 40.4493
175.531 71.8858 38.6243
176.108 71.0811 38.8589
184.28 74.295 40.5119
179.285 71.188 39.2031
176.627 73.0953 40.6587
179.843 72.7683 39.9507
172.163 70.8415 39.7369
176.117 72.7857 41.1863
176.855 75.0437 42.1058
168.317 70.8348 40.3841
172.842 74.2098 42.4591
171.159 71.6602 41.0949
166.169 72.9949 41.7636
161.114 69.8675 40.8496
164.471 70.1763 40.601
169.314 73.3017 42.8431
161.383 71.4614 42.2595
161.528 71.5085 42.0032
161.086 72.5436 43.2377
163.046 69.8043 42.1339
162.443 71.3319 42.8357
158.234 71.1191 43.3643
154.852 69.4604 41.8236
153.68 70.675 43.4746
158.938 72.6612 44.2024
153.346 68.9472 42.354
152.55 70.4283 43.5887
156.237 73.6388 46.108
152.053 69.851 43.92
155.241 70.6701 45.1019
149.761 68.9295 43.5816
151.107 71.6265 45.1648
150.292 70.1282 44.3245
143.875 67.9391 44.0339
142.774 67.4933 43.866
146.961 69.2429 44.8034
140.825 66.6689 43.7539
140.817 66.9397 43.6515
140.988 68.4745 45.0968
135.46 65.9039 43.7888
140.208 68.4056 45.3528
140.841 69.9684 46.7222
136.985 67.0113 44.8593
137.172 65.6954 44.1717
132.914 68.6615 47.2424
139.734 68.2779 46.5035
136.004 67.1712 46.1812
137.763 69.7654 47.961
134.428 68.4515 47.6552
136.479 66.4346 45.6955
132.262 68.6742 47.8938
131.963 68.1749 47.8966
135.301 69.3725 48.567
129.513 66.4697 47.6405
130.271 68.1433 47.8443
129.672 67.6435 48.1616
128.31 67.3534 48.549
125.863 67.4414 49.1472
124.566 62.7741 45.3092
128.01 69.3537 51.1811
123.427 65.0445 47.2895
123.603 65.3741 47.3322
123.573 67.5442 50.5082
124.665 66.6199 49.1375
123.488 64.5039 48.0612
123.927 67.0744 49.7651
119.612 65.2754 48.9051
119.72 64.8461 49.1066
121.202 66.1336 50.5754
121.044 66.2931 50.1686
116.682 64.7195 49.441
114.21 64.2519 49.5506
114.325 63.9434 49.6144
114.713 63.6427 49.6245
117.487 65.3364 51.4976
117.597 64.3524 49.614
117.262 66.8166 52.9361
112.334 63.2012 49.849
109.563 62.9524 49.5925
110.533 64.3147 50.6722
113.322 65.5864 52.3911
111.632 64.6799 51.8365
111.828 64.6927 52.3467
108.789 64.0447 51.9684
110.696 65.1703 53.2912
107.112 62.793 51.243
108.555 64.1259 52.8791
106.756 64.6231 53.4541
107.532 65.079 53.8758
105.659 62.6465 51.8877
107.496 65.1978 54.7729
108.938 64.2399 53.394
104.687 63.653 53.3299
101.97 63.7812 54.1705
103.226 64.2522 54.9054
101.92 61.7119 52.454
100.879 62.8685 54.1729
102.374 62.7183 53.4312
98.5199 62.2972 54.4145
99.694 60.8551 52.3709
96.5673 61.9393 54.0346
99.2493 62.2418 53.6516
100.278 61.8275 54.8373
97.2377 61.8266 54.6809
94.9194 60.5345 54.4539
99.8285 63.7439 56.2415
92.9887 58.0003 51.7093
94.8131 61.8147 56.1404
96.7232 60.8187 54.0611
95.8302 60.617 54.8475
97.7652 62.9157 57.8585
95.4721 61.401 55.7732
97.9013 62.228 56.1068
94.3906 62.0757 57.6303
96.3541 61.8047 56.1219
92.541 62.4144 58.1192
90.9041 60.6458 56.4763
90.4998 59.8293 55.9281
91.9531 59.5489 55.3554
92.3586 61.7709 58.1197
86.9424 58.8596 55.9593
91.1993 59.7802 56.2462
89.6524 59.7997 56.3233
86.955 60.1589 57.8597
85.3252 58.4222 56.8038
86.6941 58.8306 56.6884
89.935 62.3927 60.4939
87.7302 58.621 56.4659
86.5038 58.8842 56.9931
86.1811 58.4918 57.1949
84.9638 59.2626 57.8781
82.6563 56.5856 56.2774
85.6281 59.6361 58.4817
84.1058 60.1176 59.898
86.2149 60.7256 61.058
87.1371 60.2408 59.3702
84.2677 58.3144 59.2691
84.9844 58.708 59.5825
82.4902 57.9171 58.6768
84.2459 59.9152 60.3644
81.685 58.1537 58.7105
76.2445 56.0275 57.8203
79.8436 57.5034 58.4412
79.3258 57.7037 60.0519
81.5313 57.8936 59.9944
79.5098 59.4217 62.1831
80.3439 57.0201 59.2525
79.3942 57.413 60.3453
78.5535 57.1986 59.366
76.5539 55.7836 58.556
77.0658 55.6468 58.5486
76.5522 57.0562 60.3711
77.8368 57.5889 61.6105
76.8597 56.6952 60.4645
74.7318 56.6306 60.8604
76.4807 57.4624 61.4555
74.5142 55.2163 59.869
74.77 57.3419 61.8799
73.6292 56.3843 62.0091
75.6179 57.2292 61.2144
74.759 56.7788 62.6355
73.8175 57.1254 63.4897
74.8354 57.5526 63.2778
71.7068 53.9993 59.3998
70.9134 54.5371 61.2802
71.2957 55.0767 61.5897
72.1012 56.9721 64.2205
71.8644 55.7078 61.9096
70.4588 55.6658 62.5546
71.2499 54.9511 62.5861
68.2244 53.5612 61.7924
72.8261 56.0611 63.3593
70.8732 55.1221 62.5755
67.5995 53.3973 62.0135
69.7286 56.0199 63.7495
69.1935 55.6815 64.6562
68.9725 54.6975 63.3517
70.7528 56.6478 66.4898
69.3809 56.558 64.6747
65.1765 52.6795 61.5879
67.7857 55.822 65.5287
65.4509 53.8898 64.1117
67.4765 55.0497 64.576
67.3527 54.8068 64.9734
68.3765 55.8579 66.7763
66.266 53.7476 63.8832
64.0639 53.2908 64.4281
67.3853 55.3284 66.1017
64.3517 54.0849 64.958
65.4915 53.2595 64.1424
63.0379 52.393 63.8153
65.0232 52.948 64.3667
64.7517 54.7041 67.0826
64.2072 54.5548 67.2886
64.0658 54.6466 68.0913
64.122 54.5718 66.6173
62.4453 53.8426 67.9074
63.4914 53.9075 66.2969
60.9786 52.2033 64.4706
62.6396 53.7471 67.1308
62.2484 52.9443 66.5646
60.8495 51.347 64.8264
61.576 54.1236 68.9186
63.7998 54.4051 68.3116
60.3299 53.0743 67.4887
62.0144 53.5053 68.8571
63.578 54.7423 69.5712
61.6509 54.5488 71.2391
59.9965 49.3063 62.9152
60.0348 51.998 66.4568
59.0071 52.7125 67.365
57.0125 51.9515 68.2231
58.3708 50.9506 66.3604
59.0527 52.9272 70.0686
59.1477 52.2158 67.7751
59.7181 52.7707 69.1627
58.2226 50.3946 67.711
57.2888 52.1916 67.8806
57.082 51.7167 70.4222
57.1637 52.3422 69.5418
55.7432 51.4496 68.24
58.3285 51.5952 69.2963
56.7534 51.466 70.011
56.4276 50.4461 67.1474
56.4334 50.648 68.603
55.9199 50.8822 68.8002
56.6225 50.925 69.123
57.6259 52.1214 69.9551
53.6789 50.9071 69.9365
55.7735 50.3965 69.1118
54.1742 49.5233 68.6513
54.3443 50.3398 69.9363
52.9087 49.8812 69.3489
53.8138 49.687 70.1156
55.0494 51.6899 70.6475
51.8281 49.4843 70.2846
54.4247 50.9081 70.9535
54.4072 51.8582 72.0651
51.9938 50.5434 71.1305
53.3747 50.3785 71.8474
53.6704 50.1727 72.0047
52.7503 48.8222 68.6997
51.7758 49.1268 70.0209
51.6879 49.6639 71.5357
49.9788 48.4049 69.5382
50.8945 49.238 70.5241
49.8322 47.4531 68.6748
50.0931 48.4222 70.1746
51.9647 49.8811 72.0427
52.2708 49.4244 72.5952
51.1972 49.3595 71.4491
51.0469 49.8161 73.3078
48.6148 47.7216 71.0041
50.0442 48.6168 72.932
49.5608 47.8256 71.0728
48.9204 47.7848 70.7255
49.5844 47.5547 69.6233
48.5073 47.8139 70.3661
48.6284 47.376 70.3923
48.3639 47.2737 70.2808
49.2196 48.2922 73.0019
48.0261 48.8576 74.3646
47.5179 46.5024 71.4213
46.4183 47.5588 73.0265
47.3759 46.2246 69.1109
48.6708 49.1431 74.0496
45.4893 46.0006 70.8512
46.7666 47.5118 72.916
47.4953 47.2305 73.0823
48.0482 48.0175 73.3655
46.0841 47.0541 72.505
46.959 47.7383 73.1957
45.1915 45.3076 71.5493
45.1212 45.4109 70.9039
46.0997 45.5984 69.8548
45.9843 48.4987 76.1246
44.6523 45.5792 71.9531
44.4797 45.3653 72.1825
44.9341 46.9251 74.6576
44.5401 46.2332 72.9903
45.6486 46.8661 74.1342
46.2383 47.4589 74.6632
43.741 45.119 72.4278
44.3075 47.5032 76.447
44.7692 46.7243 75.4425
44.953 46.8089 75.5945
44.7312 46.0722 73.5399
45.5419 49.4617 78.9318
42.2369 45.237 73.6076
42.2815 43.8507 71.656
42.8955 45.1557 73.7267
42.1285 44.0189 71.2935
42.6899 44.4024 73.1566
43.3998 46.0723 76.3081
42.7249 44.9117 73.4372
43.1636 45.0807 74.2751
42.7129 45.713 75.3479
40.746 43.1509 73.9081
43.6171 48.6022 79.4491
41.8855 44.3609 74.5951
41.5713 45.6921 77.2391
42.9986 46.0573 77.1529
42.8963 46.0976 76.3754
40.5588 44.3041 74.0952
41.0486 45.6419 78.3673
41.0279 44.6698 74.8543
40.7054 45.0151 76.4636
40.432 43.8434 74.8154
40.9482 45.3237 76.7135
40.0056 44.4039 76.6757
39.5244 43.4221 75.6094
40.9047 45.1123 76.1601
39.4775 43.2237 74.7295
39.4608 43.8588 76.2075
39.049 42.3307 74.748
39.373 43.4196 73.6032
38.8733 43.8847 76.0165
37.98 42.5799 76.0268
39.3899 44.8381 78.3854
39.0528 43.3187 75.0769
39.7704 44.5872 79.4649
39.5743 44.2289 77.9445
38.4564 43.8915 77.3669
38.3282 44.3355 79.8086
38.5139 43.4051 77.4438
38.944 42.9672 75.9029
38.3487 43.9862 77.6328
37.2954 41.9393 76.3406
37.7031 41.6968 73.6054
36.5128 42.7228 76.5413
38.9134 44.3234 81.7621
38.2337 43.708 78.2125
37.2176 43.0888 78.2962
36.6849 42.3706 78.1124
37.2768 42.8823 77.5374
36.5629 43.0232 78.7056
37.4333 43.1756 79.4281
37.4104 43.813 79.6074
37.0059 43.2168 79.0101
36.2087 42.0092 77.8663
37.2181 42.279 77.488
36.6257 42.291 77.928
35.8518 42.3631 77.799
36.2681 41.7935 77.6045
35.2691 41.0231 76.6751
36.3252 42.4585 79.8187
34.9838 41.2356 76.6869
35.4563 41.9173 78.0038
35.2444 41.8805 78.9691
34.2213 41.7739 79.375
35.1251 40.6216 78.2918
34.4497 40.7365 77.8204
35.5444 42.0287 79.3956
34.6381 41.9378 78.614
33.7434 40.4021 78.3682
34.8986 41.4031 78.7896
33.5459 40.6189 77.9173
33.7309 39.8109 77.8049
34.2769 41.021 80.2796
35.1139 41.5446 78.6799
33.919 39.3287 75.453
34.0375 42.2177 82.674
34.5374 40.9423 78.204
33.1528 41.1255 80.3107
32.9629 40.4715 77.6206
33.7132 40.9013 81.4069
32.5048 39.8109 78.9442
33.832 40.8165 80.2802
33.7818 40.9803 81.4102
33.2119 41.6418 80.6347
33.5688 40.1171 79.6235
33.0864 39.9988 79.0187
31.7148 38.6185 76.2924
32.3802 40.113 79.8075
32.4918 39.028 78.358
32.1248 39.6642 81.1387
32.5167 40.0635 80.274
32.759 40.6325 81.1232
32.6811 40.066 81.7723
32.189 40.0273 79.9532
32.0366 40.9509 80.1824
31.2006 38.6763 78.7173
31.0089 39.4093 78.8131
31.174 38.7757 80.0408
32.4452 39.5916 81.5074
31.3873 39.2315 80.0368
31.2101 36.9747 77.5361
32.2331 40.3512 80.3487
30.8748 39.0537 81.4022
31.7518 40.9169 82.4144
30.5723 39.0485 82.7048
32.0909 40.1328 82.9088
31.4827 38.7292 79.6721
30.2409 39.1499 81.7725
30.5131 38.7314 77.442
29.6891 39.1263 80.5631
29.5331 38.4303 81.3798
29.9211 38.4558 81.0888
29.2702 37.607 80.0142
29.7226 38.2823 80.8099
30.2753 36.8228 77.9241
29.305 37.5374 77.9132
29.8568 38.118 81.0494
29.6356 38.8495 81.4763
29.0855 37.0962 80.7024
30.0946 38.5153 81.9121
29.0372 38.618 82.1574
29.49 37.8068 80.2519
29.1978 37.8902 80.8326
29.3839 38.2711 83.0524
29.689 39.0028 81.1431
27.65 36.8561 82.8284
29.7307 38.6294 82.6331
28.2336 37.2133 81.161
28.6874 37.2691 80.0097
28.8005 36.7839 81.0284
28.8064 37.4104 82.9515
28.6359 37.5521 82.524
28.9352 38.0893 81.4555
28.1047 37.4157 82.5433
28.2003 36.757 81.5232
29.1024 37.9244 82.3158
28.1749 37.7963 82.2814
27.431 36.7013 82.257
28.3485 37.1806 83.3078
27.6621 35.2417 78.7106
27.9654 35.9496 78.9427
28.3557 38.115 85.1347
27.9311 36.5384 80.8606
27.022 36.8349 82.3116
27.2836 36.6947 80.4516
26.9083 36.9756 82.9404
27.258 37.1394 84.3144
27.6117 37.223 83.1524
26.7846 37.6791 84.9116
27.1528 37.2204 84.9378
27.3073 36.5435 82.4444
27.2597 36.5298 82.9738
27.1668 35.9839 81.0121
26.8978 37.0559 85.0223
27.4122 35.1561 80.9792
26.4803 36.5371 83.117
26.577 36.0539 81.554
26.514 35.1691 81.0664
26.9805 37.0783 85.3627
25.3598 35.235 81.9583
26.226 36.1863 81.7604
25.8734 34.5302 81.7266
25.6526 35.5211 82.3752
25.9918 34.8526 80.7156
25.7617 36.4953 83.983
25.3596 36.4151 85.4036
25.7624 35.2009 82.6113
25.7905 35.1222 82.5299
25.9574 34.972 80.5983
25.8283 35.3094 83.5191
26.3913 35.5424 83.281
25.7885 35.6691 84.7792
25.8151 34.6843 81.6229
25.5465 35.9477 84.6413
25.9858 35.4481 83.5672
25.5625 35.6699 83.2944
24.9453 35.7168 85.266
25.419 35.3233 84.4334
25.1667 33.9496 82.6026
25.631 35.0705 81.0912
24.5074 34.2382 83.3104
24.8105 34.5143 83.0193
25.5726 34.4366 84.2242
25.294 34.2717 82.4115
25.5177 33.7177 80.4093
24.22 34.6237 84.2558
24.4161 33.3327 81.6986
24.2749 33.6829 81.6621
24.9516 35.572 86.0548
24.7759 34.9176 84.3986
24.6731 34.2549 84.9688
25.1671 34.9759 83.3321
23.2872 33.0405 81.6821
23.5863 33.3739 82.9496
24.4541 33.5064 82.869
24.328 33.6394 82.0601
24.0232 34.5947 83.9791
23.8236 34.3219 84.8452
23.5248 34.8442 85.5994
23.4269 32.1979 81.6086
23.2119 33.1089 83.094
23.5899 33.588 82.3511
23.5089 32.7743 81.4506
23.6302 32.921 81.473
23.0828 33.2137 84.1125
23.714 33.874 82.1156
23.989 35.1911 86.9606
23.4461 33.7009 83.9699
23.6499 33.345 83.5583
23.4374 34.3525 85.6941
22.5251 32.9979 83.1145
21.8344 32.6264 83.1151
22.9376 33.5793 85.3759
23.6674 33.5663 85.4608
23.1193 33.2622 83.0426
22.2997 31.855 83.2534
22.2708 31.9663 80.8449
22.7437 32.9538 82.4679
22.5075 33.0609 86.8079
23.1247 33.6943 86.9237
22.4924 33.1134 84.8608
22.1958 32.5938 83.7873
22.4651 32.4912 83.6543
22.5958 32.8891 83.9399
22.3251 33.2626 84.049
21.8519 31.6412 84.2556
22.2949 32.0152 81.676
21.6908 31.6078 80.8068
22.2742 32.6807 84.8341
21.975 32.6259 84.6848
21.8937 32.4443 87.2092
22.5043 32.7516 83.497
21.9199 32.4583 84.4426
21.5153 32.0549 85.9004
21.5729 31.343 81.348
21.6752 32.1892 84.3274
21.9738 31.5476 83.1327
21.3802 31.7243 84.1344
21.3644 31.8766 83.9381
21.2877 31.5601 83.728
21.276 31.5644 83.0762
21.7363 31.8861 83.1058
21.0452 31.5949 83.7243
20.7923 30.9422 83.2413
21.1937 31.6212 81.3746
21.0968 31.1509 85.1223
21.1236 31.7644 83.8019
21.2211 31.1397 84.4974
20.3487 30.1626 80.8647
21.0736 31.4148 82.9786
20.7661 30.0136 80.193
21.0091 31.6116 84.9364
21.3526 32.006 84.0787
20.235 30.8874 84.8272
20.3801 30.9839 82.7859
20.2362 29.771 81.1117
20.3463 30.9988 85.611
21.0259 30.5783 82.3432
20.6026 30.304 81.5003
20.2327 31.0792 85.2157
20.5861 30.3204 82.3068
20.4257 30.1124 82.6732
20.5969 30.5669 84.5851
20.3834 31.0039 82.5072
19.9538 30.1375 83.4644
20.6199 31.2213 85.3853
19.6845 29.8275 82.2058
19.777 29.6589 82.5962
20.1535 30.6072 84.0464
19.7625 29.5706 82.8023
20.0064 31.2803 87.0906
20.3159 30.4468 84.1856
19.8197 30.4402 85.3138
20.0324 31.1665 84.0066
19.3318 29.8907 83.967
20.3614 30.3832 85.7893
20.4596 30.7584 86.1572
19.9735 29.5665 82.3646
19.2114 30.9478 85.2887
19.7271 28.8919 80.4854
19.7436 29.6565 82.8032
18.8734 29.6426 83.9606
18.9865 29.6087 82.9409
19.5733 29.0964 82.2793
19.0092 29.2791 81.671
18.7079 29.9277 83.8622
19.1738 29.2014 83.187
19.0559 29.2075 83.9697
18.8461 29.4986 82.9232
18.9554 28.7406 82.8378
18.9238 28.2425 80.5733
19.2947 29.4659 84.6081
19.132 29.419 83.1512
18.992 29.0117 82.07
18.2379 29.4218 83.6714
18.5897 28.5282 82.5447
18.5937 28.5611 83.7754
18.6856 29.1606 82.5139
18.8255 28.9469 83.46
18.4651 29.1346 84.1851
18.8177 28.6632 82.5706
18.0784 29.1498 85.2088
18.618 28.7443 83.8994
18.9802 29.5509 84.0936
18.3983 28.1053 82.6745
19.2465 29.3856 82.4122
18.4271 29.2134 84.3438
18.3072 26.9329 81.0326
18.6815 29.0423 84.3926
18.0942 28.2202 81.6199
18.0432 28.3569 84.2143
18.6642 27.8418 81.7242
18.032 28.7358 82.5606
17.6397 27.6605 85.8884
18.5736 29.5339 83.5455
17.7058 27.9536 82.4093
18.2615 28.4352 82.4239
18.0497 28.4352 84.7131
18.081 28.0093 81.876
17.8274 28.2711 84.3488
18.0434 27.142 83.793
18.4174 29.0979 85.3136
17.7182 27.2595 82
18.5723 28.4898 81.6265
17.3699 27.228 83.2115
17.2698 28.4921 84.0407
17.5066 28.022 82.8267
16.9185 26.6879 83.0372
17.3478 28.2993 84.8553
17.7419 27.3897 83.5463
18.0683 27.6479 82.4077
17.6554 28.1317 83.1651
17.1503 27.5752 84.1685
17.6791 28.0056 82.9046
17.1974 27.2993 82.9388
17.3903 27.8816 82.787
16.7981 26.8056 80.5394
17.5537 27.7574 83.1243
17.4591 27.5551 82.8809
17.0451 28.2019 85.4033
16.8623 27.4784 84.5736
17.062 27.091 83.5681
17.1211 27.2389 83.9947
16.7855 26.2237 80.8148
17.2405 28.1174 82.5223
16.4381 26.821 82.7988
16.9066 27.0935 84.2803
16.8 27.2044 81.7053
16.6686 27.8651 84.2206
16.6198 27.2429 84.3639
17.2045 26.9807 84.1346
16.7174 27.2171 83.1334
17.0332 25.9593 82.0612
16.5492 27.492 82.8732
17.0141 26.7445 84.1162
16.906 26.6893 81.4159
16.1895 26.4876 81.1367
16.4312 25.9327 81.797
16.798 26.5397 82.389
16.4817 26.4965 83.2761
16.9392 26.1718 83.4866
16.8846 28.2202 86.5941
16.8884 27.0171 82.7929
16.0161 26.0741 84.2903
16.5694 27.2869 82.6264
16.3869 26.4329 81.7741
16.2887 27.3264 86.1899
16.8774 26.8784 84.1855
16.532 26.2722 80.2897
16.0836 25.8994 82.6263
16.5531 26.2408 82.6814
16.203 25.7304 81.6525
16.1808 26.1546 82.4863
16.332 26.7149 84.2666
16.3053 25.9928 83.4962
16.6006 27.0306 84.2836
16.1371 26.0195 82.6139
15.948 25.2439 79.9965
16.1319 26.3246 83.8892
15.8888 25.1583 80.1142
15.8714 25.5532 81.4645
16.1308 26.5557 83.7279
15.9448 24.5959 80.4652
15.64 25.5731 80.6298
15.6232 26.3913 85.9611
16.3544 26.0216 80.9338
15.8221 25.5989 82.4035
15.9635 26.1152 82.9324
15.6069 26.1948 83.2183
15.8447 24.5604 79.0793
15.5269 25.9018 83.3905
15.7096 26.0054 84.1574
15.4807 25.0845 82.3909
15.7773 26.5893 84.4335
15.2747 25.2904 81.7487
15.3311 24.7119 80.2227
15.7276 25.6458 81.7559
15.2942 25.884 85.3856
16.1745 25.536 83.4521
15.6476 25.1517 81.5671
15.4992 25.5383 83.0576
15.5907 24.6985 79.4084
15.1121 25.0188 82.4045
15.2501 25.1123 81.55
14.9788 24.9929 80.8265
15.3954 25.0117 83.3005
15.5261 25.3068 83.2055
15.2638 24.7965 80.1237
15.2126 25.3543 82.7475
15.3508 24.3612 81.0917
15.1377 25.0999 81.2201
14.8593 24.9148 80.9084
14.9122 24.8634 82.6523
15.1317 25.578 84.0045
14.9315 24.3918 82.3425
15.0368 24.7402 81.5957
14.8185 24.6811 82.7595
15.0659 24.9948 81.0422
14.9168 24.2364 80.5579
14.5003 25.1203 85.3267
14.9219 24.1769 79.8904
14.9394 24.7503 79.9669
14.726 24.0904 79.8488
14.5202 23.8188 80.6892
14.7391 24.8915 82.3809
14.9787 25.1434 82.5989
15.0675 24.298 81.1795
14.8068 24.7004 82.9348
14.9871 23.7832 79.3548
14.8195 24.3316 82.5603
14.908 25.634 82.8878
14.8031 24.4178 83.0221
14.6799 24.0881 80.583
14.111 23.4352 79.7899
14.7627 24.3678 82.4228
14.6153 24.5211 82.5267
14.7421 25.037 86.4569
15.0042 24.695 81.679
14.5309 23.8942 81.5539
14.6894 25.1495 86.8098
14.8499 24.3456 82.3862
14.7212 24.1887 80.4023
14.6166 23.8156 81.9858
14.7497 23.9613 80.8936
14.7453 24.8504 83.0874
14.2563 23.4365 80.5377
14.195 24.0445 81.4604
14.6589 23.7031 78.3629
14.2817 23.7777 83.5154
14.4321 24.302 81.1841
14.0918 23.8039 83.2301
14.6502 23.9455 81.6707
14.1616 24.5215 82.3956
14.045 22.9707 79.875
14.2463 23.2851 80.5607
14.2648 23.7829 79.3399
14.1608 23.8226 81.5328
14.0292 23.8191 84.5596
14.4747 24.137 81.0291
14.504 23.7702 79.2409
13.6869 24.101 83.0273
13.8791 23.0291 80.8606
14.068 23.4679 81.274
13.9236 22.7884 80.0659
13.9739 23.2372 80.6379
13.8623 22.8564 79.4704
13.7619 23.2499 80.3232
13.7332 23.7758 81.139
13.882 23.4301 82.848
13.8544 23.5111 80.0728
13.8742 22.9562 78.9933
13.8183 23.5534 82.6285
13.6906 23.1697 82.1465
13.8326 22.8947 80.6483
13.7943 23.3325 79.2767
13.606 22.708 78.9377
13.8883 23.1765 82.9816
13.7178 23.3115 78.4491
13.7418 23.4404 80.7715
13.3047 22.9807 82.5698
13.7285 23.5341 81.9048
13.9541 23.2236 80.9731
13.6693 23.0175 79.2953
13.6819 22.3646 80.7883
13.5586 23.5353 80.659
13.3846 22.9992 82.7198
13.4948 23.2456 82.6622
13.769 23.2132 79.9211
13.3837 22.2048 78.9714
13.2894 22.5573 80.1835
13.8763 23.0072 82.1101
13.5995 23.41 82.9882
13.4567 23.738 80.0631
13.4353 22.2789 80.7863
13.2264 22.6101 81.2137
13.6247 23.4172 80.1253
12.8843 21.6834 79.8793
13.4947 23.0742 81.0126
13.4036 22.3757 80.0366
13.4027 23.7153 83.4358
13.4748 22.8269 84.2604
13.6455 23.1902 81.4116
13.3912 22.4858 78.3533
13.2162 22.9796 83.184
13.4213 23.0029 81.5923
12.9891 22.5949 79.0196
13.4582 22.8183 82.5598
13.302 23.0031 82.1157
13.375 22.075 80.2038
13.1374 22.1697 79.8818
13.4734 22.0158 77.5794
13.2899 23.1261 82.5841
13.5439 22.6682 80.938
13.0395 22.5093 81.997
13.2165 22.5205 80.0334
13.1114 21.8179 79.841
13.0764 22.1608 80.9361
13.232 23.1932 83.2894
13.2462 22.8272 84.9306
13.2943 22.8423 83.5747
13.2225 23.3836 83.3214
13.0857 22.513 82.1964
13.3927 23.287 84.3554
13.3961 23.7787 83.259
12.9288 22.9218 80.9894
13.1971 22.5087 82.8318
13.5592 21.9735 80.6865
13.2304 22.6834 79.5354
13.0637 22.3173 84.1634
13.5264 22.6383 83.1494
13.3228 21.888 80.4146
13.2422 22.0043 79.6276
12.9785 21.5733 77.3044
12.5264 21.4713 80.5789
12.9829 22.0927 81.4022
12.7675 22.2154 81.0335
12.5969 21.9479 77.9103
12.8196 21.3759 80.4202
12.7461 21.6621 79.1247
12.8043 22.2286 81.3326
12.952 22.0949 80.8623
12.916 21.9639 79.5802
12.5568 22.1508 79.6093
12.8598 21.3314 77.9403
12.5955 21.8454 79.4858
12.4197 21.281 78.016
12.4871 21.9848 80.0122
12.5289 20.4652 77.9111
12.8923 21.7891 78.189
12.6495 21.426 80.2404
12.5773 21.1912 79.9458
12.3833 21.2303 78.2221
12.3869 21.6886 79.6931
12.6732 21.161 79.5922
12.429 21.7789 78.3205
12.3767 21.5761 81.9062
12.788 21.9539 78.7833
12.2322 21.0325 76.9536
12.2874 20.7546 78.086
12.5905 20.8611 78.5512
12.7367 21.1882 77.7444
12.6122 21.4979 78.581
12.4037 21.3777 77.8574
12.4727 20.8503 78.662
12.8402 21.5166 80.2574
12.8337 21.2046 78.1594
12.2347 21.3047 78.3956
12.2214 21.6281 80.7675
12.2572 21.1502 80.1268
12.8199 20.5857 77.4399
12.4536 21.0343 79.1091
12.5037 22.2613 81.2242
12.4108 21.5608 79.8026
12.305 21.3086 80.6057
12.3154 21.4164 79.4007
12.5146 21.0162 79.9157
12.6212 20.5735 79.6957
12.6401 21.6971 80.7163
12.2386 20.3154 75.2643
12.0225 20.7304 77.2365
12.0534 20.9851 75.0248
11.9512 20.4039 79.0272
12.1762 20.8482 79.6166
12.5943 20.7225 77.5518
11.9712 21.5457 79.77
12.4138 20.4765 77.64
11.9322 20.3496 75.6763
11.9836 20.8157 77.7851
12.292 20.3298 75.729
11.9271 20.2729 77.1475
11.8046 21.1849 81.5367
12.3023 21.5876 81.4249
12.4026 20.6218 78.1871
12.1613 20.1656 78.1966
12.061 21.0304 76.2612
12.0515 20.5333 76.4751
11.7097 20.3227 78.8951
12.1564 20.7936 80.3436
12.043 20.9725 78.5709
12.1498 20.748 79.075
12.0188 20.795 76.6179
11.9568 20.7662 77.823
11.6866 20.0403 76.0063
11.8838 20.3553 77.0174
11.7872 19.744 74.4848
11.7203 20.6655 79.4811
12.1141 20.3715 78.7521
12.0846 21.1579 80.1006
12.1106 20.7257 78.5916
11.868 20.8525 77.7918
11.74 19.7277 79.0794
12.0886 21.0541 77.4692
11.9438 19.6732 77.1193
11.8423 19.9103 74.0399
11.5029 20.0417 80.6139
12.1111 20.518 76.9573
12.0446 20.6391 76.2641
11.6685 20.5037 76.5308
11.6257 20.1691 76.969
11.684 19.5902 75.4989
11.8507 19.9828 78.6127
11.9007 20.1512 78.6407
11.8778 20.773 79.7833
11.8394 20.4634 75.8918
11.5668 20.5147 79.9907
11.8293 20.4907 79.6655
12.1348 20.4804 78.5423
11.7824 21.3587 81.2606
12.0632 19.9599 79.2525
12.1113 20.3361 78.1255
11.857 20.634 76.8444
11.8183 20.5129 78.639
11.7437 19.9664 76.0248
11.5098 19.7276 79.4308
11.7702 20.9617 79.7568
11.8558 19.5673 74.0244
11.7102 20.5034 79.9302
12.0104 20.615 79.0732
11.74 20.0667 78.0818
11.7062 20.5056 78.5157
11.6955 20.3207 75.3071
11.4172 19.7475 78.2657
11.604 20.6794 80.4345
11.8456 20.204 77.2353
11.5679 20.7538 79.6616
11.934 20.5536 80.0818
11.6664 20.0685 79.5278
11.4846 19.8052 76.3597
11.6327 20.4744 79.8356
11.8581 20.219 77.5207
11.5753 19.0559 72.6228
11.1819 20.2136 81.0238
11.9235 20.6336 78.0118
11.8335 20.1036 78.5497
11.4783 20.3444 79.9988
11.7821 20.2473 78.867
11.4466 19.4503 75.7137
11.4706 20.6348 79.6358
11.6629 19.4361 75.5068
11.5276 20.2252 75.9869
11.5467 19.5427 76.7971
11.6074 20.3807 78.152
11.7048 19.614 79.0221
11.5443 20.4425 75.0377
11.2561 19.1104 78.1003
11.7676 19.3209 74.9511
11.4552 21.1672 80.6986
11.5611 19.4707 73.6664
11.3375 19.2305 81.047
11.674 20.1531 75.4217
11.2307 19.1909 74.3242
11.4537 19.1177 74.2573
11.4091 19.222 78.691
11.4147 20.0127 76.2546
11.3838 19.3421 74.4561
11.2079 19.4271 75.5284
11.0046 19.8683 77.7391
11.6703 19.8577 78.9739
11.4176 20.1951 76.8544
11.6707 19.4012 77.1606
11.4552 19.5994 79.4573
11.5312 20.0667 76.3961
11.2922 19.7602 80.5623
11.6038 19.8794 77.7835
11.2763 20.0518 77.9735
11.5339 20.1522 77.8634
11.1828 18.8657 73.8885
10.9667 19.1006 76.1799
11.2193 19.2469 74.8786
11.1813 19.5752 77.8405
11.358 19.6547 75.0757
11.3827 19.7463 77.0121
11.4652 19.389 77.8776
11.279 19.0326 74.9148
11.106 19.787 76.3683
11.4906 19.1186 74.9829
11.3323 19.2486 77.1523
11.5893 20.2652 78.7596
11.3072 18.8514 74.4325
11.1435 19.3872 74.9735
11.116 18.6562 75.5612
11.1747 19.0904 76.0366
11.4231 20.1814 79.0792
11.3599 19.1276 75.8089
11.3534 19.7118 76.9549
11.4729 19.4469 76.4759
11.2903 19.5074 72.7999
10.9828 18.531 74.7126
11.3167 18.622 75.0177
10.8635 19.054 76.1191
11.2606 19.1947 77.6306
11.4138 20.3617 77.2638
11.22 18.9908 77.3274
11.1926 18.9529 76.6445
11.2224 19.2601 75.3194
11.2015 19.767 77.6489
11.1535 18.2769 75.3563
11.4619 20.1988 78.1019
11.2622 19.6377 77.0649
11.2176 19.286 76.9149
11.1072 19.0403 76.8399
11.2927 18.7321 73.9925
11.0449 19.3013 74.664
11.092 19.137 76.1142
11.1628 19.0116 76.8288
11.2595 19.5389 77.3983
11.6338 19.3211 76.6116
11.21 19.5731 76.2637
10.9862 19.5018 76.2496
11.1841 19.2847 79.4108
11.4024 18.7606 76.4937
11.3446 19.8699 76.9421
11.1435 19.562 76.9225
11.2552 19.0405 75.5022
10.9956 19.511 77.1513
11.2134 18.9888 73.9866
10.9232 19.3642 76.0967
11.0737 18.7104 75.6921
11.1474 19.5498 75.0016
11.0635 18.8892 75.8245
11.043 18.7592 75.5049
11.0196 19.4569 77.3459
11.1914 19.5402 79.611
11.2442 18.9514 73.4236
10.9031 18.9751 73.2222
11.0428 18.6647 77.0366
10.9796 19.7574 77.0008
10.9025 18.9507 72.2524
10.9412 18.5503 77.0844
11.1292 19.3907 78.4663
11.0788 19.1862 76.5637
11.0865 19.3254 76.424
11.1869 19.172 76.7301
11.1317 19.022 76.3287
11.0376 19.5616 78.9692
11.2979 19.2926 75.434
11.1224 18.8082 74.743
11.1737 19.2065 77.0901
11.2628 19.6506 74.9576
10.9218 19.0155 76.8017
11.0801 19.6841 79.3295
11.3793 19.976 77.2596
11.1437 19.3609 77.6837
11.0307 18.8401 78.7508
11.3193 19.3481 73.7927
10.7684 18.4178 74.296
11.1747 19.2538 77.6135
11.2483 19.5955 75.748
11.2224 18.622 75.283
10.9643 19.1908 76.4197
11.2897 19.0114 77.0197
11.0921 19.0293 75.2149
10.8634 19.3798 77.8426
11.1298 19.5299 74.6887
11.0569 18.6375 72.888
10.6612 18.7284 78.5392
11.2001 19.2018 75.9726
11.0711 18.9093 75.7566
10.9622 19.0714 75.1805
11.0954 18.964 75.9466
10.9313 18.4497 75.3424
11.2918 18.6257 74.9731
11.1159 19.0945 75.3961
11.0681 19.0678 78.7338
11.2239 20.241 79.5746
11.1606 19.4553 78.3633
11.1067 19.3874 77.5626
11.0401 19.0094 74.3247
10.7748 19.2663 77.6088
11.4611 19.6336 78.3409
11.0875 20.0697 80.5505
11.4718 19.9905 76.6453
11.0382 18.343 72.909
10.8526 18.9422 76.6723
11.242 19.4815 78.8984
11.3189 19.2606 76.2258
11.0657 19.3056 77.0169
11.4165 19.0947 77.3157
11.0288 19.0607 77.168
10.9599 19.694 79.5718
11.3694 19.0422 74.3119
10.8092 19.552 76.1506
10.8914 19.1149 75.2068
10.7072 18.8977 79.9372
11.102 19.8192 76.4685
10.9898 19.1827 76.5302
10.8625 19.3771 79.0415
11.0728 20.1256 78.8165
11.2012 19.3643 82.397
11.331 0 0