# pn-170911/CsIIA-40-TWTF-1280-1959.psd
# Power spectrum* (dif=0,1,2) (really just |FT|^2)
# NOTE: only the first half! (symmetric)
# weeks: 1280-1959
# 5 clock-days, 3 excluded
# PSD: 1441
14125.4 0.625699 0.0415508
3.23379e+06 86.9963 0.023045
7.3052e+06 129.325 0.0294354
2.19707e+06 66.2906 0.0229339
723831 71.1432 0.022761
547954 33.8294 0.0234664
497782 47.2743 0.0183042
291323 36.0444 0.0284143
391319 62.5097 0.0221036
318232 66.0222 0.0593068
79032.7 44.5484 0.0366791
123996 36.1216 0.0561521
149720 85.1268 0.0801454
35846 24.7398 0.0575742
35811.3 24.1407 0.0418242
36566 19.0188 0.0339729
55111.3 35.8037 0.0463202
38016.2 31.1599 0.0954964
92397 86.4002 0.170522
26300.3 40.6538 0.113194
41172.7 40.7707 0.0956727
46158.8 40.0036 0.0770331
49293.9 40.2524 0.107378
23696 33.94 0.14966
25901.4 59.2492 0.19843
14466.7 30.3474 0.122211
33003.5 56.395 0.146047
17537.1 20.5912 0.0624298
9430.37 32.7367 0.131935
21413.4 68.9371 0.31067
15870.7 38.0411 0.185555
18517.8 73.6159 0.285203
28649.2 82.3111 0.385478
6975.62 32.9938 0.171663
6612.39 25.9276 0.131918
11718.7 20.9959 0.192675
12461.9 41.3764 0.266975
5935.71 12.1708 0.0889788
16621.9 66.4749 0.417784
12298.3 35.6077 0.295801
22109.1 113.427 0.963289
12334.5 53.3512 0.431803
12968.1 105.661 0.913973
11067 35.7156 0.428807
8665.37 31.3963 0.244909
7808.05 56.8376 0.48283
6034.13 29.2784 0.263801
12850 48.2202 0.535081
6627.42 30.2928 0.460896
3617.87 10.2367 0.145339
9822.28 59.5209 0.675655
2634.52 25.7911 0.318872
6532.14 25.6785 0.29314
5913.48 49.3429 0.641041
6866.44 44.6674 0.787649
6095.21 65.8094 0.832523
5551.49 50.4752 0.831068
4394.58 72.2292 1.12202
4723.06 41.1428 0.618502
4112.14 30.5259 0.478799
6307.7 76.9188 1.13321
1779.5 21.3081 0.380189
5228.17 67.7033 1.49022
2388.39 23.3111 0.506649
6549.59 100.143 2.19862
5411.14 65.0119 1.45446
5771.82 85.3048 1.71498
5548.98 38.9085 0.908729
1506.01 21.8717 0.575535
4808.17 47.3251 1.05284
5021.28 120.136 2.85097
1430.27 47.6955 1.25832
4872.49 82.3279 2.30823
1509.7 33.5335 0.852677
2600.83 66.4504 1.96336
7177.92 67.2143 1.67323
5122.67 89.0916 2.50843
2346.04 45.2162 1.32319
3526.56 43.0356 1.42475
2558.43 47.3785 1.55043
2277.07 31.5491 0.983538
2385.69 31.9209 0.899053
1972.07 27.5265 0.817334
5621.43 87.435 3.01737
1944.06 25.0185 0.902193
3064.6 100.037 3.57847
2542.69 51.0811 1.96362
2610.89 72.107 2.4933
2614.1 70.3529 2.33719
2286.12 79.2313 3.03128
1679.36 79.0023 3.0691
593.278 37.5861 1.51628
2019.96 36.853 1.46531
1618.26 71.742 3.21882
3393.87 84.463 3.37331
1509.57 31.2437 1.41527
3336.62 61.4652 2.73518
2527.79 44.8937 1.94008
1473.72 39.261 2.18518
1451.7 65.8121 2.68369
2538.62 71.8282 3.56116
1320.84 46.4412 2.59806
918.047 89.9043 4.2425
1736.85 54.5488 2.72891
1647.75 39.2199 2.3557
1327.75 41.9267 1.93964
1516.58 28.4604 1.61618
1392.19 53.8001 2.60641
1076.21 33.1979 1.79205
3283.74 110.798 5.92626
599.416 13.7762 0.830434
1519.48 41.9924 2.37908
2025.27 93.5953 5.99479
2043.27 66.7005 3.75603
1065.05 31.4166 1.76576
673.792 26.3296 1.68245
1109.58 38.058 2.37492
969.142 32.1342 1.99537
1154.89 69.2393 4.45418
635.153 23.3891 1.53178
1112.06 27.3774 1.92823
1623.66 45.7555 3.26757
823.582 47.9304 3.47067
1852.52 68.6276 4.91173
1265.44 20.7374 1.49342
816.221 22.255 2.0129
790.039 22.622 1.51717
711.51 26.7183 2.24753
1189.54 30.6384 2.37989
1128.36 35.559 3.02554
699.557 27.3836 1.94842
913.253 24.9775 2.26277
485.613 48.4991 3.70005
1072.73 62.2285 5.43536
399.162 32.6561 2.76878
1101.25 44.0694 4.26686
899.906 63.5138 5.50828
620.09 24.8796 2.68898
795.862 30.2588 2.74049
729.671 59.7663 5.38926
797.655 44.2967 3.62327
577.657 16.1841 1.55398
538.151 50.6795 5.0152
714.209 25.8269 2.3908
816.783 48.1131 4.53058
332.495 47.1153 5.26036
1437.93 41.0891 3.77392
1115.46 48.2169 4.87189
704.002 38.4773 4.02352
507.298 6.19545 0.71698
449.523 19.3334 2.02503
418.538 52.0011 5.66479
892.368 62.1467 6.83157
610.995 14.2699 1.51791
654.532 31.418 3.62007
922.755 67.1276 8.41837
678.913 60.7854 7.47179
903.483 36.6294 3.66119
507.731 19.2559 2.08339
1043.4 49.2746 6.15811
1026.21 60.2033 7.66471
369.491 22.374 2.53883
590.537 60.9671 8.54664
373.492 37.6906 4.56705
696.141 42.975 4.58006
1264.71 102.146 14.1895
946.414 50.2228 6.72344
230.198 6.83915 0.849696
384.101 59.9051 7.83664
659.815 52.5204 7.57811
646.959 83.4072 10.5101
728.96 64.3547 9.48083
345.663 11.2448 1.74412
788.925 65.8894 8.96032
565.903 46.5387 6.04129
1114.79 65.5938 8.57359
700.744 48.0937 6.94141
617.83 41.9619 6.14035
729.114 89.5452 13.4344
330.484 18.1619 2.1531
535.681 45.0569 7.47907
388.885 35.2649 5.0167
369.705 21.1896 3.48777
618.629 61.91 9.46941
673.033 57.6594 9.63442
312.602 39.3573 6.25329
482.722 36.0816 5.30186
458.707 63.0274 10.5569
367.585 22.3876 3.36333
521.988 38.4295 6.35663
981.438 99.7997 17.3283
893.909 86.5682 14.3748
1126.22 110.889 19.8372
668.629 81.9001 15.348
361.1 40.7279 6.48013
354.123 28.3369 5.39101
188.288 50.4976 9.09499
476 31.4697 5.63844
447.776 59.564 11.2749
572.641 33.9869 5.8781
286.085 22.4032 4.25598
337.349 81.0725 16.84
900.573 72.4945 12.6481
337.561 24.1362 5.56845
210.483 74.3095 13.5657
173.554 10.3387 2.16748
441.894 31.6916 6.34164
362.935 23.3347 4.6269
241.795 24.0382 4.91543
257.602 29.3665 7.27169
336.806 27.3324 5.26798
348.353 31.8929 6.215
453.393 61.0147 12.5811
314.643 18.308 5.11547
257.599 45.8487 9.80106
801.547 73.157 16.1574
398.04 53.4964 12.5197
294.123 40.2757 7.20959
607.063 74.0247 16.6174
255.141 45.1324 10.8019
189.136 18.347 4.57693
275.24 14.198 2.36428
296.888 43.4386 10.4561
164.281 38.7464 11.2526
374.334 47.0262 11.7465
289.504 16.1235 4.16312
430.334 52.9655 11.8339
233.031 25.1148 5.33852
277.906 25.7799 5.98255
153.596 51.9475 13.1003
265.291 48.1796 11.978
162.055 40.5987 9.13966
185.274 36.0821 10.3717
403.772 44.3805 9.67357
176.588 21.8439 5.52045
558.659 81.8243 18.9387
428.487 74.6623 18.7484
673.282 119.502 30.0032
312.329 49.1664 15.3985
158.433 8.64045 1.79087
176.068 42.3287 11.8002
239.439 34.9245 10.4238
322.18 18.9371 4.53521
241.811 65.9019 18.3477
238.775 36.8286 10.2734
306.969 62.5743 17.5123
342.446 46.0028 12.2187
303.715 37.1969 13.2557
363.781 50.5284 11.4701
299.842 58.9257 17.6151
414.685 40.4757 9.87262
378.034 52.5061 15.5572
134.056 25.0837 5.93623
516.707 70.2426 21.4879
156.935 36.8358 11.2351
316.423 81.7691 25.7247
390.781 57.1358 16.5419
284.233 53.6428 16.944
253.119 28.7228 7.55375
284.703 49.1349 15.9187
292.858 30.0587 9.19308
228.187 53.0467 17.1453
223.713 32.9252 10.1086
156.694 40.3846 12.2853
71.4458 32.0119 10.4884
133.583 31.9116 9.85926
157.692 7.32308 3.10088
196.543 22.6452 7.30477
76.0003 26.3301 8.95134
173.408 16.8603 5.20883
136.651 48.2381 18.6507
391.307 67.1811 19.4933
170.88 54.6653 17.5188
275.052 68.8089 26.5972
143.379 27.5229 8.55767
336.509 41.5683 13.5316
264.49 33.1752 12.4305
281.743 50.894 19.9655
48.3985 25.6317 10.4685
179.021 50.2237 18.9815
289.675 68.8408 21.2623
257.988 32.0332 13.0757
108.264 31.8494 11.138
226.96 66.6621 23.3002
190.933 33.9454 15.6535
89.2062 15.454 5.90252
179.489 32.5833 15.3436
178.569 43.1827 12.7467
221.912 55.3256 20.302
173.928 28.1896 12.6335
185.534 23.7011 11.8953
226.953 51.9411 16.9215
64.0536 14.3182 7.70779
197.113 34.0952 12.8982
152.625 30.2223 11.4897
70.0837 30.2434 14.0335
227.129 29.1451 9.90626
264.958 45.2064 17.3921
105.097 34.5454 17.2567
133.304 44.865 19.2691
168.83 14.119 4.41026
214.276 35.5027 15.799
88.3852 38.2696 14.681
189.107 38.4736 14.9649
237.334 34.5656 15.8143
135.971 31.8522 12.6957
141.855 21.4849 10.2469
107.678 38.2947 15.6811
175.289 19.3504 8.44146
262.501 66.3964 24.4755
152.312 35.5142 17.5852
229.792 50.9278 25.8444
138.045 33.7683 14.2499
166.962 37.3206 16.2295
231.514 37.0557 18.0299
192.192 45.0163 20.6392
91.9324 21.1364 8.2443
112.56 23.2344 13.6583
172.075 44.1536 17.5855
122.937 31.9317 15.6594
96.0925 32.8485 19.0669
136.519 31.4568 13.622
243.518 33.5782 17.2277
136.641 34.1772 14.532
192.274 26.6946 13.173
115.626 43.6919 18.9234
130.014 40.2082 18.9589
237.591 46.3611 22.7475
77.7069 20.8187 11.0833
289.325 60.0248 24.0938
148.672 48.9844 25.4047
113.737 25.8396 13.51
145.681 53.5709 27.8562
120.885 26.1163 13.4404
156.19 18.8232 9.28262
215.894 44.6051 20.8117
128.859 31.4043 17.3186
126.01 21.0485 13.1284
149.443 45.8744 25.4286
76.6948 29.1955 13.76
169.426 29.2879 15.8192
130.182 41.1398 25.4692
87.4438 22.5062 8.50345
175.499 45.4816 25.1647
131.524 24.0153 17.977
221.2 94.9186 44.1006
122.482 31.2618 16.3208
162.719 38.2384 20.4283
93.1876 25.6128 12.8198
48.3751 35.9789 24.3241
166.032 63.3755 35.2605
207.503 31.1495 15.6627
170.31 26.3909 12.5096
162.034 37.1692 25.2141
94.4975 50.6284 27.9434
128.947 46.6446 21.0974
63.6149 44.437 30.5073
152.254 35.0844 16.1892
168.737 54.8597 32.1547
101.085 12.6058 8.81931
111.149 15.852 5.84688
164.15 43.0172 22.8701
90.4665 28.6479 17.5008
172.16 64.8057 41.5994
109.388 43.496 26.7369
120.605 42.8781 29.6277
55.5344 24.161 17.1542
108.098 43.9972 27.2015
105.579 18.4963 6.13662
153.881 55.4308 31.6179
180.154 83.1672 56.4326
50.7845 26.4978 15.8623
209.103 64.8977 35.6911
59.2013 20.6225 12.5127
67.2694 21.0367 14.7188
54.6645 35.2749 20.6351
152.401 77.1334 51.5188
71.4258 42.25 20.1135
95.6658 60.5413 41.5593
112.362 40.3849 29.8245
76.2027 29.0415 21.3265
174.98 42.3951 26.4652
206.051 110.679 64.7943
99.8715 63.0386 44.7528
156.145 44.1393 35.9498
122.957 58.8415 40.4988
83.3247 15.4706 13.0821
69.2036 33.4082 24.5986
94.4339 45.7266 33.4128
60.3977 18.4325 16.768
131.778 48.098 33.8352
126.423 55.1571 40.1637
107.67 31.369 20.8245
148.899 32.1373 22.5493
126.881 50.6913 29.5923
81.2934 30.5637 25.5714
103.472 26.6817 14.9256
148.691 52.6264 29.6839
56.1926 11.4707 9.36771
40.1049 36.4406 29.3043
89.8717 17.4175 9.07947
117.085 38.1764 28.6176
119.704 63.261 49.9584
56.3893 37.5964 21.6039
56.3005 27.2126 33.3054
183.669 71.6098 40.3401
72.1404 63.0257 40.8554
74.4116 28.6825 24.3131
60.749 14.5421 14.1565
54.8631 43.6656 37.2049
126.623 25.0239 16.289
134.43 43.9148 29.8092
142.856 41.2006 24.3866
148.279 32.3635 21.4085
118.844 50.5219 45.4269
94.8716 95.1205 79.6054
140.595 44.4592 27.605
46.2554 11.5317 8.95374
79.9895 44.9448 31.3988
97.3321 42.87 34.3752
73.0392 20.349 14.784
55.7971 55.368 51.8388
97.9306 9.98019 5.31111
74.4385 19.7692 19.3503
82.5392 30.2157 19.2133
102.493 57.2792 58.7661
190.596 92.6288 63.5169
57.9358 28.4906 23.2249
56.5025 19.8304 21.5154
86.0979 20.1375 17.9592
174.091 45.0591 28.3119
166.909 71.5033 49.3326
104.233 29.8709 24.7954
104.545 22.5538 19.7515
37.567 25.0881 24.4647
125.876 81.3788 62.3151
75.894 12.888 14.85
99.6114 66.3007 54.5774
46.4933 34.0116 24.2397
44.748 26.058 26.3386
106.325 36.7993 32.0651
66.0774 25.8117 29.0491
132.087 30.6872 17.7778
116.116 20.4514 13.6263
108.28 46.8688 42.6228
51.7007 8.26511 7.16645
42.2327 25.0718 28.2383
77.4214 26.5117 26.2329
171.817 54.7091 37.2749
60.406 31.2378 23.1656
79.8448 38.9331 35.4523
68.8595 27.3732 24.7582
134.141 74.3573 61.5123
55.6955 35.5317 44.5998
106.001 41.6649 47.9019
66.5625 22.302 26.067
106.062 36.8263 29.4996
75.2793 13.7763 18.316
110.25 47.3995 42.1928
69.5521 44.3135 30.021
51.4385 20.3554 24.3509
52.1359 30.9398 25.9167
59.8771 15.2911 11.6242
86.929 22.9589 25.8736
30.1 20.638 27.4962
102.346 43.01 30.7006
34.1162 36.6902 27.7294
58.3099 27.8924 25.5654
50.4866 21.8102 27.2883
33.3625 14.8956 10.5759
84.4794 41.5424 43.5962
72.1341 34.1985 27.2472
27.5537 21.4276 19.2714
42.6176 11.028 11.2683
53.2238 9.74691 11.5827
41.8352 22.4204 19.5379
92.2308 51.7145 49.3889
67.6365 22.4268 25.8754
41.9258 11.6978 8.01137
25.9634 18.3829 16.9991
39.7777 18.238 23.5114
82.6936 47.028 42.4818
48.2161 20.1504 28.9168
57.4073 26.8396 22.2441
53.644 33.7053 47.0497
86.2402 58.3349 51.9423
111.384 63.3986 64.0747
39.722 52.0573 54.805
87.4357 33.2761 33.4867
33.8021 25.0422 17.4073
43.1716 33.689 32.8372
52.7109 21.4469 21.3776
32.9037 6.0827 11.1086
71.1882 22.9219 16.6354
33.9641 40.0764 44.8968
60.1574 17.2909 26.9597
58.8131 28.5645 30.1505
43.2094 20.4472 25.3356
91.3911 34.766 35.3415
46.7212 49.8751 45.0883
55.8179 42.8202 46.7983
41.0736 34.8992 53.9326
115.305 20.6713 11.4001
49.8546 21.2626 27.4487
74.7048 42.7861 63.9359
194.929 117.504 100.875
56.5506 26.7613 42.1969
29.3316 17.8599 11.6079
6.56717 18.8854 17.1578
46.3506 32.459 37.6305
46.6435 15.288 13.5292
35.9524 28.0758 34.8856
27.3001 18.2257 24.4351
54.2912 12.9687 16.4937
41.7943 3.45128 4.98367
66.0366 35.2605 38.7034
41.9434 36.2795 37.5948
70.6839 25.1754 39.3286
68.4436 47.9494 44.0869
43.6399 32.9046 60.5581
93.3532 50.0573 36.055
42.1348 25.2257 30.1561
29.2483 13.8288 23.3849
57.2079 17.8321 14.0036
57.0415 16.143 19.2665
50.1665 12.8611 24.376
60.3002 33.1455 35.2613
59.4967 36.9176 36.2283
110.863 55.6041 63.6901
26.6111 11.8063 29.2004
61.9653 47.1824 43.5821
33.6639 46.8208 55.8929
35.4022 47.9128 56.839
43.8749 20.1381 25.5527
59.8623 34.3393 48.0653
66.4966 25.6239 28.244
42.3792 16.8502 20.4962
77.8036 19.3989 24.4878
83.5812 46.2066 50.476
30.3083 27.1255 46.3192
60.8108 21.2733 17.152
37.9114 14.7141 34.1368
104.863 84.4686 87.0902
60.72 51.7959 58.9293
32.4853 18.8771 21.1075
55.9606 21.5087 25.0616
69.0438 32.624 50.6966
24.3271 16.4368 18.0006
60.7251 19.7036 20.2308
28.5824 21.1095 20.1674
25.2859 22.3375 37.0435
73.4334 23.6184 32.2074
55.1498 29.1127 26.7826
57.4527 42.0648 62.8079
34.2094 20.2228 27.8047
58.2846 23.5354 19.395
35.5359 31.4478 67.0529
137.5 94.2719 88.7753
33.8347 23.4292 32.5057
51.5112 19.2633 29.6388
33.1906 21.1723 32.6782
47.5857 26.9172 53.4182
47.4283 75.2009 81.6066
57.6606 61.1628 97.3499
68.5697 31.1854 46.8612
41.5729 29.709 32.1171
36.6483 19.0121 43.0837
48.0288 36.917 40.0364
61.4883 35.2471 41.5637
54.0738 28.2267 34.4203
23.0925 15.4556 20.7645
42.6776 14.1289 16.6038
24.5884 31.2754 52.3258
60.6953 35.1342 57.8943
88.4659 90.7877 113.928
59.5239 18.55 27.8314
73.7422 37.9938 58.1289
57.0649 33.3912 29.7905
32.8572 27.4436 45.7994
77.0644 51.8719 72.6784
43.0946 19.2153 21.1558
47.9218 32.9483 45.4493
51.7581 16.6109 28.6879
54.6244 47.8776 56.7949
62.9673 29.2565 55.0716
28.3546 35.6257 43.8399
65.0753 30.5652 47.5746
42.5571 30.7993 30.7687
39.3253 28.1331 48.5592
25.9237 20.7341 20.0254
29.6574 20.121 37.1934
69.9525 48.9725 59.6659
66.5888 36.8979 65.2442
38.4211 26.1567 40.6406
73.0356 63.3104 103.096
40.8941 35.4794 42.995
34.0344 29.7261 38.1692
44.2701 13.2155 34.7681
49.7315 51.7113 59.0107
15.1821 15.3514 39.0431
68.5732 31.2199 36.1047
29.7128 31.0623 52.103
75.885 35.1331 52.4564
29.0336 26.9489 23.3179
44.016 19.012 32.322
45.2581 19.2159 20.3997
63.2339 55.7116 76.544
48.7053 43.4096 67.5932
35.9342 18.8494 26.8692
67.6368 43.5295 68.5779
32.4851 9.6539 19.1729
45.0778 26.0144 51.9555
48.0698 49.4286 66.8882
52.0218 25.2927 37.6542
42.0416 21.6286 40.7819
29.7034 22.029 25.5947
30.4343 47.2002 69.7079
27.4866 22.7749 32.5662
44.7655 23.4373 40.4465
43.9524 57.9156 84.2825
18.2744 14.5624 39.2015
69.6542 42.2632 74.4947
30.0772 27.4879 55.5178
45.6631 24.7583 29.0021
33.0249 31.192 31.9579
33.715 22.5711 40.9147
10.8604 40.324 69.9894
46.5506 17.7201 54.543
34.8793 24.3209 46.0491
35.3819 41.6425 31.0113
29.8665 22.8229 23.3918
35.1332 9.96444 11.7341
37.5666 64.5307 104.638
28.8858 17.0087 36.6049
49.4086 18.5411 33.6259
65.5629 34.0326 48.2008
35.604 29.9118 64.9655
33.3963 27.5321 33.6427
19.7646 28.1955 41.2657
19.2906 11.432 20.5953
29.0994 28.0566 38.8118
19.4635 28.0703 52.2737
41.6895 9.09703 8.64623
29.0133 16.6443 24.6584
23.0277 7.47726 12.7051
27.834 40.9535 94.2703
36.1924 16.3957 26.7205
40.6023 31.231 44.9612
18.5596 26.6759 61.9412
41.7419 32.5361 48.8961
21.0624 30.3466 59.0572
60.6317 19.5609 27.5421
53.5052 20.2032 19.9237
47.1522 39.3244 66.7394
20.5552 24.2282 49.6766
14.6953 13.1975 17.8268
24.1058 21.3794 25.741
25.3148 15.4832 31.0218
42.4074 46.3922 95.3697
18.4936 29.0729 49.1191
27.8087 14.4098 19.8243
8.89537 12.0859 15.5517
21.3974 33.3598 63.6405
48.8496 19.1959 29.9033
27.6893 24.1411 44.7939
56.6038 28.9252 35.7048
21.065 15.0653 33.8472
22.9274 29.9774 53.1446
31.86 17.6689 40.7585
24.7062 3.85455 15.6553
22.6685 24.3875 31.9071
32.513 45.0463 79.7365
45.2051 56.1806 72.3191
21.6998 34.2903 74.6329
46.768 35.2113 49.3993
18.7389 7.14087 20.556
26.1433 18.2448 42.3273
23.7948 12.4868 34.3836
29.5841 6.98585 22.4414
29.3978 30.226 30.8674
22.3708 12.4813 45.0832
51.7094 51.3532 64.3654
23.5202 18.968 38.1661
19.3848 18.9605 29.8791
25.1904 17.0381 37.8956
24.1909 37.4186 58.1251
35.487 13.776 41.1173
36.7858 32.2195 68.7322
18.4308 13.2542 31.7045
28.7704 40.9483 53.5509
20.8651 10.7892 19.8317
30.8817 20.1291 52.3677
30.9364 19.7123 29.8718
18.0664 7.66946 21.1215
19.4534 10.177 17.351
23.2219 13.7774 20.2365
11.8722 12.1544 32.2213
36.5695 24.6932 36.829
30.4911 37.4747 84.1031
29.9054 7.12117 28.8023
30.9877 45.86 53.7064
10.1936 35.9238 98.6545
39.4597 11.9366 24.0338
39.9362 14.3857 35.5548
16.2451 19.0752 32.4387
33.3176 35.7432 98.416
71.7484 34.7795 52.2131
35.1882 43.2679 68.9641
38.205 20.7226 33.617
18.0638 17.2808 49.8811
40.1597 35.063 59.7618
35.3159 30.3547 68.7619
35.8577 40.6464 74.8129
17.3642 6.82372 35.4685
28.9368 39.307 55.0586
45.8658 23.4221 39.7744
22.6262 19.458 54.4111
40.625 42.0384 68.5963
12.7 61.1451 124.436
36.7882 19.7059 47.2835
31.2484 14.66 39.7151
35.0268 29.6533 46.3763
34.6005 17.0594 34.0817
26.873 19.1662 28.06
29.0649 11.7738 23.69
22.4794 26.4108 61.593
17.4797 22.3697 32.8612
9.86043 36.1221 101.095
49.6337 37.2862 121.386
51.3187 38.9994 40.3761
28.1773 30.4481 68.9466
56.7404 49.8037 69.7407
25.6943 8.16633 19.6422
21.0586 26.4594 41.5557
32.0955 55.7399 170.327
56.8913 40.2476 79.3917
57.9615 35.178 60.2914
46.8339 28.6655 34.3146
24.4202 10.075 12.3838
22.7593 8.09627 34.7724
54.9943 43.2016 52.6926
15.1359 14.1185 46.4808
39.8988 37.6233 101.809
34.9323 36.678 89.4243
29.0697 30.4605 28.4831
44.9795 42.5507 92.017
7.89604 4.1677 10.3048
29.4688 30.6104 67.0655
18.4381 10.3562 28.5684
26.9033 7.60427 10.7181
33.0356 31.35 65.7289
17.0081 17.8287 58.7501
17.6008 25.3108 65.6072
29.6547 67.524 103.442
21.5462 28.3309 59.14
26.19 21.8443 33.8395
35.658 74.9443 193.595
55.3069 35.9037 65.6425
23.11 29.7395 58.0041
19.5067 16.245 56.4116
17.5961 18.7141 22.081
16.3077 14.8355 64.6127
37.6535 22.2989 29.3408
25.2614 15.3127 12.6503
20.4332 24.435 42.1701
32.5407 31.5133 70.3682
25.6886 9.40319 26.9239
21.5463 29.8736 60.362
21.5833 33.1689 71.7027
31.2103 20.4192 48.4618
24.7976 10.8831 9.47822
21.874 45.8809 119.643
26.2332 17.69 34.4627
34.2932 49.2766 76.5098
22.8764 17.2365 63.426
19.79 12.658 24.1752
20.5011 20.4315 57.7423
16.0294 9.00056 19.9212
17.9584 35.3647 78.126
21.3293 20.2366 55.7994
36.0597 31.4968 68.0308
22.0843 14.267 30.5201
19.3241 9.90839 55.965
37.5007 25.3452 33.1931
24.8823 8.61645 21.8901
29.1739 14.8682 27.1988
19.123 17.9635 53.3244
19.3616 14.537 23.692
22.8712 32.6508 80.2203
30.4566 12.4483 48.4736
20.5463 19.5024 23.871
13.4597 25.441 80.6437
31.9264 22.9581 51.2826
27.1623 24.9743 49.5527
27.6006 18.4501 61.8983
31.0144 42.9882 64.5945
26.5691 20.2855 72.8137
25.3881 9.11318 14.852
27.6709 14.1197 35.5953
24.2293 19.0172 39.2308
23.058 24.4049 77.5704
37.9554 25.6543 27.8757
21.5726 16.0419 52.4152
18.931 14.0582 47.1
18.6006 26.6461 53.0787
31.2032 25.0679 44.7066
12.4943 13.0987 42.9325
7.59099 18.4658 48.2297
21.5671 22.9831 100.421
46.266 40.0693 55.8345
13.0838 27.1116 72.3227
13.3167 16.8905 38.8703
22.2748 20.744 45.3652
26.0578 30.3783 69.3968
34.5955 16.8324 51.4741
35.106 24.4541 25.6993
17.9899 22.3639 52.8721
13.892 2.97273 17.5998
23.3693 22.3699 48.8622
29.6067 27.3973 58.6729
7.75328 14.9647 53.5058
30.8991 62.3526 131.748
13.2704 15.7792 62.017
26.9785 24.7759 45.2452
16.5447 10.2899 51.4332
30.4179 12.7012 31.5556
33.2723 19.7314 41.6358
25.0399 24.4887 60.2391
16.3412 25.1015 65.2262
18.7613 26.6383 67.5505
30.7876 52.5299 118.724
33.68 7.6721 22.9648
19.9871 11.4948 41.1489
17.3895 11.3523 39.0429
28.437 33.8148 79.6577
14.8899 10.5286 66.4787
31.8548 24.596 80.2399
16.305 10.1881 30.6611
34.4185 33.614 47.5048
17.9283 14.7247 22.3345
19.5079 7.75097 25.2618
26.3996 40.0938 52.88
16.4587 23.1584 59.9511
20.2403 19.1953 46.4919
10.8423 29.2695 65.0579
30.5252 22.0606 56.1159
15.9741 8.651 33.1102
28.8456 38.7725 93.8388
16.5121 6.49763 32.1037
36.3007 36.3095 67.2779
21.8111 11.0792 73.431
34.2779 44.0564 114.387
10.2506 19.1328 61.1076
24.3333 30.387 26.7468
16.3111 39.495 78.4519
21.364 33.843 91.227
22.3763 7.95534 36.1985
19.4804 6.37518 47.2981
25.2419 15.3156 36.404
35.9923 18.2035 27.0406
21.385 17.2517 26.73
23.5078 42.6396 128.635
37.8187 34.969 75.8945
17.763 13.2875 64.1532
25.0183 13.9582 39.5649
14.2046 15.0491 47.6079
36.1804 18.4296 31.5432
17.6753 24.0588 38.4271
15.2498 11.6861 46.1689
26.2753 28.5992 55.208
20.5744 19.3749 52.8451
13.9405 16.2881 67.5171
24.6988 12.9082 23.3114
17.6082 15.6981 42.888
40.93 45.8712 101.082
8.4612 10.2601 47.8767
21.8101 25.4011 91.3473
20.2705 26.282 37.5282
29.0371 46.4416 123.271
20.5757 18.9494 72.129
19.3961 35.2944 118.06
14.7438 24.6777 55.545
20.9209 9.85633 18.9496
16.8937 4.30394 12.7812
17.51 19.9496 46.557
34.0644 18.5059 30.3373
22.28 23.3884 59.8962
32.9225 42.7168 122.733
11.166 16.1717 50.6601
15.8282 12.9525 56.0308
25.9231 17.6395 56.2939
18.6964 32.3681 54.9209
6.29451 16.9886 41.795
15.1553 7.34558 29.6946
12.2997 13.0315 30.7847
10.2733 11.8427 28.0844
14.0003 19.4612 43.7394
16.8342 14.2348 48.2309
19.6812 25.0193 83.0923
28.1206 38.3207 74.9217
14.6215 10.783 47.6582
13.9794 9.90058 26.1765
13.563 15.7798 60.2491
12.0378 19.0388 50.7977
18.7605 11.8257 22.5318
7.03151 32.0437 121.682
34.5036 48.0405 70.9777
14.8131 12.8094 74.0198
25.0743 20.7497 41.8381
18.3177 11.3964 18.249
10.8864 16.1799 65.2229
12.7258 15.6863 25.722
18.4031 10.5172 38.3723
16.0256 22.7261 99.4266
37.0745 22.018 20.6299
14.0933 9.43887 41.1311
20.4239 17.8649 48.1431
28.5067 23.2639 69.2531
23.3074 26.2593 82.9689
11.0618 25.6885 87.1171
18.5721 25.2626 30.5561
15.5168 9.56593 38.6449
22.4482 24.0312 99.8028
28.5979 15.5579 44.7011
13.9482 27.542 48.3078
23.6171 30.9702 119.674
18.1407 16.8362 50.7356
26.2551 27.507 49.0799
20.0956 7.73453 17.377
11.629 11.7783 58.2289
10.6094 16.4713 35.4921
15.2555 10.8707 40.5169
5.58826 23.1824 62.2149
22.6789 25.9905 84.8274
13.2615 9.37137 29.1612
18.9386 8.95362 51.0568
29.2728 26.3786 56.691
16.589 30.6828 88.3543
22.5672 23.753 110.168
12.029 11.2094 31.6292
22.7251 39.4711 53.0528
10.5158 23.8968 130.393
25.8488 27.1257 60.7922
15.2694 36.9036 74.9471
18.6235 27.631 101.573
30.0774 46.6904 91.3287
26.2201 17.3634 33.8297
12.663 12.1402 57.2092
14.1842 31.6976 52.201
11.2547 16.9556 76.9446
25.7533 17.6192 54.5918
18.5781 28.8882 110.205
27.1533 5.04004 20.9856
28.3013 21.1103 31.2571
12.7248 12.8588 69.6738
26.619 35.4258 50.2743
12.157 7.32602 52.2764
16.198 15.8015 36.1347
14.1573 14.1813 64.2398
12.681 19.4823 67.469
27.9797 16.5838 61.7485
24.3613 32.6064 49.6319
13.5135 22.3187 59.4275
15.4977 11.5178 48.2187
13.4701 9.79445 36.4989
21.1147 13.332 22.1185
16.8972 17.822 52.8184
10.0903 18.1262 115.208
9.54211 7.88975 18.2525
6.25112 6.88217 14.1049
10.1143 18.9546 35.4264
11.8447 21.4108 101.84
28.9962 17.4086 72.2319
27.5301 27.0671 66.9199
17.1659 12.5739 24.7512
14.8097 18.0414 67.061
19.2913 24.0127 74.9897
19.3541 11.5419 63.0666
16.2999 20.5315 67.7391
22.3459 24.1148 34.5412
16.5999 16.9823 47.5487
16.5742 18.5152 58.9379
6.90038 11.0859 71.424
21.2609 9.76737 22.7641
15.6475 19.67 43.2097
13.2434 40.9296 107.75
16.6117 6.26106 33.8179
16.9303 32.2326 132.286
14.5344 22.9013 83.5408
9.57008 21.4045 91.8484
19.6272 53.3224 102.327
24.2924 13.2748 53.9973
18.0604 31.7373 97.3395
20.5388 13.3449 43.3619
10.1534 2.94903 16.3739
17.804 21.5841 95.6318
18.0546 22.5212 58.5628
6.87916 75.3053 214.299
28.2367 19.9998 54.5947
18.4732 14.1155 91.8149
31.2837 18.9349 37.6924
14.194 15.0816 49.5787
17.004 32.1279 82.2855
14.8167 19.1277 47.5755
10.2503 20.5891 42.2856
13.5268 25.8037 59.6487
21.1008 37.7932 104.719
17.5851 8.78484 85.198
25.2421 14.6309 69.626
20.7293 27.3199 67.532
23.0956 13.6719 46.43
17.9061 10.9228 38.4659
12.4938 3.90963 57.0339
29.1294 39.447 62.7209
16.5319 8.21376 30.9673
22.6332 25.2178 71.0035
9.18961 11.1214 34.1091
8.11709 9.98421 54.9509
15.1063 18.5268 44.2675
10.8125 23.1052 67.73
16.5413 11.0363 32.1255
16.8547 22.7508 72.4036
21.2987 23.6194 69.6311
14.7504 6.09947 44.9113
16.7641 48.747 103.315
13.6378 12.0882 34.5683
13.424 11.9405 50.4422
15.5669 18.3397 92.5595
16.1218 14.485 48.373
14.1317 32.1739 90.1924
11.9944 14.1685 45.6315
10.7969 11.894 87.1068
22.5341 26.2746 61.867
15.0299 23.3539 38.8464
18.186 15.7779 64.5425
18.8671 38.3042 136.699
23.0389 21.0406 23.1554
10.802 16.4607 59.7532
10.9949 16.1998 44.0772
14.1187 8.26049 31.106
15.9362 17.2386 75.8794
9.96402 15.1244 64.5806
19.1791 10.6199 15.3177
11.5305 18.9597 93.496
14.7297 14.2689 22.2592
12.3071 16.3248 61.9907
19.2095 23.6931 76.0615
11.619 16.6183 60.3271
17.1421 11.8567 43.2802
10.8624 16.8387 39.2319
17.8572 9.26157 32.0566
16.2302 5.61791 42.6166
13.5368 14.0802 34.3718
19.757 14.3646 43.3616
12.58 10.448 33.2126
12.1437 5.66451 26.575
12.4158 19.1881 80.125
20.7356 16.9215 34.8617
17.9897 18.7724 34.6225
5.22286 16.4664 66.5496
19.9317 16.1313 69.6785
25.1674 32.5103 108.177
5.33826 35.2622 123.201
16.9025 21.1619 56.8353
12.9361 41.0344 105.241
17.2969 10.6006 93.6752
18.5733 12.5125 64.3258
19.0636 12.8649 54.4254
27.0158 24.4865 67.2505
6.96866 22.4905 94.3139
15.9543 24.3195 40.3236
17.319 24.5876 124.364
30.7874 20.0868 24.1527
12.3354 23.1399 87.8422
13.9708 8.67185 18.9905
11.8603 17.4238 75.1992
22.4273 19.391 57.0144
8.42533 10.7573 16.4031
11.5553 7.86772 40.2999
17.9568 6.69725 45.1185
21.4331 27.5006 68.0802
8.26934 12.8821 71.4815
16.3942 16.3089 27.6003
12.3701 9.73355 34.7414
18.1183 10.1774 54.4245
19.7327 26.9135 81.4724
16.5264 21.4866 91.0001
12.0801 34.6226 101.612
15.9928 11.593 38.4846
14.234 20.3182 56.9786
8.87165 10.8807 58.7245
21.1198 10.2915 31.375
10.759 17.1549 64.986
20.2223 7.66068 44.0754
22.758 9.22585 11.337
15.1023 14.2691 60.5941
23.8542 36.3789 78.3232
6.34239 9.4701 74.2796
16.4302 36.2431 118.589
21.2511 18.8607 25.654
11.9101 13.6267 82.6524
8.02562 15.6721 48.6357
13.9098 11.6332 50.7636
9.60932 12.7334 37.4742
7.93544 19.0973 97.5922
28.5966 29.4584 89.3907
14.424 21.5655 38.1673
10.5668 8.38988 51.7301
8.20215 11.9192 26.5878
11.2159 7.77403 14.176
13.058 25.1557 97.7285
11.0917 16.2191 103.894
10.7604 21.4355 41.6086
12.0829 5.86262 25.4695
13.9827 15.4711 62.0361
8.60411 8.45187 25.698
11.3097 8.35584 17.3863
6.67773 2.42453 14.3865
10.3151 7.75653 16.3624
10.9207 10.2973 73.4994
17.4349 14.9434 20.3994
11.2238 12.0442 49.9502
5.70075 5.68092 14.1031
11.9484 11.2497 73.1411
15.4019 12.7735 13.4232
10.6191 30.0017 74.9414
13.1694 21.8079 58.2061
9.4692 14.4771 83.9798
16.3187 10.5661 46.8909
16.9617 35.354 113.806
21.3093 7.47259 39.9857
12.7889 3.23495 67.3313
17.5214 16.1266 38.4258
16.6559 9.74998 55.3439
12.4177 13.142 12.798
11.432 6.6267 54.171
12.0391 9.45972 69.49
23.4638 26.2457 51.8874
10.533 16.9868 29.3205
11.948 7.54425 38.5643
15.9489 16.537 33.5711
9.3706 17.4087 114.421
16.7512 19.7342 102.873
29.4035 41.5992 59.5244
9.88692 7.61598 73.4097
18.0057 25.0687 86.6938
23.3742 45.9581 185.196
15.6599 8.90124 65.3436
14.0475 25.6868 67.3396
18.9909 19.6933 64.0616
11.681 24.2621 46.2591
16.3592 31.1718 139.194
16.7923 24.056 55.5457
10.9662 9.37979 50.9945
14.6712 10.217 58.1611
22.9052 17.275 43.8527
12.8406 8.5003 26.1121
13.6065 26.7431 123.959
13.9418 18.5602 50.6546
20.7487 25.4538 85.9541
9.37437 6.7593 40.0107
17.2734 15.3887 31.9098
12.7226 14.0223 43.8167
10.1026 4.94139 27.245
9.06341 8.85336 14.4618
11.9824 7.68836 33.6596
15.5454 13.5053 44.4995
10.0098 4.74516 16.7568
8.71522 9.20448 40.0606
6.76162 11.2636 42.1402
8.60439 20.9355 108.361
19.9593 5.62161 6.39884
11.1522 7.43476 61.6326
19.5957 14.632 28.7125
12.7821 6.52335 25.2283
8.99663 19.4823 67.467
21.3765 16.7277 36.2287
15.6104 18.2434 71.5408
8.85027 17.8365 49.2826
9.28736 4.33594 26.8505
14.3036 11.4987 24.3022
8.57516 5.05562 41.8429
15.5798 14.4163 45.9898
6.69755 11.3269 41.3276
8.19516 4.18368 49.2864
8.35084 17.7105 54.7283
6.33662 18.4004 61.083
14.1233 12.1515 38.7571
10.4347 11.7615 50.2283
16.5645 9.15451 26.1355
12.7868 14.8871 90.6866
7.79177 27.8349 81.18
19.8319 10.5994 29.9597
11.3828 22.1033 49.2626
9.16436 8.13265 78.7392
13.8241 27.1441 93.1785
12.0932 6.29513 14.7902
10.8394 13.5772 44.8308
12.6687 9.25399 31.4033
7.32536 2.80508 31.3455
9.11845 12.0527 56.8522
11.2697 15.1993 24.0099
11.6548 12.6586 49.5466
10.3998 9.51442 35.8031
12.5515 9.35205 34.7437
14.1892 18.4801 62.0977
13.1864 10.6233 33.7775
15.3029 13.0134 48.1964
8.2157 18.4121 69.1586
6.85416 6.76482 73.7257
7.8132 15.1881 75.904
5.14455 32.3906 70.212
12.6078 18.1856 72.0766
13.4151 13.0295 69.366
14.7683 14.4069 101.874
18.1198 16.211 53.6902
13.9005 23.6463 84.5197
18.5213 25.9689 100.805
7.98044 13.6029 38.6311
6.78234 6.2394 82.7011
10.5766 18.2107 22.3974
9.19074 38.5297 55.9846
10.1106 7.40205 49.8037
14.968 6.8607 22.2123
7.06895 7.45481 10.3093
8.94126 11.1388 49.6991
14.6055 22.8745 94.8042
21.4503 9.9443 43.2344
17.5234 19.1434 91.544
9.89817 8.48846 29.735
12.1101 10.4829 61.2271
11.2975 17.1493 33.3534
6.89653 5.24914 29.9421
5.35758 26.529 96.4161
12.6608 13.7102 98.5255
12.9839 22.187 30.4724
9.53651 13.7108 19.2104
10.6823 11.4514 50.3023
12.9522 10.8585 69.815
19.9261 8.42832 15.6843
5.00708 9.55506 32.7823
10.7939 8.59121 50.9958
15.309 4.69024 62.0616
18.0814 13.2628 26.6341
9.07584 10.388 73.9576
19.5033 16.1571 61.1642
14.4148 20.0513 54.6198
8.77983 9.44816 34.1036
8.62842 14.4442 35.0903
10.8389 3.46795 43.3086
8.68549 25.2135 99.2668
15.2568 14.6989 23.1082
13.2248 6.3005 38.6882
10.2877 16.5289 51.2581
10.5359 9.31544 40.8178
14.835 14.2692 42.3753
10.9756 16.64 100.229
17.1568 22.2329 104.505
21.0715 18.7047 43.3292
12.9058 8.11703 130.723
27.9885 23.8367 54.0735
13.8795 32.8734 123.705
10.249 11.7488 46.0216
14.2712 19.8286 24.3794
14.6378 34.4989 68.1297
11.6804 18.7555 34.6172
10.0175 8.89711 67.9356
12.3641 10.7008 80.0227
7.7019 14.2771 36.1355
10.8044 30.8954 99.817
9.49281 11.2866 59.1391
14.7706 11.0963 31.8932
11.1138 8.92414 31.4263
8.07826 5.71479 55.3642
13.7542 29.1387 73.7269
11.8996 17.6751 76.9993
13.3905 12.5345 26.4254
13.4615 11.1423 53.3389
11.9964 7.20944 37.0189
9.64028 6.51035 61.4902
13.2645 14.9526 29.9567
7.39004 7.58569 58.4438
11.5095 17.9392 82.0047
10.8477 26.8764 77.6572
17.6239 11.9875 36.8338
5.29462 8.46391 33.1843
6.08263 10.8478 48.0427
12.4062 15.2806 40.3171
7.25441 8.13858 47.0387
11.7196 14.1649 43.4985
11.2444 12.5044 32.927
11.7929 9.51647 35.9203
12.7615 4.18827 20.9941
13.6318 10.9027 26.3641
7.48645 10.8279 59.8924
16.9911 9.13913 66.0327
9.29999 17.3795 71.994
12.6467 7.5648 32.987
14.5678 11.8903 21.3237
12.3028 4.99295 26.9179
12.6785 15.3621 66.643
10.199 7.43241 15.8708
7.54395 11.0135 64.1457
14.7058 10.8405 40.0984
4.91213 8.47083 84.0511
16.5706 11.9306 87.9039
13.3787 24.0983 53.4166
8.30429 29.9519 46.3272
10.7708 12.5067 50.3892
13.2681 6.46242 56.4032
10.8559 13.7943 63.7798
14.6242 12.8757 47.6505
15.3629 15.8779 43.6506
9.89983 3.79491 49.2571
5.48686 11.1114 19.7702
6.8409 20.6731 90.0442
15.1498 16.4023 33.6271
11.3319 3.37697 32.6195
9.8377 10.3472 56.5282
18.255 12.0611 23.139
10.0361 13.9509 28.2417
9.56591 4.50436 42.2372
10.5212 22.8028 62.4595
17.1303 8.13489 37.3054
11.6973 4.35886 48.345
15.0083 24.9902 62.287
7.74165 7.38472 70.5594
15.3651 18.98 45.5994
8.40746 16.4212 39.7402
12.2781 12.6917 74.5568
14.2861 7.90485 7.85375
9.51935 6.36281 32.4478
7.45974 7.84147 63.4293
8.66182 15.5893 56.1839
12.4629 13.5751 25.8706
10.4356 22.1559 85.0744
13.1285 10.1534 69.7937
20.2834 16.7394 51.726
8.22003 17.3261 42.201
12.405 4.24663 49.5369
12.6158 13.2579 37.4323
6.48015 18.9807 33.879
11.2141 3.44471 32.8756
15.3744 10.5809 56.5901
5.01844 8.11598 61.604
10.6759 12.8329 59.644
14.2029 18.1453 44.9466
12.9013 13.5318 69.4548
16.7261 43.4574 81.5988
7.90915 9.25041 57.3872
7.4929 5.41129 57.3063
9.48894 17.7862 49.0889
9.87145 3.40816 41.4428
10.9266 14.6493 31.8009
7.43682 8.01071 59.4217
11.4409 13.5221 53.9457
15.9599 5.54245 26.3307
8.95219 33.2014 177.941
27.4977 31.2055 56.8194
13.2342 13.5454 20.2789
11.3006 13.5483 74.3538
18.8027 9.94675 42.0767
14.5935 3.58498 34.688
10.0619 16.9904 32.4953
12.6178 6.25378 66.2698
15.9097 7.67372 63.0435
11.9822 27.6473 50.6814
10.4945 16.212 48.5374
9.35896 6.04181 94.4753
17.4625 17.9015 80.5944
9.24035 13.5237 27.8966
12.73 6.30329 58.7765
16.8535 25.2163 38.7628
12.361 6.70736 37.9634
14.8218 19.4729 80.6249
9.33394 11.2369 79.8555
10.9232 21.9407 53.4821
9.87931 8.89512 22.7477
12.882 5.71734 41.4153
9.50423 22.5068 86.9751
18.2495 10.4924 112.201
19.2652 33.1938 54.7988
16.0838 3.99077 51.6237
17.5593 4.40756 48.1795
16.6527 19.123 54.6325
11.4949 15.1693 89.3963
10.8999 20.2834 89.5241
20.0517 18.0703 56.7366
18.3877 20.9795 57.4132
9.9221 36.202 111.824
7.51208 9.97256 58.0977
14.5037 16.8667 76.7555
15.585 32.6498 74.9587
7.42242 18.6056 56.126
7.0667 12.04 67.305
7.40879 14.0852 73.455
10.0172 8.10287 66.6244
5.38071 9.25429 28.0772
7.57072 6.71297 28.8112
13.5244 5.52174 70.3142
8.59172 17.2507 88.1319
15.1484 20.52 34.0895
9.87044 17.4355 41.4599
10.5787 10.6367 71.4277
9.52417 12.7627 18.272
7.89457 16.2294 84.9672
14.9516 7.45757 39.5897
10.709 22.49 39.1375
12.5975 13.1678 51.9932
14.0642 6.19498 43.0325
11.777 16.5426 56.21
17.2162 21.6255 75.0271
14.9824 10.0427 53.9491
8.66376 6.45596 15.6157
6.15212 5.58448 61.0825
4.53675 12.4515 28.4012
10.371 4.36132 26.9763
10.0125 20.9917 97.0308
13.258 23.4137 57.9828
14.8894 7.0179 18.805
10.7331 7.453 19.4677
10.6814 9.8514 56.9461
10.9092 25.0475 181.713
28.6684 31.0873 34.7734
8.72634 5.77121 32.9742
12.8827 18.8622 80.309
8.08974 12.9041 113.028
17.8616 23.1744 39.4279
10.8684 11.8744 16.8567
8.61345 10.7131 108.94
16.8162 15.0129 51.9041
13.3892 4.55743 75.4416
18.0319 24.4457 59.6874
13.9815 26.4515 44.5024
10.2122 13.1633 95.6742
13.7079 18.0032 51.1465
9.75038 11.8098 29.7599
11.0942 8.32558 31.7389
10.394 10.2221 44.1404
6.71495 6.97252 48.2181
13.3898 0 0