# pn-170911/CsIIA-av-CsII-1280-1959.psd
# Power spectrum* (dif=0,1,2) (really just |FT|^2)
# NOTE: only the first half! (symmetric)
# weeks: 1280-1959
# 4530 clock-days, 1461 excluded
# PSD: 1441
104603 3.08829 0.0556641
5.08602e+06 76.0165 0.0529884
3.36884e+07 691.862 0.0651907
4.03318e+06 155.902 0.0573204
4.85437e+06 357.22 0.0772325
1.50272e+06 148.164 0.0675746
1.08248e+06 157.022 0.0773081
788498 152.453 0.0858822
652343 154.894 0.099712
450052 143.561 0.103764
420993 153.881 0.120113
333379 151.683 0.13756
292266 148.726 0.15219
233005 149.421 0.166206
229908 148.721 0.187934
180916 149.45 0.212545
179918 154.173 0.242073
143091 150.081 0.252139
141900 149.407 0.278781
107442 141.369 0.292219
112180 140.959 0.320024
87693.5 147.597 0.358849
94405.4 148.747 0.387787
74453.6 144.839 0.414868
78980.7 146.721 0.448535
64010.4 147.584 0.492286
68688.2 147.809 0.526101
54868.3 145.819 0.545327
57092.6 149.929 0.60242
47241.6 145.913 0.622707
48335.1 149.023 0.687243
42164.3 150.763 0.738868
41949.6 147.318 0.771595
35821.5 147.217 0.807299
33902.8 140.242 0.824955
31981.8 146.852 0.908443
31199.9 148.78 0.963159
29236.6 147.511 1.00126
27395 140.939 1.00793
26610.5 146.58 1.10671
25285.2 149.288 1.17023
23920.5 151.969 1.2682
21949.1 143.825 1.26802
20908.7 147.474 1.33911
19974.8 147.026 1.3929
20236.9 148.993 1.47957
19139.4 147.503 1.52424
17743.7 144.696 1.56749
18051.6 145.081 1.63504
16171 141.589 1.65386
16440.5 147.563 1.78384
15649.5 148.109 1.88091
15540.1 147.306 1.93668
13778.6 144.097 1.96285
14061.2 138.697 1.95106
12929.3 141.587 2.08395
13107.2 137.714 2.10546
12437.2 145.408 2.28215
12942.2 138.514 2.25998
10884.2 134.354 2.26533
12688.2 144.4 2.52218
10529.5 139.673 2.52019
11582.1 138.744 2.57203
10289 143.756 2.73334
11026.2 138.205 2.73158
9197.47 135.577 2.76582
10392.9 142.04 2.97776
8937.94 138.912 3.01652
9375.02 135.262 3.02616
8519.79 143.666 3.30184
8426.22 134.179 3.15254
7737.7 134.002 3.25771
8118.57 138.738 3.44142
7498.37 144.548 3.65784
7551.09 136.681 3.57234
6933.28 135.976 3.66703
7281.55 143.05 3.9716
6487.52 136.288 3.87934
6579.26 138.814 4.04663
6010.31 134.337 4.03082
5928.09 133.495 4.0813
5799.6 139.969 4.37814
5390.04 127.125 4.1093
5255.68 130.981 4.32015
5427.54 136.012 4.58971
5122.26 133.21 4.59203
4892.9 124.736 4.39987
4966.67 136.16 4.93633
4892.23 132.143 4.92114
4515.19 128.891 4.88896
4741.12 129.789 5.05645
4310.37 127.925 5.02281
4598.69 129.442 5.22479
4482.76 136.007 5.6364
4448.94 128.002 5.41257
4191.33 129.248 5.59136
4358.87 127.979 5.63013
4059.28 128.944 5.77826
4201.65 127.752 5.87875
3917.91 133.73 6.24021
4155 126.355 6.01909
3719.09 127.614 6.19405
3915.3 123.604 6.13589
3519.15 124.278 6.26577
3866.56 123.823 6.38276
3534.63 128.063 6.73521
3733.24 127.737 6.82483
3308.63 122.205 6.65425
3518.9 125.052 6.93062
3118.23 123.527 6.9561
3372.25 127.007 7.32103
3019.11 120.744 7.09414
3085.27 124.29 7.40873
2964.65 126.322 7.72588
3067.69 123.013 7.552
2757.62 118.561 7.51728
2838.88 120.431 7.67555
2542.18 118.57 7.72268
2591.77 114.423 7.59502
2447.37 117.294 7.84494
2476.47 119.546 8.16575
2372.29 118.949 8.30025
2324.24 117.839 8.32402
2278.73 117.967 8.50654
2292.24 118.933 8.63411
2220.65 115.473 8.54808
2068.39 111.598 8.36823
2150.48 120.839 9.24561
2044.63 113.588 8.85186
2044.16 115.234 9.07784
1974.95 113.203 9.05476
1995.34 114.704 9.37209
2025.12 112.412 9.3475
1926.23 116.228 9.75052
2000.89 111.349 9.44209
1945.81 116.542 10.0883
2017.25 114.468 9.96365
1850.23 111.5 9.88022
1940.59 110.21 9.95948
1831.67 109.45 9.97862
1884.51 108.508 10.0418
1751.27 106.43 10.0844
1883.29 114.49 10.9266
1762.86 109.598 10.6557
1786.6 109.58 10.7056
1736.47 109.127 10.8392
1801.72 110.62 11.1739
1705.86 111.971 11.3896
1774.75 114.841 11.9234
1586.34 110.346 11.5339
1640.81 107.623 11.4098
1481.53 101.637 11.0194
1617.29 107.608 11.7559
1494.14 105.939 11.6569
1522.34 105.759 11.8403
1375.73 105.449 12.0016
1473.02 106.59 12.2119
1270.04 100.192 11.68
1345.69 107.819 12.7272
1388.71 111.506 13.3138
1260.52 102.22 12.3199
1258.39 104.287 12.7434
1205.7 103.818 12.8949
1185.54 99.3968 12.4715
1197.91 101.558 12.9427
1159.48 99.9489 12.9159
1103.53 101.456 13.0448
1180.7 102.398 13.4899
1093.89 98.6925 13.1303
1115.86 103.255 13.8702
1074.76 100.586 13.6987
1068.38 100.056 13.6972
1060.92 96.4999 13.3799
1025.44 97.4524 13.7579
1066.02 97.1679 13.7974
1063.48 103.357 14.9225
1047.48 95.2301 13.9201
1060.63 101.512 14.9391
1043.86 97.2348 14.4899
998.105 96.597 14.5104
1063.17 96.7854 14.7602
965.715 94.8235 14.588
1079.67 94.8155 14.7175
944.073 96.0536 15.0575
1013.67 92.7477 14.6912
915.005 91.445 14.7339
1032.46 92.9401 15.1779
930.553 92.8608 15.3068
991.721 95.8112 15.7888
875.676 91.998 15.4703
1004.36 93.2765 15.822
861.415 92.8716 15.9971
1009.41 96.3708 16.7826
835.463 90.0212 15.7639
891.865 91.2868 15.988
819.825 91.3474 16.3331
893.544 91.6469 16.4896
801.37 92.6508 16.8243
841.322 92.3155 16.8909
724.434 87.7102 16.3681
758.374 88.0688 16.4965
751.386 89.4908 16.8931
756.496 89.8241 17.1502
699.027 88.0372 16.9841
695.749 88.1694 17.1448
671.737 84.9249 16.6942
677.234 87.1023 17.3063
675.255 88.0698 17.6355
687.071 88.8506 17.9451
623.598 82.8151 16.9748
638.379 87.4421 18.0405
635.37 85.5607 17.8412
624.969 87.1446 18.3829
616.601 84.2943 17.9849
600.876 83.2789 17.7805
607.986 85.1693 18.2871
618.36 83.5377 18.1561
636.142 85.0453 18.7675
623.417 81.8784 18.2651
601.051 85.3915 19.0733
647.289 84.6965 19.1722
575.948 82.5339 18.7694
638.361 81.4287 18.6531
576.761 80.5799 18.7635
648.174 78.9799 18.6052
577.451 81.8083 19.2819
626.075 80.0685 19.0686
544.971 79.696 19.2801
640.407 81.4566 19.624
551.947 83.5432 20.5119
622.925 82.232 20.1533
539.712 78.3888 19.5288
585.502 77.7297 19.6138
521.859 79.3975 20.153
608.713 79.3842 20.194
512.246 79.2771 20.4582
570.301 77.7275 20.1152
471.266 78.0935 20.4646
531.331 76.8116 20.2722
478.21 77.1584 20.684
510.902 76.1422 20.4553
460.212 78.2396 21.0277
499.656 78.0255 21.2995
445.044 75.5046 20.5921
474.456 79.5931 22.1642
422.738 74.7555 21.0552
438.152 77.0253 21.6942
426.749 79.0309 22.1713
406.15 73.7469 21.1324
429.184 76.6291 21.9454
413.842 74.1659 21.4893
412.613 74.3004 21.6858
389.672 71.4171 21.116
381.186 73.0155 21.6766
392.374 73.9022 22.0761
381.537 73.4365 22.1964
408.374 72.0114 21.9066
383.611 73.3321 22.2957
417.783 75.5585 23.2636
367.012 71.6577 22.4387
413.046 76.8278 24.189
374.348 72.6827 22.7991
405.868 70.1049 22.2556
359.795 71.8523 23.273
424.198 70.2984 22.5771
361.106 71.3591 23.0588
442.301 71.8182 23.3334
349.308 70.6201 23.4602
432.107 70.6446 23.4962
358.817 71.4544 23.7963
424.008 69.5501 23.5335
346.712 69.7777 23.7147
416.327 68.4753 23.257
333.693 70.5577 24.5633
404.602 67.0846 23.1777
321.867 67.456 23.6167
389.78 68.7724 24.1817
319.234 69.0097 24.6213
374.108 65.4471 23.4874
306.428 66.9316 23.8754
354.077 68.6247 24.6571
294.113 67.5907 24.5899
321.01 65.238 24.066
279.164 64.5368 23.8057
320.172 66.5069 24.6046
278.853 68.4579 25.6291
294.078 64.0982 24.272
281.327 66.0792 24.9408
276.633 64.9213 24.6197
262.716 65.1127 24.9038
258.236 65.0916 25.3955
263.679 62.6547 24.4991
263.744 64.6976 25.3295
253.031 63.6922 25.1683
260.055 65.2718 26.0803
254.437 66.0697 26.5156
265.458 63.6711 25.4321
245.138 62.725 25.2652
261.075 62.6697 25.6245
251.513 64.8277 26.5577
268.344 62.7662 26.0519
242.267 62.2718 25.8034
269.261 60.897 25.3512
242.486 64.0191 27.0069
272.311 60.2908 25.6646
241.204 62.239 26.4551
282.365 63.4212 27.2766
239.089 61.3197 26.4307
290.939 61.4124 26.565
228.399 59.0159 25.6804
292.389 58.4878 25.7501
230.263 58.483 25.9711
302.428 60.1346 26.9901
232.668 61.5239 27.6675
290.474 59.7648 27.0374
222.587 57.326 25.9042
287.397 60.6406 27.8798
219.986 59.771 27.1442
271.232 60.3115 27.8649
223.085 59.333 27.8287
262.329 57.9189 26.9707
209.14 58.4507 27.3463
242.093 57.9543 27.9899
219.556 59.5706 28.0933
230.033 58.9389 28.0138
203.186 56.9253 27.4612
224.472 57.6881 27.9706
199.627 57.8944 28.3587
206.949 56.543 28.1142
194.898 57.0961 27.9743
206.373 57.3645 28.1564
185.507 57.1576 28.9138
187.016 56.7943 28.3392
191.693 59.0217 29.8001
190.555 57.0781 29.0901
189.322 58.0454 29.3698
188.729 57.1009 29.2989
179.861 54.6027 28.3788
185.664 54.0516 27.6917
179.809 56.4087 29.3827
188.264 54.0104 28.5853
183.24 54.9587 28.8093
195.585 53.0811 28.0316
182.039 54.8238 29.2
206.751 54.8575 29.5238
181.157 54.651 29.6299
199.817 51.6916 28.135
182.513 54.5772 29.5941
216.275 54.3733 29.7314
179.899 54.2914 30.2707
216.575 54.941 30.3799
175.41 53.8737 30.0695
218.515 50.7697 28.6088
179.742 51.6988 29.0816
214.393 53.0886 30.0721
175.424 50.8847 29.3788
214.531 53.1167 30.2402
175.337 53.3989 30.7301
210.956 52.2832 30.2516
173.981 52.0511 30.0263
196.391 50.3135 29.797
173.651 51.5172 30.6241
196.339 52.4835 30.7209
161.332 51.3982 30.6846
192.478 54.2066 32.187
160.528 50.5331 30.735
173.213 49.9151 30.1724
160.663 50.7088 30.6907
164.101 50.548 30.855
153.266 49.0016 29.6558
158.965 49.0822 30.2204
143.931 48.0972 29.6723
150.553 48.461 30.3146
147.258 51.216 31.9425
146.829 49.6827 31.16
144.394 50.383 31.5989
146.453 47.4825 30.5774
144.16 49.7017 31.8106
144.533 48.1392 31.0537
141.844 48.1915 31.2616
147.046 47.6831 30.5959
139.35 47.0987 31.0985
151.639 48.6212 31.8231
139.468 48.8498 31.6782
157.67 48.9074 32.4633
144.449 48.7794 32.6395
161.78 48.1428 32.1344
143.781 47.1859 31.7258
160.523 46.6426 31.688
145.397 48.1853 32.8643
161.198 47.8373 32.2331
147.937 48.219 33.034
171.882 47.0829 32.6163
145.488 45.7452 31.5203
166.536 46.4872 32.1227
144.655 47.5083 33.5121
167.578 46.506 32.1726
144.197 45.6175 32.1604
164.335 46.9508 33.0197
145.896 45.9934 32.9527
157.347 45.5051 32.3765
138.174 45.8591 32.8184
157.052 45.7299 32.7951
139.477 45.071 32.8236
153.663 46.0834 33.2979
135.977 44.3998 32.4093
141.423 46.336 34.0529
130.097 45.0296 33.4031
136.403 44.056 32.4779
126.909 44.5102 33.3602
129.532 45.5006 33.9519
124.301 44.9196 33.4154
120.4 42.8556 32.6488
120.298 43.3413 32.4172
124.697 45.7805 34.4946
113.254 43.3438 33.5492
114.806 44.4326 33.9417
117.695 43.967 33.9565
112.389 41.5173 32.4024
113.338 44.1818 34.8432
119.962 44.4342 34.6164
109.447 42.2308 32.9819
115.287 42.3906 33.4101
117.717 43.7076 34.4566
118.013 42.609 33.8669
117.849 41.7325 33.4593
120.512 42.3653 34.5187
117.184 41.2499 32.7815
123.263 42.3095 34.5934
116.342 42.5439 34.6057
128.291 41.936 34.1331
119.891 41.9298 34.3993
133.711 41.5674 34.577
124.247 41.2092 34.2189
132.23 40.8591 34.1244
117.67 41.2509 33.8167
132.97 41.7517 34.8788
118.596 41.8101 35.1253
132.389 40.7044 34.7482
114.993 42.1688 35.5357
132.465 39.0969 33.5761
115.417 40.7451 34.7964
130.445 41.8256 36.2067
109.387 41.1068 34.9353
122.643 40.0249 34.9082
107.205 39.2484 34.5386
119.073 39.8987 34.8316
107.034 40.0376 35.0084
115.418 40.57 35.4655
101.518 38.5049 34.0644
109.812 40.1734 35.649
97.8753 39.0698 34.8743
102.794 40.0234 35.9799
96.0344 38.5826 34.5049
97.72 39.7117 35.959
100.697 39.4682 35.9891
93.9517 38.9497 35.3348
94.8256 39.6059 35.8702
91.8078 38.82 35.9942
94.3062 38.5652 35.5041
94.897 39.026 35.9232
93.3993 37.2782 34.2307
91.596 37.874 35.3009
93.9799 38.985 36.7039
95.4334 39.2089 37.0964
91.0215 38.8256 36.5638
94.3599 38.241 36.5015
90.5088 36.545 34.3957
100.008 36.5249 35.1867
93.6254 37.0307 35.5635
104.472 38.1123 35.8837
94.0768 38.0419 36.587
107.41 37.2622 36.2932
95.3402 38.3359 37.6315
110.693 37.8931 36.3352
94.8711 35.7539 35.1944
109.171 36.7831 36.3816
95.6953 37.265 36.4688
115.604 36.5276 35.9068
97.7321 37.1501 37.3174
115.805 37.8275 38.3588
93.1712 36.109 36.0289
113.769 36.0008 35.437
94.4033 36.3511 37.1586
109.476 35.8671 36.4009
88.5482 35.7228 36.4451
100.141 34.0671 34.6764
88.5752 36.4924 37.5446
99.848 36.072 37.4117
89.56 35.6814 36.1459
92.0738 34.9558 36.6505
81.3125 33.0413 34.269
90.9624 34.6249 36.434
81.1484 33.5515 35.111
87.0902 34.853 36.8139
76.817 34.7172 36.8081
82.4262 35.3326 37.6965
78.401 35.5922 37.4959
78.14 34.3609 36.2648
75.0458 34.8465 37.1819
76.1156 34.5175 37.5836
75.1064 34.2637 36.8391
73.4887 34.0493 36.7064
77.372 33.7755 37.1035
77.4066 33.6468 36.9384
75.0991 34.4383 37.9937
77.3972 33.3226 36.2887
76.1407 33.7956 37.0919
80.9627 34.0974 37.3952
77.7549 33.6949 37.4235
83.0573 34.302 38.6569
78.6196 34.5929 38.4715
89.2374 32.8829 37.3315
81.6945 33.7559 37.644
89.3576 34.2683 38.3587
76.2001 33.2501 37.8597
93.5383 33.8966 38.1751
78.6642 33.3152 38.1358
94.7784 32.7629 38.1081
79.1955 32.5305 37.0402
92.3146 32.5354 37.4188
75.9119 33.2303 38.2233
96.377 32.694 38.1425
73.3149 32.5785 37.4476
95.6407 32.2831 37.9775
75.6894 32.3577 37.6005
92.5485 32.8158 39.0517
71.5856 31.1516 36.7874
88.8071 32.4258 38.3623
69.8989 32.3747 38.6667
84.4554 30.7238 36.7077
69.6084 31.7939 37.9273
78.3707 31.9459 38.5911
67.0774 31.6557 38.2135
78.1447 32.3651 38.9742
64.8913 30.8313 36.8119
71.628 30.9863 37.9344
64.0841 30.9908 38.3457
65.4763 30.2229 36.9148
64.1377 31.6779 39.0291
64.8541 31.0942 37.8441
63.638 31.5394 39.0283
60.8883 30.4556 38.1803
61.6109 31.1172 38.6848
64.4369 30.9101 38.4458
62.41 31.2614 39.5751
63.7751 29.8967 37.6332
60.7829 30.9069 38.4057
64.6906 30.729 38.9907
59.6825 31.3209 39.6011
69.3493 30.4722 38.7284
61.7199 29.8383 38.6031
73.113 29.8411 38.4045
60.9974 29.8434 38.4136
74.0868 28.8304 36.9195
59.6866 29.1081 37.8567
75.2574 30.1863 39.0452
61.8639 29.4961 38.2334
76.9073 29.1968 38.1435
61.8477 30.1256 39.029
78.8502 29.4416 39.1502
61.1755 29.0697 37.9495
81.9478 28.9743 38.6653
59.5956 28.9175 38.1872
82.5631 29.8515 40.1377
58.7473 29.3587 39.3588
77.541 29.3304 39.1189
57.2684 28.4231 37.9589
77.6758 28.6855 38.4892
57.6629 29.2066 39.4243
71.4209 28.1601 37.6412
54.6775 28.7835 39.5555
69.3819 28.6013 38.6199
51.0839 27.6743 37.919
66.1245 28.4247 39.2688
56.2221 28.0193 38.8865
57.8391 27.6582 37.8461
52.4515 28.5738 39.4524
54.9708 27.832 38.8953
50.8995 28.1977 38.731
53.2435 28.0261 38.6483
47.3771 27.9832 39.9701
51.432 27.7972 39.5045
50.6302 28.3708 40.0128
50.2986 27.7031 39.2113
47.8404 28.4062 40.909
49.366 27.7115 39.4243
49.7774 27.0043 38.168
51.1482 27.7024 39.2446
48.3149 27.0583 39.1202
52.3013 26.993 38.5242
46.3116 27.6591 39.7893
52.2634 27.0805 39.5239
48.0453 27.7099 39.751
58.9922 27.6565 40.4517
47.6135 26.7141 39.0506
58.9903 26.8532 39.5705
48.0494 26.1077 38.868
62.0371 26.6505 38.9756
48.1659 25.6777 37.8725
62.7677 26.3952 39.127
48.209 26.7478 39.2186
64.8367 26.0134 39.2132
47.8699 26.2396 39.3182
66.0722 25.4067 37.9949
47.6546 26.7587 39.9724
65.3589 26.9929 40.0813
48.9435 26.3754 39.7437
63.256 26.4884 40.9896
46.3081 26.2554 40.255
61.598 27.1353 40.5516
48.0229 26.8366 41.0302
59.3784 25.9073 38.8934
46.1513 26.4951 40.9266
58.877 26.0588 39.5571
44.5987 25.8936 40.018
51.6975 25.4211 39.4989
44.4456 26.3182 41.1103
49.9675 26.2038 41.4525
42.3341 25.7218 40.2157
45.6471 24.7436 39.0996
41.8331 24.1447 38.0127
42.3375 24.4485 38.1315
41.1999 25.1038 40.0683
42.9016 25.9032 40.7453
39.6522 25.1001 40.2349
41.4904 25.3135 39.8405
41.1084 24.4119 38.9991
41.1645 24.9669 39.9361
40.0928 25.2852 39.9659
41.0224 25.8559 41.1743
41.4561 24.9489 40.6106
43.5751 24.7799 39.8368
40.0865 24.622 40.3919
46.2062 24.9952 40.578
40.3913 24.5864 39.9096
50.3337 24.8773 40.6896
40.5172 25.0429 41.618
50.96 24.8254 40.4897
42.3472 24.2006 39.1984
52.3663 24.6289 41.2465
42.3877 24.7914 41.7079
54.3521 25.1076 41.5984
44.4008 24.1513 39.2054
55.0805 24.0294 40.1464
43.1165 24.2469 41.3512
57.0201 24.587 41.3593
43.2739 24.6775 41.3996
56.6957 24.5924 40.8084
43.9079 24.2142 41.5125
55.3785 23.4953 39.8135
43.1241 23.0517 38.4096
53.2261 23.2317 39.6673
42.0413 23.4648 39.5228
50.072 24.0312 41.5189
41.6511 23.8951 41.5189
49.4296 23.5173 39.3431
39.6871 23.4797 41.059
44.0626 22.2757 39.4383
38.7498 23.4663 40.6829
40.4454 23.4692 40.7879
37.8725 23.2164 40.0731
39.1095 23.0949 40.5325
37.7121 23.1078 41.9192
39.3235 23.5764 38.9344
36.228 22.8435 40.3384
38.1024 23.4714 41.1976
35.7678 22.5923 39.872
37.2007 23.3228 41.3072
35.4982 22.5946 40.1767
37.1239 22.346 39.9433
37.1697 23.2231 41.8875
38.7393 22.9466 40.766
36.9799 22.6005 40.6811
38.8958 22.5757 40.4845
37.9982 22.96 41.0654
42.3963 22.5692 40.4134
37.2434 22.3907 41.3412
44.1642 23.6246 43.0281
38.8134 22.3274 40.267
44.9512 22.1481 40.1557
39.4104 22.3485 40.7843
45.7219 22.4058 41.3705
40.7656 22.2643 40.3366
47.5754 22.3517 41.2884
41.5212 22.5277 41.6861
48.4196 22.1128 41.5142
41.7004 21.2105 38.8564
47.5158 21.777 40.3658
39.792 21.6295 41.2608
49.4111 21.9509 40.674
41.3239 22.761 41.5339
47.3642 21.5391 40.5547
40.0057 21.8993 41.2339
46.7003 21.7148 40.1435
39.3023 22.271 42.2325
44.2288 21.1556 40.53
38.1605 21.3343 41.1937
42.7485 22.278 41.491
38.0128 21.0907 40.4655
39.871 21.5975 41.4179
36.3002 20.9832 40.523
38.2057 21.1619 40.8564
34.6371 21.206 39.9152
35.3697 20.5591 39.8529
34.3024 20.6881 39.6895
34.5786 21.0685 40.4102
33.7245 21.3797 42.0285
34.0868 20.5712 40.1075
32.8318 20.946 41.1807
33.9076 21.2626 40.5412
33.1669 20.6932 40.8209
33.0485 20.9745 40.458
33.1632 20.3704 40.4003
33.7772 20.2861 39.9419
35.4182 20.6202 41.51
34.8183 20.6187 40.1382
34.6737 20.6712 40.6198
36.987 19.9902 40.2198
35.6282 20.5595 40.1525
38.9432 20.6663 41.5736
37.0942 19.6599 39.3586
41.0785 20.1742 41.0422
34.6816 20.1782 40.3939
40.9669 20.2791 41.1253
37.6413 19.8212 40.304
42.4114 20.4018 41.344
36.8519 20.9559 43.4794
45.4535 20.1595 40.2899
37.4915 19.8153 40.2296
45.1571 20.3866 42.5079
35.5942 20.1039 39.9797
44.2199 19.6687 40.6249
36.3387 19.8429 39.9033
44.2587 20.104 41.0127
36.2039 20.8053 42.2649
42.6695 19.5022 40.4193
34.498 19.4483 39.9028
39.3833 19.3706 40.5416
35.2832 19.4963 40.7658
36.8489 20.2069 41.9344
33.8098 19.8161 41.8372
35.9697 20.021 40.7818
33.6845 19.5327 41.6306
34.6538 20.0595 42.0685
32.4468 19.7134 41.7198
32.6468 19.3674 40.5987
30.3454 18.8556 39.8479
31.6616 19.5542 40.6327
31.2332 19.4579 41.5497
30.6946 19.1286 40.2852
31.4227 18.3944 39.7059
29.9827 19.0106 41.0328
30.6449 19.4904 41.3503
30.7715 19.5327 41.0094
29.3672 18.7222 41.269
32.0293 18.6456 40.0022
30.2505 18.5188 40.2619
33.9767 18.7449 40.7904
31.4296 18.2298 40.0116
35.6123 19.0925 41.2096
31.651 19.0474 41.3604
36.6205 18.6089 40.482
33.3276 18.8622 40.7276
38.0302 18.501 40.1651
32.9187 18.9629 41.999
40.1794 19.0379 40.9135
34.3622 17.9068 40.1994
42.0034 18.8645 41.5531
33.2171 18.8613 42.1949
41.3849 17.9754 39.3064
35.6597 18.392 41.3353
42.1688 18.2259 40.3479
34.37 18.8367 41.7688
41.3542 17.9999 40.0245
32.2645 17.9174 41.3883
41.1464 18.586 40.3611
33.6094 18.7537 42.3991
39.2 18.479 40.9155
31.4764 17.9983 40.7008
36.8522 17.9182 39.7133
31.2158 18.0935 42.0206
35.1821 18.2325 40.4267
30.8526 18.0587 41.2941
33.4533 17.451 40.1089
29.7954 17.8001 41.0866
32.9164 17.3572 39.3435
28.3498 17.4617 39.562
31.5057 18.0958 41.4216
28.2778 18.0027 41.695
29.7914 17.6989 40.7598
28.2999 17.5669 40.1215
29.4478 17.2069 39.7858
28.7152 17.9763 41.3031
27.5117 16.9928 39.984
28.5446 17.6347 40.7316
28.9813 17.6778 41.1607
27.8934 16.9831 39.2629
30.2688 17.2454 39.9063
28.8696 17.1538 41.2218
32.0166 16.7388 38.8968
28.632 17.0174 40.252
32.3608 17.3496 40.0486
28.5961 17.4762 41.9701
33.907 17.1961 41.0793
30.8778 17.23 40.204
35.1221 17.3892 41.0859
30.635 16.7197 39.6436
37.5703 17.4649 41.5606
30.8696 17.185 39.9093
39.762 16.6241 39.8749
30.146 17.3987 41.8448
40.5665 17.6077 41.806
30.4057 16.471 40.6177
41.4985 16.7239 40.4399
30.386 17.2333 40.6482
40.7466 16.5986 40.3299
29.8528 16.2296 39.4392
39.0566 17.0003 40.183
28.4189 16.9646 40.857
36.8408 16.6118 40.2658
28.0289 16.5665 39.9922
37.0071 16.4565 40.8401
27.9546 17.2058 42.6059
34.1304 16.2741 40.2291
28.0371 16.3748 39.6772
31.2786 16.1608 40.2781
28.3804 16.2893 39.5085
29.526 16.6495 40.4608
25.4496 16.173 40.7188
28.4201 16.8016 41.4979
26.1722 16.8735 41.6587
28.5025 16.5033 40.7399
26.4033 16.3635 40.3686
26.79 16.6343 41.2061
26.0191 16.3866 41.5174
26.1129 16.3804 40.3014
25.7669 16.2566 40.756
27.4868 16.2048 40.7779
25.3102 15.7271 39.8353
28.2374 16.5043 41.8654
25.4709 16.4724 41.0698
30.1125 16.0105 39.9553
26.3605 16.5317 42.1002
30.1281 15.6283 39.3414
26.7741 16.3524 41.2401
32.2125 15.4882 39.8474
27.1283 16.0461 40.7239
34.7799 16.4382 41.6851
26.8443 15.3339 38.9091
35.0712 16.0327 41.2265
25.3312 15.6802 40.9731
36.7924 16.241 41.5084
26.1196 15.8099 40.6301
36.9459 16.336 41.6902
25.5055 15.9755 41.4452
37.3061 16.0996 41.3569
27.3404 15.8325 40.31
37.4659 16.1667 42.2851
26.283 15.5804 40.2348
34.9046 15.5053 41.2304
25.3667 16.3855 42.8531
35.9393 16.1844 41.3956
26.6778 15.0869 38.9331
31.1389 15.3064 40.8217
25.236 15.7395 41.823
31.619 16.3289 41.9081
25.0594 15.4258 39.9918
26.8791 15.8365 41.7882
24.4235 15.834 41.3182
26.2197 15.6763 41.781
23.9563 15.234 39.8922
24.5267 15.4134 40.3494
21.2615 15.0965 40.1942
23.2412 15.8866 42.625
21.9419 15.2771 40.6246
22.7341 15.8362 42.6703
21.7409 15.3221 41.6289
22.5359 14.9324 39.4216
20.8704 15.3216 41.3565
22.6164 15.5576 40.7278
21.77 15.0578 41.7114
23.4075 15.2608 40.4936
21.947 15.0302 40.3031
25.2084 15.3522 41.2481
22.3575 14.9284 40.0183
26.2173 14.6218 39.6171
21.1382 14.5945 39.3089
27.5818 14.5805 39.6017
21.8425 14.592 39.9757
29.413 14.621 40.2094
22.3355 14.6469 40.6171
30.835 14.8178 39.273
22.4652 14.7678 39.8264
30.3243 14.4595 39.5641
22.473 14.4444 39.7646
31.2642 14.9715 40.1545
22.3914 14.4938 40.693
32.1182 14.4543 39.9971
22.4563 14.7395 40.9808
31.6188 14.0258 37.8217
22.1753 14.6881 40.0035
30.767 14.0294 40.0594
21.3282 14.2067 39.8762
29.5423 14.5479 39.4602
21.3393 14.4611 40.4498
27.2075 14.1491 41.1733
20.3144 14.0745 38.5376
25.0693 14.9225 41.9894
20.4022 14.5708 40.9762
23.4218 13.822 38.9983
19.8244 13.9768 38.9899
22.0811 14.256 40.1696
20.0558 14.4022 40.6495
19.9106 14.07 38.8314
19.2162 14.2339 40.2165
19.5846 14.3822 38.9216
18.7109 13.6568 39.3687
19.0028 14.1346 40.5057
19.7366 14.2791 39.8712
19.4158 14.0548 40.1738
18.4693 13.9055 39.798
19.1201 14.2099 39.7989
18.9141 13.8871 38.4524
20.9035 13.9559 39.253
19.2471 13.5203 40.0744
22.2053 13.5002 38.6731
19.816 14.0049 40.1653
23.2679 14.4497 41.8896
19.8703 13.5976 39.3427
25.581 14.0921 39.6946
20.2551 13.728 40.3533
26.1988 13.8384 39.269
21.3603 13.512 40.1467
28.1155 13.7657 39.4519
20.6719 13.8105 40.1377
27.8411 14.2736 40.8267
22.1792 13.8643 40.1102
28.6131 13.5687 39.5861
21.3157 13.1048 38.7505
29.1721 13.6039 39.2476
21.6955 13.8583 39.9634
28.2348 13.732 39.7825
20.5154 12.9196 39.2048
26.9752 13.5522 40.765
20.7284 13.6131 38.9605
24.878 13.4151 39.4108
20.6492 13.6817 41.4155
23.4605 13.4547 39.2976
19.5294 13.5381 40.0497
22.0054 13.9776 41.4923
18.9165 13.3966 40.8613
21.0662 13.0239 38.9676
19.1387 13.2223 38.0398
19.5255 13.1155 39.9667
18.5288 13.8709 40.772
18.6671 13.4951 39.1578
18.4957 13.0505 39.7
17.2831 13.4201 38.9399
17.4994 13.0438 39.0814
17.9383 13.1165 38.6723
17.741 13.2856 39.9331
19.1362 12.8836 38.9826
17.9319 12.8114 38.5669
18.7918 13.4369 39.7748
17.2981 13.5958 40.3493
19.1279 13.1469 40.2655
19.3851 12.881 38.2889
20.6808 12.5982 38.4066
18.8747 12.8578 39.3262
21.7963 12.5562 39.2874
19.0674 13.5907 40.2308
22.6541 13.0762 40.597
20.2262 12.8282 38.0502
24.0303 12.5931 38.6719
20.4176 13.0322 39.3856
24.6073 12.7488 39.1637
21.4914 12.7954 40.5631
25.4867 13.0198 39.025
21.5524 12.7136 38.9473
25.6879 12.963 39.0398
21.2339 12.8326 39.6832
25.277 12.5311 39.1498
21.7433 13.138 39.3832
26.0662 13.0279 40.4002
21.0983 12.9086 39.0795
24.6271 12.9141 40.1425
20.1275 13.0633 40.3797
23.5195 12.7363 38.8897
20.0155 12.626 40.1515
22.0258 12.7094 39.2388
19.6371 12.9249 40.2125
21.1271 13.0636 39.1199
18.4765 12.2687 38.2426
19.9652 12.3994 38.6186
17.4984 12.5624 39.5444
18.8274 12.2802 38.4882
16.9553 13.0112 40.5414
18.8553 12.2224 38.5093
17.3676 12.2278 38.8278
17.2985 12.6072 40.3529
17.451 12.4929 39.234
17.3706 12.4303 38.1722
17.2064 12.7481 40.4172
17.4473 12.4312 39.0198
17.1028 12.3515 40.4552
18.3484 12.6147 38.8047
17.3474 12.0523 38.577
18.9132 12.0979 38.6822
18.2494 12.112 39.3387
19.4728 11.9591 37.5522
18.368 12.4934 39.2823
20.289 12.0585 38.1062
18.947 12.028 38.7827
22.6071 12.1729 39.1817
18.9948 12.1067 38.2397
24.113 12.3794 40.3936
20.3373 12.001 38.3178
24.2861 12.4004 39.9858
19.1661 11.8618 37.1533
25.1685 12.2287 39.3066
20.1529 11.9312 38.8943
24.9275 12.1696 38.6969
21.1684 11.8981 38.328
24.8652 12.2205 40.2073
19.6251 12.0068 38.8097
24.2869 11.5368 38.3075
20.2299 11.5936 37.3112
23.5364 12.1162 39.1285
19.7522 12.2087 38.3326
22.8034 12.193 39.0924
19.7719 11.9286 39.033
22.1833 12.5079 39.0722
19.0308 11.4776 39.0088
19.7044 12.075 39.335
17.9136 12.196 40.0242
19.2333 11.7251 38.1897
17.7316 11.9337 39.1161
18.4332 11.5541 37.2489
17.9358 11.9652 39.6135
17.5776 11.5425 38.835
16.893 11.5329 37.71
16.7715 12.0376 39.1447
15.8013 11.7108 38.7529
17.0172 12.0475 39.5068
16.2835 12.3151 40.1371
17.2144 11.7212 38.3446
16.3779 11.3427 38.2611
18.4031 12.0248 39.7607
17.544 11.7371 38.1255
18.8433 11.3017 38.4272
17.758 11.8866 38.6375
19.5851 11.1091 37.905
17.8894 11.8894 38.866
21.151 11.2232 37.5869
18.774 11.87 38.3838
22.3614 11.6103 39.2632
19.3659 12.2265 38.7274
23.1085 11.3722 38.6229
19.8423 11.2722 37.9825
24.3843 11.2228 38.8114
20.2281 11.8876 39.6545
24.4787 11.3422 37.8338
19.2138 11.455 38.7924
24.788 11.5278 39.0413
19.6461 11.1923 37.6616
24.6496 11.3611 37.2683
19.5408 11.4663 37.9825
23.9543 11.4981 38.9722
19.3134 11.3555 38.9943
23.5935 11.4755 38.3524
18.6519 11.0933 38.0806
23.0881 11.1283 37.4018
17.9973 10.9224 36.0069
21.826 11.5704 38.9071
17.7014 11.423 38.8276
20.9259 11.1676 38.288
17.22 11.3457 39.1546
18.5719 11.2025 37.6503
17.7257 11.1724 38.2707
18.8491 11.225 37.7612
16.5489 11.1566 38.191
17.4352 11.0693 38.1763
17.2861 11.3702 38.2663
17.3409 11.0982 38.243
16.6941 11.4339 38.117
16.4337 10.671 38.1175
17.1767 11.2535 38.5806
17.6816 11.0372 37.0783
16.9328 10.7202 37.3642
17.7311 11.0467 38.4599
17.4534 11.1351 37.5265
19.0223 11.0053 38.384
17.997 10.8232 37.2747
19.7775 10.9293 37.5266
18.4836 10.8523 37.2305
20.7308 11.0013 38.9325
18.6969 11.4134 39.3422
23.1643 10.9532 37.4494
17.8611 10.6467 37.6057
23.857 10.8683 37.8876
19.0705 11.127 37.7983
25.2192 10.9679 37.8929
18.4137 10.9928 38.5931
26.9045 10.7933 38.2931
18.8412 11.2206 39.2228
26.3989 11.0281 38.5532
18.24 10.6554 37.3558
25.7226 11.0113 37.858
18.7127 10.9699 37.4796
25.8392 10.854 38.2559
18.151 10.5647 37.0834
24.9137 10.6072 36.3855
17.5754 10.8174 37.5212
23.2847 10.8031 38.5585
18.3433 10.9339 38.085
22.7757 10.9198 38.0239
17.2491 10.8028 38.4821
20.3745 10.9513 38.6364
17.3718 10.785 37.7966
19.4958 10.7229 38.4309
17.8525 10.7032 38.0729
18.3406 10.6424 37.5085
17.3777 10.9721 38.8273
17.0629 10.5291 37.7296
16.5647 10.8935 37.7754
17.6826 10.4867 37.6982
16.7664 10.7565 38.2728
17.4329 10.9281 36.7435
16.6402 10.5205 38.644
17.2405 10.9656 38.6813
16.9797 10.9045 38.6195
17.8077 10.7089 37.9795
17.3921 10.6164 38.1686
18.6858 10.828 38.2093
16.7782 10.6631 37.4261
20.5329 10.8985 38.887
16.7484 10.6884 38.7925
22.3449 10.897 38.0585
16.8688 10.6048 38.6911
23.713 10.7516 39.7103
17.8167 10.463 36.8469
24.114 10.7772 38.1676
17.8685 10.8399 38.2617
26.1108 10.9825 38.8634
18.821 10.9421 39.8919
25.804 10.4413 37.7915
18.2678 10.7647 38.508
25.6796 10.4239 38.4198
17.8458 11.0821 39.6617
26.7042 11.0533 40.7151
19.7617 11.4045 40.3293
24.2796 10.8421 38.6986
18.8347 10.8255 39.047
25.2105 10.6477 38.3304
18.3455 10.8428 39.7288
22.1532 10.8719 39.8409
17.5922 10.6837 37.838
22.0097 10.3346 37.6447
17.8335 10.4437 37.5564
20.0565 10.4549 37.9827
15.742 10.5069 38.7889
18.2144 10.3008 38.3833
15.7731 10.7584 37.6032
17.0289 10.4863 39.7567
15.3228 10.5466 36.7214
16.6315 10.0764 36.8097
14.9137 10.8383 38.8776
16.1827 10.2465 37.646
14.9357 10.2667 36.2297
15.4019 9.76221 35.6207
14.7777 10.159 38.1608
15.9318 10.2134 38.0836
15.739 10.7264 38.9562
16.3056 10.5124 37.5683
14.689 10.2363 38.3487
17.4507 10.3105 37.9816
15.6849 10.2158 37.1347
18.5787 10.2359 37.8184
15.7809 10.1423 36.8646
19.5957 9.85654 37.2942
15.7229 10.1647 36.7677
21.0562 10.0605 37.4616
16.3343 10.2264 36.774
21.2749 10.0119 38.6402
16.2507 10.4075 36.8677
23.128 10.1068 37.149
16.4718 9.88787 37.8871
23.3328 9.95126 36.6736
16.0367 10.2977 37.2578
23.9178 10.1319 37.9445
15.6689 10.2344 37.8337
22.9679 9.72439 36.2271
16.0382 9.75764 35.2955
23.3995 9.79077 37.5727
15.446 9.89812 37.5127
20.3995 9.85535 35.9523
15.4175 10.0884 37.8766
19.9084 10.1697 39.7622
15.3319 10.1361 37.0514
18.6079 10.1403 37.6558
14.8923 10.2676 36.1208
17.2853 9.9034 36.7676
14.4459 9.95891 37.8433
15.4774 10.194 37.4837
13.961 9.74398 36.7112
14.5675 10.1639 36.8072
14.8217 9.68116 37.3072
13.9265 9.66177 36.8296
14.1058 10.0201 36.5849
13.4106 9.48399 36.6296
13.6927 9.8985 37.4533
13.8935 9.95972 36.5234
13.8849 9.74201 36.2596
14.8672 9.958 36.6867
14.1329 10.1282 38.0516
15.152 9.58891 36.3205
13.7772 9.46613 35.3998
15.9748 9.62593 36.5786
13.8328 9.28576 36.0176
16.9989 9.77168 35.4749
14.9076 9.70762 37.5516
18.874 10.2074 38.6344
14.971 9.92014 37.5043
19.3853 10.0832 38.2857
15.7077 9.87483 36.7118
19.6811 9.53184 35.1173
14.941 9.84257 38.966
21.5292 10.0157 36.4171
15.3423 9.73336 36.8202
21.0509 9.59997 37.0565
15.169 9.67084 36.5475
21.9638 9.90854 37.5734
15.584 9.57723 35.7753
19.797 9.18886 36.0792
15.9597 9.74606 35.9181
18.9917 9.59689 36.9158
15.0196 9.29369 35.8755
18.6542 9.8046 37.2627
14.8356 10.2237 38.0942
17.815 9.702 36.7796
14.5504 9.4406 35.9661
16.2511 9.65007 36.0845
14.2553 9.82858 37.1203
15.3801 9.72526 38.0479
13.9112 9.396 36.5733
14.1867 9.927 36.5814
13.3673 9.4243 36.781
14.3245 9.68315 36.6303
13.4375 9.75605 38.304
14.0473 9.78843 36.9569
12.6058 9.72102 37.1678
12.9486 9.38831 35.9529
12.3278 9.69301 36.9808
13.4557 9.7959 36.6478
12.9885 9.7905 36.8895
13.7469 9.80937 37.0466
13.3575 9.12089 35.7967
14.6049 9.64865 36.9745
13.4693 9.51499 37.4405
15.5313 9.90687 36.8781
13.3939 9.36013 36.0125
16.2112 9.37667 36.838
14.7579 9.78545 37.1365
16.6549 9.39045 36.1735
15.3593 9.20663 36.8154
18.1238 10.0469 36.7519
15.6094 9.25389 35.7377
19.1258 9.38275 36.5377
15.6595 9.58597 36.6857
18.9893 9.05827 34.69
15.8456 9.47061 37.0399
19.311 9.44507 36.1648
16.2553 9.5598 36.3575
19.4581 9.33191 35.6463
16.1336 9.2711 35.4248
18.8191 9.30507 36.2972
15.6017 9.1843 37.2314
18.4626 9.45157 35.9793
15.2002 9.50934 35.9587
17.4765 9.47009 37.0579
14.9379 8.96524 36.0733
17.2876 9.51676 35.4344
14.1754 9.29319 36.3489
16.0433 9.24811 36.7785
13.8319 9.50315 36.0559
15.0354 9.53808 36.1957
13.4453 9.32976 36.699
14.125 9.43499 35.9317
12.8223 9.21804 35.993
13.7286 8.96332 35.4174
12.9501 9.02885 35.0883
12.9488 8.97377 34.267
12.411 8.99598 36.7697
12.758 9.16826 34.8618
12.2856 9.24799 36.9978
13.6817 9.38855 35.5288
13.0735 9.44563 35.6512
13.3513 9.08953 35.9305
12.7455 9.3326 37.1578
14.192 9.21977 35.0305
13.4774 9.17989 35.4401
14.8853 8.96509 35.2031
13.6673 9.26325 36.9105
16.0869 9.28169 34.9832
14.2598 9.20915 36.676
16.7497 9.11879 35.7656
14.3047 9.2487 35.5049
17.8907 9.15066 36.0017
14.6042 9.5416 36.7774
18.982 9.20358 35.1738
15.3141 8.93244 36.0174
19.1601 9.42955 36.7057
15.8573 9.32691 37.1094
19.5397 9.28146 35.8374
15.7603 9.21167 36.7269
18.586 9.06519 34.7877
15.7605 9.31039 36.5532
18.9319 9.2325 36.6936
15.53 9.08823 36.0292
18.6601 9.54556 36.4089
15.5231 9.39654 36.8681
17.7987 9.22299 38.2701
14.5219 9.37643 35.408
16.9727 9.08053 35.9349
14.4876 9.11923 34.2582
15.3848 9.00092 36.0472
13.8066 8.9062 36.2807
14.9623 9.18563 36.9062
13.5324 9.18506 35.4757
13.77 9.09153 35.74
12.6051 9.23707 35.0954
13.3451 8.62897 34.4286
12.4337 8.67069 35.1139
13.6842 9.43755 35.4111
12.6942 8.71399 35.8964
12.9138 9.44638 36.0338
12.659 8.99252 36.0602
12.6702 9.11788 36.0372
12.5822 8.75562 35.6055
13.3547 9.72985 37.1244
13.0722 9.4518 37.3695
14.9921 9.23655 36.9179
13.2042 9.25098 37.4552
15.0572 9.34556 35.9619
13.6477 9.08663 35.3134
16.1402 9.25002 37.0913
14.9527 9.33226 36.4422
16.9784 9.20302 36.0972
15.7128 8.9414 36.4168
18.6406 9.31473 36.2657
14.5916 9.10583 36.1805
18.8284 9.29446 36.581
15.068 9.1541 36.6718
19.6816 9.35017 36.0114
15.5541 8.89156 35.4922
19.16 9.19988 36.1807
15.1645 9.10145 36.5377
19.6861 9.10388 36.3706
14.7958 9.39584 36.8867
19.877 9.33664 36.476
14.9404 9.32819 37.5596
19.2649 9.14614 34.1861
14.2555 8.64307 35.9859
19.0173 9.11722 36.3824
13.9418 9.20208 35.5379
17.3285 8.63877 36.5683
14.1904 9.28152 36.349
17.1721 9.42532 36.2399
13.6681 8.92345 36.1731
15.4313 9.15484 37.0402
13.4621 9.15729 34.9645
14.7929 8.7099 35.3873
12.7173 9.07889 36.0843
13.6879 9.14055 35.5246
13.0469 8.85673 36.292
13.792 9.13859 36.0181
13.437 9.15017 35.8147
13.5428 8.99949 36.0432
13.054 9.29025 35.9112
13.5039 9.18274 36.1109
13.638 8.96352 36.2497
14.2421 9.11827 35.4167
13.6486 9.18903 35.0798
15.2903 8.6352 35.5729
14.4968 9.09886 34.9856
16.396 9.28369 37.4278
14.1323 9.01576 37.344
17.7408 9.19679 36.2309
15.1393 8.94827 36.2354
18.5115 9.06053 35.1054
15.0581 9.26303 37.9688
20.0761 9.3294 37.1148
14.8942 9.23141 36.5381
21.0028 9.07701 36.5782
14.6755 9.00337 35.2256
21.2912 8.92899 34.3747
14.8944 8.90389 36.4554
22.3551 8.97011 36.5622
15.1341 9.38718 36.4051
21.8725 8.78447 35.5544
14.8591 9.25205 36.5449
21.9845 8.92381 35.6504
15.637 8.92079 34.441
20.7869 8.68994 35.2809
15.0503 8.95906 34.8673
19.7297 8.85334 36.521
14.8736 9.08033 35.3568
18.0702 9.15432 37.481
15.1661 9.37805 36.5605
17.0862 9.14001 36.0596
14.6567 9.25961 37.241
15.6562 9.06104 36.2243
14.0826 9.08598 35.8079
15.3227 9.00613 36.5715
13.9726 9.06208 35.2369
14.8145 8.94677 36.723
13.7791 9.44329 36.9111
14.832 8.92345 37.2542
14.1277 9.224 35.9955
14.3645 9.10791 35.6807
13.9298 9.12075 37.07
14.1645 9.24196 36.6941
14.4058 9.04536 35.3199
16.3369 9.00864 37.5531
14.039 9.18467 36.6839
16.7187 8.97893 35.7294
13.8951 9.30861 35.8864
17.9072 9.0249 37.3047
14.9083 9.52361 37.8548
18.9287 9.55201 37.2868
15.1199 9.11368 37.2258
21.1045 9.16537 35.9879
16.247 9.31851 37.8028
21.7834 9.64454 39.0778
16.3086 9.71066 37.5938
21.5978 9.37913 38.0957
16.2967 9.43525 39.1163
24.8659 10.0861 39.7731
17.6992 9.66925 37.7828
22.9767 0 0