# pn-170911/CsIIA-40-CsII-1280-1959.psd
# Power spectrum* (dif=0,1,2) (really just |FT|^2)
# NOTE: only the first half! (symmetric)
# weeks: 1280-1959
# 531 clock-days, 235 excluded
# PSD: 1441
113166 1.62293 0.0463461
4.70998e+06 65.0564 0.0416426
3.20011e+07 637.771 0.0543629
3.64697e+06 142.638 0.0436311
3.98298e+06 274.915 0.0629738
1.24608e+06 123.627 0.0551587
972063 141.305 0.0582476
731860 145.145 0.072479
564746 137.67 0.0837331
414377 132.443 0.0879554
346323 137.199 0.106359
302514 129.029 0.111329
235904 129.668 0.124964
205908 133.231 0.139275
187110 128.055 0.159163
159325 130.814 0.184461
131866 131.076 0.204438
124491 130.644 0.220864
124958 143.747 0.264939
90992.3 112.834 0.238243
88306.7 118.713 0.270465
79483.2 133.653 0.315308
79292.3 131.955 0.33407
60793.2 118.805 0.338305
64294.7 132.887 0.396079
58220.1 129.529 0.430077
54546.5 125.156 0.445405
47326.3 119.017 0.457127
47615.2 130.753 0.516836
42541.5 130.68 0.546763
40038.9 126.873 0.585207
36565.8 130.23 0.634674
37412.1 130.201 0.680765
31126.2 126.1 0.69403
30562.7 125.751 0.746824
30032 137.011 0.841206
26621.7 126.475 0.820099
25860.5 130.328 0.873594
24384.4 127.291 0.907955
23708.7 126.483 0.94569
22439.8 130.478 1.0193
21174.8 127.383 1.06727
20189.5 127.534 1.12016
18337.1 124.564 1.128
17732.8 130.98 1.216
18258.9 130.277 1.29099
17417.6 126.315 1.30245
15855.8 123.22 1.33442
14864.3 120.209 1.33307
14847.8 130.505 1.51903
14305.9 130.949 1.59437
14145.1 134.979 1.69853
11919.6 118.147 1.55185
11986.4 123.376 1.70858
11734.6 121.552 1.70551
11238.6 122.076 1.80877
11589.6 129.564 1.96955
11309.5 126.771 1.9852
10778.1 125.565 2.04308
9303.55 117.186 1.95566
10447.4 123.101 2.1335
8988.47 120.255 2.16159
9343.47 120.193 2.22573
9193.02 124.148 2.38062
9279.79 123.714 2.44175
8197.83 121.685 2.48809
8887.58 125.35 2.65236
7911.77 121.463 2.64515
7999.6 119.04 2.67331
7639.36 123.945 2.83461
7345.5 117.312 2.74575
7054.57 121.261 2.9389
6907.96 120.745 2.98755
6827.17 125.366 3.1678
6454.31 123.615 3.24684
5932.53 111.764 3.00306
6581.38 131.562 3.6718
5420.7 119.09 3.38522
5766.33 120.957 3.53215
5630.9 126.706 3.76871
5153.45 116.644 3.58311
5244.99 122.849 3.79849
4907.26 110.779 3.59329
4582.58 111.922 3.69001
4822.42 118.286 3.99272
4721.32 118.22 4.09226
4537.31 110.001 3.8476
4664.89 119.364 4.32509
4290.31 117.143 4.39095
3841.56 108.422 4.11267
4028.25 117.633 4.51553
3923.66 112.536 4.40319
4398.11 121.839 4.92787
3897.69 123.048 5.09495
3663.62 109.059 4.57074
3740.61 119.463 5.16693
3812.28 118.532 5.18102
3413.88 103.305 4.63064
3448.23 114.191 5.29732
3524.16 119.755 5.56171
3323.68 110.3 5.29324
3174.41 113.206 5.48068
3299.54 112.154 5.54391
3349.49 116.4 5.84951
3143.49 105.104 5.37737
3256.27 121.848 6.37769
3285.67 114.533 6.10455
2756.03 102.429 5.55682
3087.93 116.303 6.40698
2720.7 109.798 6.17558
2908.34 113.171 6.59951
2704.13 105.89 6.28304
2915.1 118.406 7.02009
2470.67 104.666 6.36294
2677.95 109.81 6.73949
2515.26 105.704 6.7208
2706.36 111.221 7.01248
2303.59 106.048 6.89815
2253.32 98.8112 6.57762
2122.79 105.021 7.01171
2345.05 107.618 7.28642
2272.3 111.211 7.80273
2142.41 101.698 7.16795
1968.34 99.1096 7.1734
2271.55 109.1 7.89475
2060.82 104.319 7.77631
1869.88 98.7903 7.32831
1847.97 108.157 8.24167
1804.86 102.092 7.91087
1832 98.3811 7.76619
1918.67 110.096 8.84846
1834.06 109.167 8.84805
1784.35 96.5769 8.1208
1830.71 110.022 9.26369
1804.71 99.7706 8.49577
1743.81 105.12 9.07542
1670.77 99.5075 8.6455
1584.18 102.198 9.08157
1793.04 105.349 9.55492
1734.8 99.2924 8.94954
1592.52 92.1043 8.58098
1643.7 101.715 9.6791
1690.12 107.928 10.2462
1603.31 101.705 9.8887
1592.06 95.0382 9.22929
1505.92 98.4453 9.76898
1569.02 102.514 10.3657
1555.21 105.63 10.7487
1507.98 105.422 11.0028
1400.79 95.3907 10.0252
1421.1 102.822 10.9004
1330.96 93.312 10.1324
1424.31 100.334 10.8369
1376.51 95.9781 10.5942
1255.18 92.1148 10.2053
1271.19 98.6287 11.2712
1236.01 94.2546 10.7178
1174.49 92.028 10.6838
1317.3 103.553 12.2274
1187.81 92.2608 10.9489
1111.09 90.0606 10.8632
1169.03 97.2409 11.781
1061.72 95.5211 11.9295
1100.66 90.0131 11.2344
1122.39 96.3346 12.3726
1057.57 92.812 11.852
1048.85 100.646 13.1209
1152.82 100.19 13.1131
1038.72 93.5068 12.5167
1012.89 96.7747 12.9035
966.863 93.6638 12.7206
983.574 91.9758 12.5336
1001.38 89.4979 12.3595
960.772 85.3289 12.0351
974.825 90.8297 12.9073
957.095 95.8108 13.9697
965.025 88.3715 12.9604
991.14 91.1626 13.4507
909.958 86.866 13.1073
944.577 91.9147 13.664
914.135 89.1614 13.6097
875.347 88.8309 13.7204
941.025 87.3317 13.6344
880.491 89.6609 14.0322
846.54 86.904 13.657
855.944 89.0933 14.5298
890.582 85.8979 13.977
870.278 87.4454 14.4598
782.661 82.7531 13.6631
813.538 85.1328 14.2767
843.266 85.2285 14.5176
758.73 81.822 13.9794
899.124 89.605 15.5924
747.768 81.3249 14.3591
755.418 87.0245 15.3029
725.737 83.1369 15.0466
797.091 85.8157 15.3706
774.326 88.4882 16.0169
734.923 86.451 15.9409
643.189 76.8977 14.4112
644.342 80.4421 15.1059
703.774 84.3559 15.7363
667.402 78.5876 15.1702
668.601 82.9423 16.1341
658.468 84.1849 16.2182
656.033 79.9388 15.7776
634.376 81.5674 16.1882
655.98 84.3307 16.8546
686.964 81.3503 16.4686
592.822 78.8879 16.1662
561.774 75.7685 15.7144
613.966 80.4824 17.0413
627.303 82.2521 17.1141
573.158 80.0095 16.939
562.057 75.5663 16.2427
568.096 75.6908 16.245
583.295 78.7857 17.0361
604.816 80.398 17.559
537.823 77.5596 17.5621
573.651 81.5802 17.9652
622.376 82.4677 18.7921
508.614 68.19 15.2776
551.415 78.1379 18.0053
507.244 76.0446 17.6255
539.477 72.5704 17.1478
530.63 77.7862 18.4759
480.124 71.4968 17.0008
521.519 79.6948 19.2832
555.36 75.1745 18.2075
508.468 74.3616 18.1122
523.534 74.1015 18.3046
525.033 73.3819 18.0756
455.056 68.984 17.3553
489.559 72.9746 18.6785
522.619 72.5748 18.2732
463.361 75.2417 19.5405
467.042 73.0807 19.2879
436.796 68.5293 17.8631
448.694 67.845 17.5404
449.894 70.2114 19.3148
439.139 72.0889 19.541
451.632 76.5853 20.119
435.275 71.9391 19.6897
452.404 74.9199 20.453
437.972 75.0531 20.6683
381.389 68.7753 19.5375
413.22 68.7291 19.3548
394.589 71.8096 20.2928
367.095 66.2398 19.0797
410.444 72.3584 20.7283
414.919 71.131 20.7036
399.155 71.3849 20.928
386.225 65.2579 19.2747
363.783 70.4116 20.8303
372.745 68.9624 20.3112
349.832 67.1814 20.6417
381.736 68.0852 20.8123
355.732 67.7727 20.4769
384.918 70.9217 21.694
339.298 66.7681 20.8726
350.578 70.724 22.3983
350.009 65.5545 20.8771
352.503 68.1826 21.3374
338.572 69.7119 22.9014
348.258 64.1164 20.5903
326.071 62.4374 20.217
367.092 67.4088 21.7944
340.911 66.112 21.8043
339.442 66.8022 22.31
357.841 72.4198 23.9314
340.494 62.3633 21.2148
315.085 63.0851 21.518
335.147 64.6375 21.6561
313.471 64.3808 22.5054
317.359 59.0908 20.2807
277.781 56.7258 20.1196
309.701 62.481 21.8281
287.339 59.8769 21.26
309.359 59.7614 21.8703
269.968 57.2699 20.4953
281.31 61.9957 22.1054
272.256 64.3968 23.3244
264.686 61.3526 22.5309
254.44 61.3574 22.9409
286.426 67.4469 24.6226
260.974 63.8002 24.0011
262.289 60.3217 23.035
249.592 58.013 21.6831
222.862 54.0179 20.7164
243.804 62.0397 23.4973
244.904 66.0374 25.494
236.715 57.125 22.781
258.141 58.058 22.2685
220.431 55.7873 22.2998
240.835 60.6313 24.5272
239.006 60.4324 24.1946
246.098 60.6441 23.8644
228.746 56.7876 22.4422
232.803 56.6915 23.4999
225.385 59.065 23.7205
234.844 61.0612 25.3271
217.821 55.272 22.8588
212.003 52.3045 22.1188
223.252 57.7064 24.3105
222.618 54.7186 23.2184
231.546 60.6047 26.1525
215.24 55.2381 23.8798
215.682 53.4807 23.0429
218.724 53.6501 23.2269
195.644 51.738 22.4269
235.24 57.4144 25.0458
213.12 51.0501 22.9076
223.336 52.0629 23.4323
225.959 56.361 25.7517
233.186 55.745 25.1665
211.669 53.2412 24.0739
216.573 54.8821 25.1084
200.023 55.725 25.0758
223.26 55.9711 26.1825
202.855 53.738 25.3094
202.622 50.195 23.1043
186.196 52.5649 24.8428
198.66 51.9006 24.8575
204.886 55.6842 25.9122
175.336 50.2747 23.9369
190.404 54.6115 26.1972
210.306 54.4499 26.42
194.777 55.6653 27.0652
187.561 49.4462 24.5001
184.525 51.0166 25.6228
189.388 49.4564 23.9649
177.236 52.6518 26.6582
177.354 51.6282 25.549
176.879 55.0692 27.7255
183.186 54.3911 27.8414
183.606 55.6684 28.478
178.54 49.9468 25.2649
168.044 52.2409 27.0209
157.093 45.3009 23.3597
178.874 55.4769 28.8442
161.075 47.2522 25.0358
172.753 48.687 25.5279
168.408 50.1648 26.8455
170.427 49.617 25.8807
169.125 50.0646 27.5774
166.132 50.4271 27.1634
170.569 47.9199 26.2876
170.703 48.1209 26.6048
178.596 46.6479 24.9355
160.704 49.8341 27.7163
164.818 47.2973 26.1944
163.792 47.6645 26.5055
181.007 45.8969 26.136
170.377 49.1032 27.3852
169.991 47.7741 26.872
172.102 48.2751 28.0455
161.773 44.4195 25.2742
155.047 48.2654 28.1795
166.281 46.6499 26.7216
164.7 47.0617 26.8589
161.702 46.9626 27.5537
161.307 47.8951 29.0503
160.573 45.2871 26.2182
142.452 47.0733 28.2022
171.058 49.6507 29.6428
148.009 46.3681 28.2765
140.66 44.193 26.4162
136.956 43.3128 26.8202
146.548 44.8154 27.2477
141.684 41.1144 24.8047
139.781 42.7268 26.0944
133.175 42.47 26.198
140.686 42.7209 26.2348
132.202 46.924 29.5493
134.971 44.2276 27.9149
134.057 44.1945 27.0918
140.817 42.3784 27.1154
131.563 45.1021 28.9137
130.412 41.9349 27.2028
124.431 44.1907 28.9439
135.108 42.822 27.6934
132.524 41.6006 27.3787
126.952 41.6754 26.899
124.775 43.2849 28.4746
135.982 43.395 28.3042
127.338 41.8209 28.132
133.755 41.7662 26.9909
127.694 44.1231 30.146
139.919 40.7692 27.4364
124.456 41.8822 28.7165
126.626 42.2511 28.8058
136.46 42.7835 29.1913
143.139 40.1446 28.0851
129.326 41.1761 28.8679
139.114 42.404 28.7517
124.558 41.7227 29.0944
135.352 39.0872 27.0071
122.704 38.9171 27.6889
142.764 43.9918 30.9381
136.094 45.1812 31.917
128.926 39.4923 28.1807
122.086 40.224 28.54
123.489 39.449 28.4429
122.69 39.7368 28.8869
136.953 40.4758 28.9976
118.536 38.034 28.1207
121.973 39.936 29.4155
114.328 37.9436 28.1264
112.792 38.8799 28.8734
122.777 41.1968 30.7641
118.637 41.9829 30.3097
104.718 41.2227 31.3777
107.878 39.4975 30.4725
118.118 39.6598 29.171
114.581 39.2275 30.0726
104.919 40.4887 31.5554
106.728 40.8724 31.0533
112.04 41.0845 31.2812
107.492 38.0498 29.9325
107.289 40.8437 31.7596
107.015 37.3063 29.6679
102.356 38.3932 30.1086
106.217 37.9326 29.1968
104.992 37.828 30.2727
102.876 37.8014 30.0045
103.31 36.9176 29.5261
107.666 38.2134 30.0906
102.11 35.2424 28.6367
104.078 35.6367 29.0272
98.2785 37.268 30.5161
115.865 38.0489 31.6148
107.726 38.3167 30.8607
113.82 37.8104 30.9712
106.024 35.2066 29.3186
105.761 34.5366 28.8808
100.686 37.4003 30.8819
111.244 39.3544 32.1766
104.513 35.4449 29.6092
103.236 34.6739 30.0307
97.9184 36.6923 30.703
103.328 35.5645 31.3607
102.357 33.2596 28.1294
110.233 36.4416 31.0733
90.9877 38.6513 33.3487
99.5711 37.3189 32.2493
92.3193 34.0442 30.2161
96.2278 34.2399 30.692
93.4035 33.8719 29.0023
99.0267 35.2628 30.1516
93.9256 35.0231 31.6044
94.2095 34.4961 30.2911
80.5097 32.2118 28.787
89.4458 33.5437 30.3545
84.1235 33.0842 27.9941
83.9026 32.6299 30.5617
89.7455 34.1405 31.1877
81.9166 31.7886 28.6378
83.1047 34.2182 31.145
80.9868 34.0462 31.2958
81.6873 33.9033 31.1301
86.0575 33.2891 31.0973
83.6772 34.6317 32.5109
81.3691 34.3913 31.8751
84.2593 33.3469 31.3073
88.0002 33.9219 31.5683
83.4618 34.911 32.666
84.6434 33.4693 32.077
80.5845 31.7006 29.6691
90.498 32.5196 30.7176
79.4839 31.0296 30.6852
90.47 34.0814 32.6276
85.4647 35.7446 34.3087
87.9044 33.7843 33.2396
83.5547 32.7575 32.5489
88.1882 32.6609 30.7808
75.2888 32.3411 31.2666
87.2156 32.2326 32.5286
85.0686 33.2009 32.6723
91.1061 32.4477 31.7889
86.5687 32.7008 32.2673
90.8451 34.1543 34.0359
78.5937 29.7746 30.2005
90.085 27.9892 27.7162
80.8396 30.7861 32.1806
85.9544 33.3884 32.1759
78.6885 29.6489 30.2578
75.3974 28.2848 28.8766
71.2946 28.2806 29.6994
82.6301 31.49 32.7233
84.0774 29.782 30.4588
78.7066 31.1281 31.7563
75.4698 30.5761 31.6399
79.0447 29.4591 30.8967
69.4861 28.3571 29.6785
76.0283 29.4385 30.8429
65.3572 29.1168 30.1082
71.5114 28.9983 30.7398
72.3914 30.6414 32.129
69.3762 27.2032 29.1689
68.8906 29.9109 32.0614
73.4572 30.2017 33.1627
65.5592 27.6954 30.0416
70.2286 30.3348 32.7858
72.7957 30.2385 34.1072
71.1514 28.4356 31.1038
66.8796 29.1244 32.1921
68.7501 31.7758 33.6572
66.28 27.9693 31.5297
71.828 28.9441 31.7874
71.0276 28.4103 31.1894
72.2663 30.6766 34.3278
67.7508 27.687 30.4795
73.1252 24.8484 28.4174
73.7978 28.8325 30.9099
73.3446 30.2602 34.8868
64.9631 28.2372 32.493
75.4573 29.4528 34.0528
72.9389 27.5236 31.7438
73.0902 26.9012 31.1247
72.1297 28.7211 31.9247
71.9189 29.5203 33.2137
70.6818 28.9213 33.3035
75.9559 28.4493 33.0304
64.7353 27.3149 31.8192
75.7169 27.0297 31.7986
66.9612 26.7586 31.9501
64.6994 27.3127 32.8187
64.0769 26.8886 31.1494
72.0387 28.1118 32.6195
63.5259 26.02 31.5882
68.6027 25.5952 30.3553
66.9914 27.8219 32.9674
64.6639 26.7074 31.6368
56.8071 24.2834 30.1439
67.9158 27.6958 33.0681
64.8178 25.9627 30.4599
63.8696 28.3046 34.9692
61.2984 26.2389 31.5947
55.8715 24.2841 30.7035
60.4862 25.9019 31.3215
59.6585 26.1713 31.9117
58.9172 27.8366 34.8414
53.7014 23.6772 30.2381
55.7516 25.8022 32.9947
64.9364 24.3176 30.3373
53.3876 26.6616 33.2178
61.3772 25.5351 32.8842
56.9785 25.8859 31.6208
56.0501 27.9127 35.693
55.0969 25.823 32.7927
61.0481 25.8713 31.6633
57.6064 24.5785 31.7491
59.1675 23.9805 31.5271
56.4934 27.7202 35.3196
61.0372 24.1583 30.4179
55.3997 25.6392 34.3481
55.2247 24.4074 30.962
56.0343 24.2125 31.851
58.4919 24.0982 31.8852
59.6877 26.8758 34.851
61.6242 24.5885 32.7351
58.4822 23.1908 30.3273
63.5084 23.8119 31.8573
52.8085 22.4543 28.6325
61.6517 25.9645 35.4597
53.4274 24.522 32.6446
54.6058 24.8002 34.1317
56.7946 24.9649 32.3484
57.8224 23.9336 32.4385
54.855 24.0705 32.7421
52.1442 24.8124 32.6964
47.3123 22.9889 31.3749
54.2106 23.9862 32.7712
46.8703 22.8786 31.9381
51.4359 24.8788 33.9834
53.2439 23.033 32.2102
47.5705 25.1777 34.6852
48.0666 23.4368 32.2284
46.2023 23.0506 32.2895
44.6965 23.2672 31.1903
50.5807 24.8697 34.4614
41.8219 23.8113 33.5314
47.4856 23.297 33.446
44.1538 22.4912 31.9315
46.9073 23.8731 33.4106
41.9522 22.8801 32.8026
44.5666 23.182 32.7112
43.5574 20.4629 29.6285
41.9541 22.2178 31.1402
42.5864 23.0012 33.5966
46.0169 22.0711 31.9084
42.2901 23.0887 33.6323
42.8483 24.1291 35.2465
43.5515 22.6353 32.0338
47.6147 23.1541 32.7091
41.5695 22.0146 33.3313
44.9401 23.0639 33.1015
43.1663 21.7302 32.4908
46.2116 21.6307 31.6287
41.2184 22.0564 32.4274
43.6855 22.4524 33.2207
42.9969 20.9967 30.6947
46.6426 21.9963 33.0484
41.8086 20.3471 30.9418
44.1107 21.1919 31.1662
40.6699 21.3223 32.8192
45.7227 24.3111 34.7254
42.682 21.7609 33.6089
45.2037 21.0223 33.1651
42.5383 22.0559 33.1401
44.1093 22.5065 33.6138
43.9339 21.3771 32.9436
44.4355 21.1395 32.9792
40.6609 22.2264 33.925
46.182 20.4275 31.7794
42.4427 21.6593 32.7523
42.7034 21.0739 33.395
38.2054 20.1861 31.0364
41.8038 20.9291 32.9123
37.1898 20.162 31.4114
39.5373 21.1897 32.9108
37.8883 19.4886 30.4174
36.677 20.6521 32.4571
36.1999 20.2508 32.332
39.0656 20.6716 31.8544
35.8247 20.5856 32.9167
37.017 21.154 32.6335
35.8439 19.0761 31.6559
37.3086 19.5728 31.3324
34.7855 22.3389 34.2396
36.4845 20.6837 33.4851
37.2872 19.7703 32.3713
36.5041 19.5665 31.6751
33.8974 19.6614 32.202
34.2885 21.0133 33.1654
35.0855 20.8136 34.3359
40.1841 19.1409 32.1981
37.3773 21.2284 34.4105
36.7796 21.5167 36.9993
40.6387 21.0664 32.1509
40.7108 19.38 31.6378
37.1291 19.0947 32.1177
40.5122 19.6039 32.2182
38.2359 19.7342 32.7289
40.09 19.0583 33.0022
39.029 19.1493 33.8053
44.3091 20.3382 33.1869
38.1512 19.7079 33.9099
43.8759 20.0217 32.6201
38.8618 19.1328 33.0936
41.6968 19.6961 32.4892
37.3319 18.4033 30.2053
40.9471 19.0294 33.0402
37.9972 19.2934 32.7094
39.7955 19.741 32.9305
32.7909 18.9784 34.1987
38.975 19.1332 31.784
34.3244 19.2296 33.3955
36.2133 17.412 31.5738
34.8101 18.2544 31.0459
33.6094 18.7985 32.3194
34.2967 19.7957 34.2631
34.2512 18.6 33.2554
33.2735 17.8965 32.9559
35.0559 19.348 31.2706
30.9973 16.9001 29.757
33.5402 18.9731 32.9639
31.6487 18.3463 33.0002
35.5962 18.3495 32.1683
32.5577 18.871 33.2286
32.9579 17.2644 31.1125
32.6744 19.2797 34.6329
35.9783 19.8631 36.0484
33.8127 17.9046 32.4464
31.5456 17.7151 31.1348
33.7846 18.8445 33.1366
37.073 18.5729 32.618
32.7745 17.6357 33.8002
36.649 18.6225 34.4245
35.2789 17.8727 31.652
35.8791 18.0787 32.2426
34.776 18.5744 32.6898
37.3001 17.6663 33.6315
37.4032 17.8501 32.5151
36.8803 18.0698 32.6709
34.0763 18.3449 34.6899
36.6863 17.0994 32.6009
35.9029 15.9945 28.3299
37.3337 16.3769 30.9577
31.8899 16.2993 31.6967
36.4551 17.7892 32.7513
34.692 18.1034 32.7425
38.4125 17.6586 33.7722
33.7554 17.091 31.8856
35.751 17.4593 32.3451
33.9305 17.6448 32.6013
34.5544 16.8339 31.8735
32.9532 16.9347 32.2736
36.0967 18.2725 33.7845
32.3936 17.6503 33.0661
32.6779 17.2452 33.9758
31.7458 17.3208 34.6108
32.7628 16.7627 32.2006
31.1412 18.101 33.762
30.3317 16.6397 31.367
32.0477 17.14 32.9933
32.1129 17.006 32.9198
29.4336 17.397 34.9201
30.7007 16.2436 32.0589
30.0903 17.1667 33.0966
31.5354 16.9585 31.89
30.5034 17.4722 35.4289
30.8743 16.9396 33.0077
29.0117 16.5033 31.8115
30.7004 16.2217 31.4781
34.8846 16.9868 34.5359
30.132 16.5316 32.9213
30.0365 16.6954 32.209
33.0982 16.7648 34.7079
30.8563 16.0247 31.0235
33.3959 16.6621 32.526
32.0719 16.0639 32.6373
33.1838 16.0954 32.2485
28.7416 16.6069 34.2283
30.7432 15.6521 30.5669
32.308 16.1948 33.2109
34.0439 16.4724 32.8875
30.6641 15.7802 33.0581
32.1832 15.3552 31.5417
31.6616 15.778 32.508
34.4819 17.5246 35.5473
27.8173 15.5366 31.5032
31.408 15.1122 30.4439
29.4577 16.9586 34.535
33.2769 17.482 34.4717
29.6564 15.8164 31.7665
32.3438 14.6016 29.5131
28.1177 14.5476 29.9721
30.9292 14.9182 32.8064
29.1456 14.9385 31.3408
30.3694 16.4595 33.2583
27.4774 15.559 34.0493
31.3503 16.2214 31.3803
28.9143 14.5702 31.3481
28.5831 15.1779 31.9332
26.2904 14.6112 30.7014
26.8706 13.7409 30.1597
26.158 14.3478 30.4274
27.347 15.358 31.8762
27.4367 14.6339 31.637
26.5906 14.7887 30.9158
27.2619 14.4693 32.5141
28.3451 15.4636 31.5105
27.0138 15.4757 33.0696
25.7394 15.1334 31.7899
26.2661 14.7935 31.6323
28.8658 14.681 31.4869
25.5553 13.4699 28.9511
28.4267 14.9802 32.7184
26.6205 13.8875 30.9844
28.6256 14.5966 32.2535
28.5141 14.9687 31.6503
28.6451 14.3633 33.1331
28.1054 14.7991 32.1034
29.4583 14.0124 31.5381
28.7104 15.0185 32.8171
31.6132 14.2651 30.0585
27.7334 14.7308 33.0865
32.1672 14.8181 32.1814
27.8191 14.6792 33.7605
30.7794 14.6736 30.4225
30.2874 14.5696 32.3207
28.8819 14.2104 31.7626
29.4077 12.8299 30.9813
31.2775 14.1349 29.4594
27.2303 13.7476 31.0957
29.1368 13.6455 30.6719
28.1923 15.2402 33.9957
31.976 14.9849 32.8737
26.9407 14.0134 32.894
28.1193 13.9534 32.7463
26.1057 13.2968 29.7434
27.9973 13.5791 30.7016
27.6915 13.479 29.5124
26.4504 13.2381 29.7818
25.4267 14.0315 32.9475
28.1984 13.1636 30.2904
25.9875 14.5765 32.0228
25.2303 13.3834 29.8227
23.8031 13.4452 30.6066
26.7967 14.0652 32.8232
25.3155 14.673 33.6441
27.4532 12.8464 29.9036
24.6917 13.7671 30.7393
22.8842 13.3919 32.0225
25.757 13.4082 30.2058
26.068 12.4878 29.7327
23.4422 13.8031 32.0976
26.8329 12.8573 30.2952
24.1619 12.6288 30.3438
28.3132 13.2025 30.0364
24.8349 13.9186 32.6998
25.7723 12.8501 30.2492
25.712 13.9593 32.2857
25.9951 11.9456 28.6786
27.2619 12.8953 29.3654
26.9003 13.5917 32.3462
26.1779 12.8264 30.1383
28.5453 14.4628 36.0363
27.4589 12.7127 28.8277
29.6453 12.0682 29.0759
26.5146 12.9048 30.9577
27.8332 14.1035 34.6736
26.5395 13.2375 33.0484
28.5626 13.0478 31.7516
27.2747 13.3814 30.5023
29.6591 12.5388 29.9258
27.3524 11.7494 28.1878
27.7634 12.3709 29.5585
25.9149 13.4328 33.4965
27.7821 12.0863 28.7396
23.866 12.8027 30.717
28.9581 12.3726 31.4197
25.7934 13.147 31.5323
26.4532 12.223 31.4594
25.7478 13.5246 32.6301
26.4383 13.6796 33.7988
26.8179 13.4395 31.6884
25.1093 12.6524 31.4896
23.3513 11.51 28.5282
24.886 12.454 30.6785
23.5037 13.1849 32.7574
27.0812 12.1872 29.3991
22.6981 11.805 29.8176
25.5929 13.2712 33.3808
23.9336 12.9871 31.4005
23.9221 12.1506 30.2409
22.5505 11.69 30.1831
25.336 12.6242 31.4564
23.6477 12.8708 31.5406
26.22 12.2041 30.9218
22.9918 12.6933 31.2138
26.896 12.8408 32.3191
24.8869 12.1213 29.7575
23.5128 12.1531 30.5592
24.2177 12.7943 32.7419
25.7205 11.8389 30.6033
24.6212 12.1281 31.3343
27.9573 13.4086 33.1437
25.4078 12.6362 32.9021
26.0356 11.9644 30.0592
23.1367 12.132 31.6161
26.6062 12.3086 31.4342
23.0425 12.5731 32.6878
24.8382 12.6495 32.4991
23.4391 11.4432 29.4997
25.8826 12.4376 32.5519
26.2231 12.4078 31.775
26.275 12.4548 31.4856
24.2614 11.9652 30.6593
24.1227 12.3984 33.7447
23.554 12.4923 33.3647
26.4463 11.6155 28.3359
23.6827 11.5425 30.1591
22.8296 11.0062 30.504
23.1408 12.4493 33.433
24.2655 12.8974 32.0029
22.8525 12.0251 31.7802
22.276 12.3877 32.4793
21.8494 12.2971 33.5859
23.0174 12.6364 32.2045
20.9968 12.1918 31.3402
21.5483 12.3677 32.4183
18.7658 11.4197 31.512
20.9704 12.249 33.3004
19.2664 11.2609 30.7878
20.8001 12.0706 31.1165
18.3308 11.633 31.848
20.5041 12.0688 32.2841
18.2669 11.3611 30.8787
19.0782 12.2055 30.9986
18.379 10.9698 30.3328
19.4206 11.8585 30.7931
18.9117 11.0123 29.4004
19.4871 11.0288 30.0708
20.9417 12.066 31.1482
19.8761 10.8783 30.0468
17.0553 10.566 29.328
19.8018 11.4903 31.2432
18.8038 10.6844 30.5586
20.0322 10.8723 29.6306
19.1736 11.4188 30.6303
21.1754 11.1657 29.7988
19.6244 11.3618 30.2503
20.602 11.7413 33.8595
20.3203 11.8674 32.8117
20.577 11.662 29.9082
19.6303 10.8724 29.5282
22.3132 11.1874 31.1327
20.7322 11.8413 33.0943
21.7222 10.8284 28.7324
19.8886 10.8819 30.6192
21.9078 9.69761 27.7122
17.5354 11.1312 30.3484
21.7047 10.8195 29.6828
19.2319 10.7155 30.5518
21.2709 11.4868 31.1299
17.455 10.7321 29.7676
19.1532 11.7554 32.3247
17.2 10.3 30.7667
18.5683 10.7615 31.5015
17.3325 10.7932 28.4412
17.7622 10.9335 30.8479
17.235 11.0147 31.274
17.5231 9.93576 29.0293
17.1186 11.3489 31.1884
16.9277 11.0512 29.6155
17.263 10.6314 30.5627
15.8804 10.688 30.6066
16.8832 10.6086 30.2808
17.3525 10.5735 30.0179
15.9308 10.7985 30.1237
15.994 10.3446 29.9065
16.9281 10.6039 29.6154
17.7764 10.2343 28.7767
17.7168 10.6435 31.8513
17.8713 9.55082 28.5847
17.7567 10.0717 28.5672
17.9711 11.5059 32.0672
16.7119 10.3035 30.4598
19.3305 10.2741 29.2982
17.5631 10.1538 29.958
19.5232 10.8292 29.7002
19.6009 10.2002 29.1957
19.7842 9.4306 29.7673
17.5267 10.2578 28.1985
19.8783 10.4458 29.2942
18.9924 10.6955 30.1635
19.8493 9.58975 27.2581
18.1563 10.1338 30.678
20.5911 10.0934 29.8741
17.7347 10.5924 30.93
21.1202 10.3206 29.6994
16.7159 9.76598 30.2598
19.8805 10.0699 28.97
16.637 10.231 29.6233
17.7409 10.5689 30.6432
18.9045 10.6492 31.88
18.6196 10.1317 29.3517
16.6923 10.3749 30.6298
17.3544 10.6444 33.1797
16.1017 10.1445 29.749
17.8983 9.48582 29.2434
16.3666 9.32663 28.1789
16.8545 9.39476 30.069
15.3225 10.1055 29.3977
15.7598 9.67987 27.3705
17.2811 10.2161 31.8761
14.8177 10.67 28.3394
15.784 9.87938 31.5154
16.6057 9.87004 29.8443
16.2251 10.1551 29.7715
17.3048 9.89183 28.0339
15.6178 9.82521 29.315
16.743 9.7473 29.4027
14.915 10.5087 31.345
16.5321 9.94206 30.7594
18.4512 9.0814 27.5583
17.4606 9.65629 28.321
17.1344 9.51473 29.1872
17.8079 9.63537 30.2911
16.8471 9.61368 29.1077
17.9272 9.94328 30.7712
16.5031 9.89168 30.0144
18.8892 9.613 29.3452
16.9558 9.2847 27.6976
19.6246 10.192 31.2326
18.0522 9.44481 30.2364
18.18 9.57011 28.0573
18.3181 10.1182 30.9914
19.3984 9.88217 29.6836
17.6208 8.87915 28.2743
18.3434 9.92842 29.8822
17.7687 9.70122 28.6853
19.5892 9.68573 31.2721
18.0958 9.88372 30.5321
18.1866 9.34969 29.1042
15.5475 9.80243 29.2221
18.0854 9.46951 28.1757
17.2773 9.00538 28.3333
17.8136 9.54449 29.2728
15.6403 9.65249 31.7766
17.8218 10.1296 29.2422
15.3219 8.9609 28.5918
17.8665 9.25452 27.9611
14.5699 9.21427 29.5163
16.8363 9.36299 29.6403
14.9536 9.58852 30.2525
17.2108 9.73622 29.9814
16.3177 9.20049 29.9426
15.1078 9.59284 31.3434
15.9429 9.9595 31.4295
15.3545 9.22772 27.3591
15.69 9.16422 29.2181
16.2553 9.17676 29.8207
15.3223 9.58859 29.8585
16.9522 9.70493 28.1544
15.2769 9.00981 29.176
16.056 9.47392 30.1429
15.5323 9.00699 29.3613
16.0489 8.96202 29.5449
15.9813 8.95419 28.6443
15.8569 8.66874 28.5648
16.411 8.93219 27.7371
17.1199 8.44478 27.3303
15.1781 9.37084 29.8233
18.6632 9.14535 29.7726
17.2738 9.19515 28.0505
18.0512 8.50446 28.1209
14.917 8.91884 27.9205
18.8397 8.87139 28.4731
16.5722 8.69033 28.8427
18.4489 9.81975 31.6903
17.598 8.3875 27.522
19.8486 9.86797 31.6053
15.9653 9.38393 29.6264
18.7786 8.28588 29.7149
16.148 9.61766 29.0606
18.563 8.99114 27.8902
15.3811 8.63261 28.4708
17.4345 9.36265 27.3222
16.4116 8.67058 28.5146
17.7403 9.34755 30.9946
16.2624 8.87617 29.8377
15.8622 8.62316 27.6908
14.9977 8.62114 27.1351
15.7561 8.85452 29.7361
15.8221 9.1884 29.2796
15.1627 8.99003 29.8589
16.0655 9.03635 29.0245
15.7387 8.5195 30.7261
15.0029 8.74909 27.972
13.4284 9.52547 30.7793
14.6559 8.43982 28.6443
16.2187 9.28162 30.8805
13.7923 9.21313 28.1084
15.3976 8.0189 28.0558
13.6728 8.70367 27.9415
15.8956 9.28694 31.5442
14.8066 8.62787 27.7515
15.7666 8.64139 29.486
14.3691 8.94586 30.7883
16.6416 8.58274 28.4679
15.557 8.81337 27.6307
17.1553 8.02442 26.8412
14.8817 8.68455 28.5178
17.5406 8.46054 28.4711
16.7501 8.57619 28.7654
17.8052 9.00553 29.39
16.3893 8.07793 27.5085
16.7033 7.84075 25.994
18.1474 8.74658 30.5052
17.8012 8.47127 28.4527
16.0879 8.23017 26.1205
17.3856 8.86629 30.3675
16.4073 8.24465 27.8025
18.3715 8.71405 27.0511
16.8857 7.83338 26.0742
16.8621 7.61894 26.1777
16.5977 8.18402 28.4785
16.6218 8.3505 30.1473
15.7709 8.54107 27.3519
17.0229 8.16309 27.518
14.8361 7.97613 26.4568
17.1008 8.46522 28.8796
15.5525 7.78891 26.0208
16.1725 8.74455 31.2499
14.807 8.05396 27.1942
15.7062 8.14271 27.8904
15.3398 7.89174 26.1883
16.3705 8.14026 27.0412
14.2208 8.31603 27.4075
15.0859 8.06677 29.5283
15.1271 8.42358 29.3442
16.5296 9.06992 29.5194
13.8271 8.44206 29.2549
14.3237 7.85785 28.1981
15.3531 8.22828 28.5353
16.064 8.2606 27.0956
14.5579 7.78622 27.8744
15.9091 8.21239 27.7716
14.7801 8.124 28.2189
16.8759 8.33469 26.4871
16.1823 8.05563 28.4083
16.5548 7.95776 26.6712
16.1661 7.97946 28.2839
16.4763 8.20061 30.0514
16.6833 9.00686 30.0267
17.3237 7.67684 26.6673
16.3919 8.062 28.0813
17.9285 7.92192 26.7174
16.7923 8.13882 28.2911
17.8339 7.79422 28.7601
17.0053 8.04876 27.0057
19.3246 8.14357 30.3991
17.4948 8.45736 27.2306
18.304 8.18545 28.2269
16.5898 7.57886 28.1857
18.9736 8.11735 26.6644
15.8309 7.61578 26.6045
18.7168 7.94698 28.6514
16.6352 7.55621 24.8893
17.18 7.27025 26.2053
15.8763 8.22441 28.5012
18.6824 7.8996 28.9198
16.2921 8.01388 27.8994
18.5709 8.24784 29.7095
15.7678 8.62399 29.4973
16.9463 8.46543 29.7781
16.1074 7.66618 28.4423
17.5168 7.73029 27.7807
15.537 8.05301 27.1146
16.8648 7.94816 27.0989
15.743 8.35468 28.7733
14.5567 7.78329 27.6651
14.7968 7.71712 28.8179
16.8171 7.96876 30.1966
15.6955 8.41731 29.0011
16.2957 7.99828 26.5194
14.9686 8.1551 28.7844
16.4388 8.44137 29.018
16.2741 7.59584 26.1642
15.7645 7.27464 26.3973
16.3626 7.83613 27.9474
15.9385 7.63283 25.7066
15.5225 7.48983 28.7691
17.065 8.08617 28.7029
15.4706 7.53576 27.3884
18.1227 8.11306 27.808
15.4884 8.07896 28.0523
17.7578 7.51816 29.6319
16.7466 7.78484 26.6315
16.6741 7.8155 27.4931
16.6924 8.19714 29.9985
19.5422 8.17373 28.2001
18.1197 8.19952 31.0481
18.0896 7.69869 27.7546
17.2756 8.4349 29.6346
18.0625 7.85351 30.2387
16.7338 8.18599 29.6396
19.6311 8.66672 31.6674
18.0464 9.07905 31.1646
17.2247 7.93524 29.3281
17.4652 8.98643 31.393
19.1193 7.98363 28.4648
16.9949 7.99278 30.1451
17.0462 8.15391 28.9178
15.851 7.84407 29.8347
18.2187 7.4249 26.3155
17.4575 8.30614 28.6195
16.8658 7.53231 27.4358
14.323 7.55972 28.1007
14.5358 7.08283 27.855
14.3294 8.13916 27.4151
15.1242 7.63965 29.9838
13.6619 7.62834 27.4636
15.1009 7.93224 27.0893
13.1629 8.01629 28.2017
15.1459 7.97107 29.6926
13.7059 8.21219 29.335
14.3661 7.51089 28.2595
13.3091 7.78773 26.3668
13.9242 7.57364 27.0129
14.6686 7.69661 29.7991
14.0236 7.73701 27.9385
12.8334 7.59786 28.4096
13.8575 7.48708 27.398
13.7868 7.60823 27.3208
15.2245 7.41807 27.3205
13.3353 8.06385 29.6878
14.8064 7.20604 28.6782
14.1598 7.16809 24.4543
15.8276 7.06512 27.3731
13.8268 7.48991 25.2417
14.9004 7.39846 29.2913
14.8964 7.6765 26.0094
16.2816 7.59679 28.9907
15.7129 7.3827 26.6444
15.6844 6.97266 25.4549
14.4505 6.99517 25.9254
17.2796 7.20198 28.7651
13.6965 7.64904 25.9168
15.8679 7.10837 26.5951
14.6624 7.20137 27.0482
16.4428 6.73932 25.9903
13.0967 6.91165 26.0177
14.5997 7.31152 25.8698
13.9555 7.21644 27.5855
14.6125 7.35602 29.4838
13.1675 7.46251 26.61
14.4088 7.26125 27.6195
13.1996 7.69783 27.4524
13.8155 7.11756 26.9627
12.6256 7.30624 27.0078
12.7992 7.44906 27.8254
12.3496 7.41199 27.8742
12.5824 7.69723 27.335
13.2724 7.01834 27.2066
12.5122 6.6615 25.8216
12.9156 7.60684 27.6443
12.362 6.51759 24.5527
11.5783 7.5367 28.3888
12.1794 7.77885 28.2745
12.2162 7.269 27.0934
13.2741 6.8295 26.0558
13.0704 7.30419 28.221
13.35 7.64896 26.5817
12.2747 6.58288 25.2967
13.0399 7.14398 27.4576
12.1599 7.34758 28.3506
13.2978 6.85549 24.6853
13.2129 7.08958 27.9954
14.4565 7.84461 27.8246
12.7043 7.37398 27.5303
13.8643 7.22739 27.2154
13.4464 6.68237 26.1423
14.3136 6.95508 26.0866
12.5159 6.90459 27.5284
14.9117 7.67674 27.4901
13.2182 6.96579 26.6693
15.1746 7.08284 28.2645
12.3659 7.08881 25.2191
15.1812 7.0472 28.2787
12.7731 7.05624 26.1235
14.1691 6.66819 25.4438
13.301 7.18408 26.2503
13.8645 6.69584 26.6533
12.5255 6.70054 25.5916
13.8334 7.03773 27.6366
12.5699 7.40927 27.4647
14.199 7.08605 26.1478
12.733 7.09119 26.2409
13.7602 6.56861 26.2254
12.3858 7.1581 25.4227
11.7226 7.02323 26.9761
12.6757 7.0797 28.426
12.3019 7.28295 25.7271
12.2304 6.67134 25.5922
12.9142 6.82512 25.8883
12.0042 6.80794 28.1545
13.9976 7.07263 28.1646
11.7339 7.26528 27.2611
11.6139 6.96111 26.1932
10.9761 6.96079 26.9414
12.5068 7.41551 26.6248
11.6762 6.99541 26.5849
11.755 7.28523 27.0028
12.398 6.39909 26.7748
13.2165 7.15814 25.2698
11.7208 6.84777 27.5173
13.7851 7.26715 27.4155
11.2072 6.866 25.9251
12.0782 6.85655 29.2704
12.5679 7.36116 26.8005
13.6511 6.79663 27.6918
13.2354 6.73838 26.2944
13.6328 7.34815 26.5435
13.0662 6.83783 26.4395
14.2107 6.66469 26.0199
13.0683 6.55853 26.2362
13.5121 6.5149 22.493
12.6109 6.68913 26.9597
14.3132 6.65112 25.7391
13.6361 7.5002 27.7693
14.7214 6.71112 26.1116
12.6522 6.76494 26.3095
13.9688 7.12292 27.4624
13.3698 6.90411 27.099
14.5868 6.70045 24.897
12.1877 6.79373 27.5842
14.6315 7.54382 29.2271
12.6127 7.04216 27.1337
13.7533 6.51106 24.8398
11.8472 6.5337 26.1866
13.2728 6.65948 24.9059
11.6703 6.32413 23.8866
12.8943 6.57908 26.8032
12.2061 7.22556 27.7513
11.6833 6.89721 26.4403
11.044 6.91164 27.2586
12.8677 6.5476 25.0981
11.7949 6.56741 26.0113
11.8061 6.53694 24.6117
11.1464 6.39432 27.3232
11.5172 6.99271 26.0962
11.5679 7.1229 27.7811
12.5578 6.7097 25.4841
11.5609 6.93395 26.8737
11.9004 6.6043 26.2706
11.0745 6.59515 25.6083
11.5299 6.68849 25.5921
11.6819 6.52554 26.0265
12.4084 6.71406 25.2213
11.744 6.49858 25.7953
12.3696 7.0509 27.3384
12.7819 6.94299 26.8801
13.2853 6.64 27.1959
12.045 7.07338 27.3376
14.3055 6.7293 25.8703
11.8167 7.11014 26.6854
14.6714 6.39393 25.0804
12.3304 6.30806 25.6675
14.7423 6.7266 25.6498
12.5358 6.73952 27.7592
14.9766 6.85976 25.9219
12.7519 6.73081 25.9296
14.0464 6.37482 25.979
12.3874 6.87639 27.1074
14.2028 6.5262 25.1921
12.4663 6.5594 26.1048
13.9672 6.97144 26.9073
13.1546 6.93838 26.945
13.1345 6.84156 27.1875
11.9936 6.8115 23.774
13.3389 6.00687 25.9713
12.3792 6.50261 24.2802
11.9367 6.53396 26.089
12.0235 6.41612 27.1811
12.6228 6.75688 26.8637
12.1043 6.70691 26.3692
11.2939 6.96296 26.7503
10.7149 6.77686 26.8129
12.5341 6.2912 24.0733
10.6607 6.26747 24.1984
12.6241 6.58587 26.1208
11.4401 6.83405 26.5928
11.7676 6.98916 27.3003
11.2706 6.48251 27.7364
11.6598 6.70003 25.7341
11.046 6.2419 26.1575
11.7819 6.9543 25.8645
11.5443 6.46148 24.0545
13.6601 6.63061 27.6907
11.3012 6.48084 25.4203
12.4302 6.87045 27.156
12.0214 6.26562 25.5731
12.915 6.95517 25.7904
12.8427 6.61915 27.0047
11.9998 6.54455 26.2871
13.9204 6.96089 27.4669
13.6761 6.71636 25.1923
11.932 6.35192 26.3944
13.6336 6.99499 26.3701
12.4691 6.41198 27.799
14.6725 6.82394 27.1153
13.1275 6.91283 26.7553
13.8914 6.67262 26.5561
12.8852 6.69067 25.5162
13.6075 6.28804 25.9848
12.7747 6.99073 26.441
14.0143 6.4673 25.8335
12.4258 6.99274 28.021
14.0259 6.90878 25.5712
12.2459 6.18583 25.7322
13.6545 6.69504 28.1991
11.7621 7.19856 25.9376
13.0377 5.95207 25.9527
12.7841 6.59087 25.8782
13.5451 6.59872 27.2636
11.8384 6.78126 26.3031
12.2113 6.60958 27.2277
11.946 6.97641 25.4214
12.8215 5.98404 26.206
11.0667 6.46486 25.706
12.5467 6.90177 25.0286
12.1234 6.54191 25.5404
12.4248 6.25934 26.4014
11.772 6.82376 25.1407
12.4036 6.18564 25.7171
11.4144 6.67859 25.9736
12.0558 6.77128 26.6171
12.4751 6.05073 24.7005
12.3434 6.50785 24.8284
11.6692 6.38 26.1999
13.449 6.44638 26.6179
12.4049 6.69585 24.8935
12.9315 6.83589 26.1674
12.5036 6.80117 28.1306
13.6826 6.67404 26.0352
13.48 6.43864 25.7363
13.2347 6.73136 26.4734
12.8625 6.4606 25.6453
14.6105 6.78153 25.8394
13.3493 6.75014 27.4056
14.5985 6.53586 27.4534
13.168 6.67866 25.0609
15.1726 6.26287 23.1761
12.3528 6.18019 25.9606
15.9084 6.61979 27.393
13.2771 6.63221 25.2878
15.0154 6.25559 24.3024
13.0038 6.55713 25.6113
15.4343 6.86458 28.8176
14.5883 6.8505 25.663
14.8795 6.74042 26.7962
14.05 6.39848 25.688
14.8313 6.34572 25.928
13.8244 6.68212 25.9055
14.6759 6.48235 27.732
13.3082 7.04729 27.7141
14.0838 6.58543 25.997
14.0888 6.70345 28.283
13.1864 6.54378 25.5223
12.2537 7.01647 27.0744
13.9979 6.45752 26.37
12.7069 6.44077 24.1814
13.2162 6.3861 28.6503
12.5994 7.00771 26.655
13.4385 6.62699 26.6664
13.0703 6.42091 25.8385
12.6824 6.59742 26.6633
12.8683 6.82185 28.1726
12.6912 6.64701 25.8459
13.7193 7.21651 25.8823
15.4361 6.58472 28.5153
13.3383 6.69618 28.1224
14.2335 7.24691 27.3714
12.8989 6.84763 26.875
14.6072 6.7881 29.4608
14.161 7.49678 29.1548
14.6578 7.13575 26.8045
14.652 6.54684 27.295
17.1622 6.60089 25.7382
16.1986 7.22752 28.4859
16.1686 7.42748 30.3738
14.8308 7.23329 28.356
15.72 7.42813 29.3336
15.6955 6.84178 29.502
18.1081 7.99081 31.385
16.9804 7.04194 27.8638
16.0292 0 0