# pn-170911/CsIIA-38-TWTF-1280-1959.psd
# Power spectrum* (dif=0,1,2) (really just |FT|^2)
# NOTE: only the first half! (symmetric)
# weeks: 1280-1959
# 7 clock-days, 3 excluded
# PSD: 1441
44695.9 0.522447 0.0373131
951329 15.4765 0.00555511
4.76235e+06 95.2264 0.00511704
1.06105e+06 36.5123 0.00695226
1.34243e+06 82.471 0.00921426
537904 55.5037 0.00501398
532890 79.3633 0.012901
453586 115.396 0.0370081
198041 52.6412 0.027184
124042 39.6792 0.0231426
108487 45.196 0.019618
84183.2 60.6495 0.0395938
53148.3 31.6435 0.0310329
70905.9 51.8645 0.054403
26289.1 15.7473 0.0260007
54683 52.6947 0.0541229
60764.2 66.4111 0.0864245
44068.8 71.5519 0.1156
30188.7 46.7024 0.0855831
27549.4 56.7594 0.1014
23558 34.0068 0.0558695
27310.9 57.9825 0.131408
21605.7 39.8237 0.110344
25514.9 54.9633 0.152145
15037.6 38.1492 0.121331
21890.9 59.2934 0.210516
17845 41.0517 0.156403
9509.24 30.1851 0.109078
33833.2 113.717 0.406261
10861.8 30.685 0.118935
14648.4 59.7367 0.299266
15489.3 66.7932 0.274591
13600.5 52.2619 0.250889
7810.79 38.637 0.218035
8809.15 40.8291 0.251236
8184.06 39.231 0.27403
20614.3 134.434 0.832709
7881.39 42.8345 0.262338
8867.01 53.6903 0.376084
8754.05 65.7112 0.518077
6976.88 39.9147 0.290712
10836.4 79.531 0.685926
8434.74 67.7829 0.596326
5970.24 49.5018 0.417594
5114.69 44.8401 0.452792
10490.1 84.2552 0.821962
4752.39 39.7059 0.446269
3705.28 36.0269 0.448965
2951.61 39.8771 0.426212
6086.31 57.6165 0.615987
5748.98 67.6788 0.792626
2433.42 33.756 0.465177
2664.89 23.1794 0.299017
3875.21 37.0446 0.530165
6644.37 78.6501 1.14191
1657.34 19.9442 0.264668
4866.88 75.5977 1.12086
3215.75 48.1483 0.844213
2753.92 49.8043 0.768809
2921.93 54.3406 0.812038
2135.19 40.4048 0.700583
2428.68 49.392 0.890688
4660.04 77.4657 1.33598
2228.98 44.6641 0.890461
4443.18 76.2791 1.49326
1125.59 36.7116 0.793604
3967.75 65.9001 1.32137
1139.33 20.9507 0.480912
2956.48 49.6984 1.12362
1750.17 33.2939 0.743106
2389.14 48.7078 1.10304
4960.16 89.1275 2.17808
4959.85 99.0378 2.38254
2570.12 70.3994 1.78146
1026.12 33.0444 0.828062
875.753 15.3231 0.430194
1473.27 30.7366 0.876334
1229.14 39.6617 1.19754
3766.37 91.3693 2.47807
1511.02 39.9144 1.13866
3217.39 83.1562 2.52363
1677.59 52.7117 1.59928
2533.02 69.1158 2.3794
769.707 24.9309 0.840032
2562.38 73.9036 2.50185
1660.76 63.6656 2.15193
1424.96 46.1362 1.74713
1272.13 47.0596 1.71498
1696.4 70.1119 2.48029
2524.56 81.8115 3.05237
693.719 33.4927 1.27977
1981.72 74.5681 3.1166
752.471 32.0066 1.21987
1923.7 70.6813 2.88543
1592.19 55.7563 2.42388
1772.28 62.347 2.68812
960.127 44.3903 1.91813
1442.15 60.1262 2.71838
933.824 30.8655 1.51347
1139.93 47.049 2.05113
1303.26 62.3949 2.97533
1402.99 56.9687 2.71414
837.231 33.837 1.80358
735.959 36.4447 1.80193
654.351 26.5814 1.29367
843.383 53.7247 2.90566
809.942 47.7415 2.81355
398.343 10.4875 0.652677
961.901 39.71 2.0856
982.524 61.8568 3.40397
1616.08 94.2035 5.20766
1400.68 78.1359 4.75956
682.965 39.0586 2.30003
811.858 43.575 2.61751
1021.65 51.9293 3.24561
775.65 40.5417 2.5325
1729.41 76.7467 4.85287
843.551 35.3026 2.35231
861.909 53.8184 3.70349
435.096 24.667 1.72345
565.755 42.3102 3.20311
632.268 37.2534 2.39863
968.281 48.8046 3.50981
508.73 35.1737 2.77712
514.18 34.2985 2.54793
736.154 39.2764 2.69516
678.088 52.5971 4.01494
1129.78 73.6684 5.45718
1137.95 63.8294 5.18636
899.352 59.1016 5.28119
596.814 62.1255 4.7854
792.615 47.9466 3.70424
603.44 47.0419 3.6785
768.157 61.6856 5.06518
850.176 49.2988 4.04966
933.311 58.623 5.07985
629.643 47.0481 4.02807
196.997 21.3455 1.86799
485.717 35.2902 3.12106
738.455 52.4648 4.76647
410.252 32.2146 3.0905
688.844 55.3159 5.18598
888.909 78.6055 7.72495
502.31 35.5809 3.51916
896.412 71.8351 7.52636
199.226 26.0135 2.32672
522.418 45.6893 4.24059
675.094 65.8076 7.02569
413.406 25.7949 2.72247
283.457 43.1012 4.48066
870.738 87.2155 9.03957
330.015 27.9887 3.0908
760.055 71.5735 7.65424
363.227 36.6322 3.78352
665.675 71.4882 7.63711
309.006 37.9605 4.47919
557.136 56.2931 6.3816
476.316 44.1553 5.21664
323.648 46.8162 5.77068
412.225 46.1814 5.84986
282.83 43.4455 5.27872
278.884 38.5432 4.85188
332.953 39.1301 5.07408
501.643 67.5784 8.7553
311.578 26.2811 2.94886
411.028 50.5608 6.68236
279.847 32.8309 4.12306
520.403 71.0486 10.2698
329.332 24.9531 2.74664
351.483 39.5725 5.33465
362.061 37.6688 4.67146
367.865 61.7611 8.74622
375.423 34.1054 5.35929
384.13 40.1121 5.82604
180.607 34.683 4.84855
581.916 76.3492 10.114
327.173 40.8864 6.56253
789.668 94.9825 13.4667
100.722 13.1336 2.05341
231.483 33.4095 4.86463
176.711 15.0403 2.33541
276.96 43.6673 7.06292
549.369 65.607 10.3554
251.593 31.3724 5.00788
257.703 32.6782 5.40179
306.952 50.1463 7.85272
532.321 87.3209 13.7789
237.475 30.9765 5.45896
194.232 21.7793 3.66253
300.241 37.9732 6.63409
395.501 47.1272 7.53983
278.937 37.4771 7.08182
266.275 42.0355 7.44103
190.884 30.6164 5.37353
361.789 40.7122 6.76248
287.07 40.7975 7.72087
421.954 64.0246 11.6724
171.261 35.556 6.57535
376.354 53.5616 10.0263
282.35 37.7992 6.25962
264.17 40.9271 8.34689
329.687 57.1524 10.4078
254.024 46.1614 9.80143
444.281 69.1287 11.6812
235.586 39.5871 8.37335
215.062 51.8286 11.3263
637.744 103.43 18.8892
340.463 55.7829 10.5918
346.192 52.2901 11.5619
249.314 56.1379 10.9696
159.272 30.1575 6.43974
178.661 37.8844 7.76343
198.011 27.118 5.80255
176.096 32.2808 7.57137
247.202 50.4776 10.998
221.382 41.5454 9.66668
384.589 69.0297 14.0552
268.477 46.5756 9.43088
399.425 81.811 17.3566
361.175 67.1024 14.2783
136.115 31.7609 7.69144
179.81 32.7628 8.82933
198.49 36.2374 8.21725
261.859 60.6279 14.15
208.305 38.7496 7.61685
211.485 49.5011 11.2738
277.153 56.8875 12.8791
143.921 33.7533 9.51891
173.921 48.7683 11.87
278.834 45.3607 10.7861
115.172 31.2527 8.18719
44.5216 9.296 2.79218
173.181 55.2195 15.6176
196.338 43.6633 11.4756
277.806 66.3708 16.8321
179.994 34.5668 10.1133
243.093 43.5383 9.31179
146.734 36.3761 10.4418
198.995 39.799 9.46644
90.6698 17.76 4.89553
141.525 27.292 7.63134
140.239 44.31 11.002
88.4033 22.2623 5.89399
122.144 40.9286 11.7288
55.3806 25.24 8.18343
215.059 37.1225 9.60662
197.196 45.9412 13.0791
279.47 71.1355 20.5141
154.053 31.6202 9.87553
187.538 48.5861 14.9207
328.209 79.2053 21.6827
150.965 26.052 6.77395
253.013 55.6922 16.1582
164.007 38.9561 11.325
204.095 56.8644 18.7432
108.138 23.8424 8.07419
208.062 61.5334 16.9777
128.482 49.5686 14.318
108.965 32.7833 9.93606
199.757 69.1265 22.3345
160.512 40.6308 12.5571
280.947 86.4921 27.0944
179.477 44.2471 14.8656
285.513 64.1733 20.0693
110.017 35.9776 10.9051
80.0739 38.2325 14.7272
201.014 42.0617 12.4067
98.8288 25.8303 8.55823
127.454 49.1506 15.4184
142.363 37.0313 13.2028
189.066 58.1098 19.3745
129.505 37.3915 10.8967
140.749 33.4178 11.1464
82.1966 32.686 12.7273
170.455 44.3823 14.8412
115.29 38.242 13.1425
62.0329 14.772 5.90712
123.535 27.7315 8.78673
156.848 42.9479 15.3075
129.462 56.2837 21.4054
104.726 30.5049 11.367
82.3947 25.8233 10.8561
184.134 55.5687 21.5454
178.176 45.4534 13.952
86.6686 29.2318 12.4988
97.2034 27.4816 8.09499
68.9209 36.3572 14.1497
288.945 81.734 30.9885
126.239 34.4285 12.6786
148.499 47.566 18.5104
148.929 51.6943 19.8499
51.0671 24.6426 8.66789
86.7615 29.0252 10.6997
82.2001 36.3711 15.0701
115.284 41.4156 16.6297
117.408 46.4888 19.3189
146.546 34.7963 12.72
102.507 33.9804 13.662
61.3732 25.1623 12.5518
87.835 37.4693 13.5416
54.3827 28.1576 12.1547
45.0052 15.6886 5.69723
90.6269 36.4365 16.1379
85.6678 36.2272 15.2064
88.7057 41.6188 20.6144
180.564 43.9124 16.2809
182.852 61.148 26.7086
106.014 32.1088 13.5554
117.452 42.8226 20.1895
85.9577 48.7496 20.7247
74.6095 22.6351 9.04912
63.3328 29.1438 14.9854
169.496 71.6481 29.3227
52.7062 27.691 12.4205
110.53 46.4286 19.4112
73.1926 39.2091 20.561
130.074 43.1449 19.1325
118.694 41.695 16.9155
82.0858 57.2659 28.4118
106.492 46.4271 23.2883
127.132 37.9297 16.0295
149.062 63.3199 32.1983
101.552 35.219 16.7524
44.7377 20.9501 11.3566
84.2031 28.8016 12.8794
56.0581 19.2426 9.29707
60.5483 20.7768 10.9349
136.045 48.5359 22.6741
60.3071 12.6784 7.50099
110.554 55.6528 28.757
88.3653 36.9662 18.2137
90.9339 39.3707 20.5544
130.345 38.9388 17.5346
101.34 35.3534 17.3112
129.895 56.172 30.4108
128.865 56.406 27.6061
89.2821 44.6518 25.8196
113.719 44.6753 19.9072
73.4733 32.77 14.0058
79.5514 32.4864 17.6915
76.6372 26.1779 14.2501
62.6599 31.9895 20.8754
95.674 36.4048 20.621
118.486 51.7506 30.4862
82.6396 34.2356 14.647
117.932 53.8393 29.3988
90.487 43.6228 23.3439
60.2728 36.4432 20.455
71.0001 46.3028 23.9443
50.5738 21.3187 12.621
63.3858 31.7151 17.3937
48.316 27.4843 18.1269
54.5754 19.9271 10.0567
33.1123 29.978 16.102
40.2936 16.9993 9.59439
109.779 60.1319 32.9158
56.1539 35.1054 19.3298
48.3694 28.9124 23.5635
88.529 42.8594 19.7533
97.0077 57.5969 30.1713
31.6239 19.3313 15.0869
54.3181 24.9698 15.3501
46.8606 33.0452 19.9408
75.609 41.4222 19.2592
108.756 57.6237 37.1444
23.8869 17.6536 11.5933
69.6574 29.8249 20.533
76.4199 50.0757 30.3099
79.2517 34.2984 20.85
46.5441 18.403 10.2103
55.5949 34.1493 20.8169
63.896 37.3937 21.5194
45.1103 28.4247 15.1278
47.4853 18.244 8.96365
40.1029 27.75 19.3866
51.0838 29.043 16.9788
72.6498 31.1928 18.2549
36.5477 20.4262 14.3354
57.4776 27.628 16.6671
59.9018 35.4412 23.843
71.9064 26.5058 16.9039
65.2112 36.2304 25.693
46.2138 32.5508 21.0023
46.1415 31.3283 23.8609
98.1455 39.8504 26.1195
90.9777 49.823 28.0584
57.9603 36.4521 22.9272
41.5702 33.766 25.3858
43.4599 15.441 10.4611
44.2823 27.0809 18.5597
61.8158 36.1705 26.783
53.3058 34.331 23.5219
62.0355 52.3468 41.2452
45.6707 19.6509 9.41642
26.6182 19.8814 16.477
81.2564 34.8524 20.7836
74.4312 45.0074 29.6106
78.8139 44.3961 27.3114
55.575 37.459 29.4164
27.9476 19.8299 17.2084
58.9589 34.5585 19.1922
48.4832 37.1571 37.266
76.4163 48.1546 29.0006
38.473 36.9323 25.315
63.1541 42.5147 30.5883
77.9824 55.2577 35.863
78.1507 58.1398 44.2744
68.9099 42.4919 32.9839
55.0676 28.3117 18.1627
36.2584 23.2947 22.7274
37.8124 19.2076 15.0029
39.2436 36.0704 27.9165
57.8892 25.9017 13.4055
40.989 37.6643 32.7718
74.4129 56.809 40.2058
72.1841 41.2297 25.6609
39.2563 41.8614 37.0219
59.5998 29.8249 21.0308
25.1793 10.6021 7.44471
34.6854 42.3935 31.7162
42.0387 32.0806 30.9588
37.1857 29.7023 29.2703
79.2095 51.0874 35.0693
64.676 40.8966 30.5714
63.7529 47.1607 35.9223
42.1679 25.228 25.9753
44.0752 25.0211 20.6149
39.3098 24.2743 20.8303
75.395 48.6519 34.366
37.5912 24.3698 21.6729
43.6675 24.7244 16.3345
43.9002 34.2513 32.2468
30.3659 33.0052 28.7195
43.983 25.3665 19.3974
49.2233 35.107 28.9523
33.2306 15.3014 12.2238
60.8733 55.9636 49.0569
49.9803 30.1839 25.0721
44.8543 31.3353 24.0893
35.6085 25.6146 26.1796
41.7465 19.9206 11.5476
22.7698 19.2141 16.5884
52.7403 31.7877 26.0402
40.2193 31.2113 32.1255
38.4634 24.1045 18.3668
69.6842 62.3121 54.711
52.2571 27.7758 17.9906
28.9171 29.5074 26.2818
39.4645 37.2153 35.7185
46.2721 36.7542 36.5803
41.7983 28.0739 32.1779
53.1701 26.8857 15.6174
38.8914 24.3349 23.9066
36.3775 29.5911 28.2091
64.9584 42.3177 36.2442
59.1858 49.9617 42.7714
27.3911 23.1352 20.3902
12.0966 14.589 16.864
20.3838 15.2209 16.1735
33.4967 29.2703 24.7633
55.0511 61.2773 56.2228
78.7918 59.0234 51.6697
19.5849 31.1409 42.4005
43.6161 19.3159 17.6213
43.0473 32.3676 33.2758
59.6018 42.3918 29.7594
48.7108 47.9512 51.761
29.924 18.5004 15.6879
29.3903 14.162 18.4179
47.0431 26.6364 20.4418
34.0596 23.7709 29.6463
37.8555 35.642 34.0684
46.6883 32.3372 28.4569
28.7342 17.753 19.6091
53.0164 43.1498 35.0079
31.3166 15.9024 18.1027
47.0735 49.8955 46.8233
35.293 19.2342 19.7209
44.2354 34.0965 36.782
56.8833 39.1916 31.6017
36.5258 42.5561 45.7592
35.7701 33.6005 34.3474
24.5778 30.0605 26.7975
19.5516 12.6269 14.6709
22.71 25.2496 26.1722
18.9996 9.23043 11.852
15.6936 16.9188 17.8635
33.5821 33.0644 36.4631
35.9738 23.1294 22.1026
42.9345 27.1206 25.3403
14.788 15.4156 19.5611
38.1811 18.1751 13.5956
44.8844 29.7694 31.5472
28.3587 36.8426 38.3355
32.0089 30.6351 29.6176
19.8176 15.7929 18.8384
34.5022 21.41 17.8392
29.8466 34.9895 51.4904
36.2879 33.2484 33.548
55.6766 41.8385 42.6669
39.7754 30.2901 35.7307
63.0628 61.0491 65.2199
51.4078 50.251 42.1497
37.0172 21.1727 16.2543
27.4041 30.8476 37.8137
31.6779 28.1847 35.0494
28.932 28.3825 30.0062
31.1313 17.6419 18.1019
34.8184 24.2153 22.1992
16.9691 15.8513 18.6088
17.4612 16.8206 22.1284
60.6101 45.5319 36.1188
26.1867 27.5726 33.9377
49.4671 39.1284 43.3387
16.5038 19.8796 43.9268
45.6725 56.6238 52.4683
30.5679 28.7505 34.7814
29.1586 22.9636 28.8144
41.5716 30.8294 28.7021
34.6941 33.2966 32.1617
39.6189 30.0009 36.6086
32.255 30.3886 33.4341
30.8271 19.7058 24.2869
29.6357 27.8583 38.2338
20.7217 19.5337 28.7143
40.5648 39.6703 38.5055
20.1504 30.7576 49.4853
46.5111 25.7696 21.1866
18.5401 12.6833 10.7113
44.8195 31.1024 27.7299
29.6355 22.8942 23.9168
17.5331 18.4593 30.973
17.9051 23.4225 28.8772
15.4536 12.0703 21.8891
31.1137 30.4436 37.4939
21.0999 36.8956 39.985
29.1403 23.6314 30.9175
32.0706 39.7878 51.6308
21.9289 33.8289 38.5217
34.166 25.8246 31.283
12.2058 20.8655 24.6818
22.4032 25.3061 44.2877
31.5534 23.7105 22.9784
42.2261 47.2687 57.8481
18.5506 25.8889 24.0281
15.7767 25.4222 32.6165
18.1896 21.0242 31.2139
19.2874 17.4935 24.0007
19.234 20.3925 23.0178
17.0797 14.7473 14.3211
39.2572 40.7052 45.6199
45.2151 60.137 83.5322
26.2239 25.7634 35.7385
11.7748 13.9722 19.9648
14.654 15.7342 27.9545
25.8129 23.9892 27.9441
30.3273 23.0887 24.8531
12.7695 21.7066 38.31
35.5269 41.8862 43.5052
23.5996 16.9431 25.8737
39.1011 39.7865 47.2253
20.9066 22.4126 27.364
11.0228 23.8029 37.367
12.8952 26.312 46.3514
34.4855 27.9293 24.3976
16.8127 17.6192 28.8554
25.5643 35.6565 50.0898
17.8087 22.2506 24.9328
24.896 36.5329 47.9721
21.9422 25.9814 36.4442
28.1025 18.4868 21.5728
17.1464 32.1788 61.8391
47.8711 39.955 35.8891
17.8624 15.7839 23.4409
32.2601 22.5517 25.1888
11.5486 18.7249 34.6403
35.3359 26.9824 25.4776
29.1749 41.3785 56.7989
25.5501 19.071 35.1018
25.8916 21.5353 25.7749
7.43499 8.94632 13.1485
18.0889 24.4562 43.2741
20.8994 24.6577 40.3889
28.3792 32.597 36.0627
24.175 23.4542 26.0459
16.9971 21.391 30.3233
20.7207 26.6525 30.3737
19.8913 28.1451 44.3484
36.119 56.2748 95.3775
22.9925 17.3937 23.0607
19.0932 30.2328 52.8735
34.5215 27.774 35.4386
28.0546 27.7871 34.5798
13.4853 16.2928 23.5807
17.4227 22.8389 53.4584
32.3988 21.5407 14.7609
17.604 20.4022 27.7685
30.144 26.3 33.6164
18.5812 16.7977 37.5458
36.9183 43.7887 53.3992
21.053 37.8189 65.3828
16.0547 12.4438 21.4011
13.0292 19.2763 31.5002
25.5885 26.6968 32.9654
23.2183 21.2473 32.1266
15.1112 16.4466 23.5658
21.4319 23.239 26.2998
12.1448 9.05617 13.3206
15.4153 23.0882 31.9926
10.0131 13.5072 24.6946
22.5988 29.8508 42.6301
18.7759 23.2924 32.3516
19.2221 26.7466 40.7341
22.5331 25.7014 29.791
10.145 11.4418 15.9122
19.834 28.1189 47.8691
13.191 6.98003 17.8451
26.88 26.0252 35.361
11.1452 12.4632 31.3715
11.8076 16.8824 28.334
21.8264 28.3276 36.3765
25.3651 25.3279 36.7233
11.3253 22.8001 37.9777
47.2905 56.7154 87.4355
14.8698 26.6632 35.6179
15.7753 34.2006 52.9525
17.9991 15.5726 36.6808
27.4778 30.4096 51.5127
14.6933 17.6431 32.6056
13.3821 15.903 27.5399
11.7068 4.49175 9.65014
28.6794 33.2706 46.5467
25.5731 44.3616 71.4826
28.2244 50.7714 107.696
32.2295 21.4584 20.3306
14.395 21.8449 31.0743
18.9187 38.1754 61.9535
20.823 14.6147 15.0281
12.3846 17.4632 35.934
23.0693 31.827 63.4395
18.4362 18.2384 36.0693
26.9371 27.5074 22.1187
18.9692 29.7053 47.6716
11.9445 19.9421 39.2876
9.67325 8.55255 15.042
11.114 28.5832 56.6467
22.3387 23.1977 37.5644
10.4684 16.2785 28.6619
12.7087 12.2159 28.6802
31.4104 30.276 39.1599
6.87995 9.68395 18.2811
11.9766 12.8979 24.0312
8.78326 17.9598 34.3609
9.60524 14.6273 22.1258
9.74409 11.1775 26.7905
13.2532 23.8045 34.555
11.4244 10.1986 20.3269
11.509 15.6673 16.3251
10.5735 15.0495 36.8121
14.896 26.0193 46.2431
14.6584 20.955 31.3019
16.4714 18.7749 25.1015
13.6792 32.1818 68.5287
21.3315 25.7427 45.6762
24.7167 23.7952 36.6212
18.2633 22.6492 34.3815
14.7746 18.7436 20.8002
20.7689 30.0342 45.0574
13.6345 17.5488 32.7628
17.4312 26.2176 55.8666
15.1465 12.9888 35.0576
9.91308 10.5438 17.6675
20.5743 17.3061 20.7988
23.2751 35.7504 54.4105
12.9021 32.4407 64.7311
15.2837 15.3746 25.9845
12.7296 15.3946 46.5736
22.7866 18.5359 35.7334
23.0142 24.7937 49.4733
17.9321 28.9434 40.252
14.4636 21.0575 31.0774
13.6513 14.8677 23.0006
17.0403 23.9692 47.7344
7.29893 5.79161 11.1345
11.4289 19.09 47.8046
10.8393 25.4828 49.1716
21.094 15.2138 25.5082
7.53116 15.2315 28.8377
11.0278 20.8656 42.0262
17.0928 17.7402 18.8131
8.17092 14.1881 33.0039
17.4365 32.168 53.0106
9.18442 30.6961 60.7137
21.3444 20.8812 51.0699
19.3688 26.7035 38.3607
17.3909 20.8612 33.6463
13.2193 24.87 60.5944
12.7498 24.1696 40.1425
7.94539 14.2265 40.9696
18.3268 34.6999 53.3342
12.1654 21.9989 36.099
12.0418 18.8485 46.4871
16.4664 32.028 57.0254
15.184 22.4266 37.0581
14.8745 28.1151 56.8964
12.4457 19.7161 46.2923
15.7855 23.4493 60.888
10.2092 20.9296 44.8751
11.9652 10.3517 12.644
7.05502 9.71814 21.8069
6.61554 15.5239 49.9092
20.7365 27.7269 58.2134
12.5976 11.5416 20.506
19.2792 34.2579 49.5033
14.4942 20.8659 38.9302
12.3374 7.74898 17.8235
14.2586 11.4897 21.8415
15.3465 29.5002 64.466
19.38 28.7924 56.2545
25.896 35.1469 48.871
5.0789 11.7456 29.5908
7.28472 8.2802 13.1022
7.44868 20.2791 59.5029
17.3064 23.2914 37.022
5.46712 3.66465 15.5427
12.4592 20.9436 40.5478
13.7345 28.9332 58.4989
9.27699 14.0672 44.5722
22.3157 41.0881 64.464
16.5622 32.6931 60.0513
11.487 17.2775 34.4258
6.05311 18.8555 57.0878
13.6695 16.5049 41.6836
10.2727 25.1408 52.4372
14.0883 8.5397 9.50136
4.78293 12.1865 47.2269
25.4728 35.638 61.9038
17.9685 19.9379 30.8611
7.77023 12.0076 25.9049
18.6309 43.6344 98.5438
19.9853 16.7622 29.8502
14.7012 16.8806 36.2795
8.59546 13.3944 28.1079
19.2463 30.6208 63.696
7.66335 10.2566 28.719
3.85539 15.5039 33.7676
7.80821 14.5044 32.8868
7.66488 11.2625 29.9842
15.8379 31.2803 43.3942
10.3425 13.2819 30.1463
9.62681 14.2761 48.5592
25.5525 26.4361 34.4467
16.0103 30.853 65.9897
17.1373 14.6171 32.5496
18.6245 26.122 53.5564
7.27473 6.86655 20.6668
10.8678 17.8043 39.1928
14.0539 19.9794 42.2512
14.9935 21.9838 33.388
7.54384 19.224 30.0683
13.5698 28.7799 58.5632
9.87054 25.342 57.8606
13.8398 16.5739 28.7342
7.70037 24.7404 66.9016
21.9382 27.7937 50.7948
10.2041 14.4528 13.5012
10.4068 31.5835 71.3474
11.6808 25.9715 62.685
12.7963 19.1218 57.3301
19.9777 31.9457 62.7199
9.04855 11.6101 28.401
8.91012 19.5977 28.4963
9.64564 24.1157 57.1464
5.85521 10.4644 39.6647
12.6464 20.2125 47.5639
8.67221 20.4835 53.7786
16.007 26.291 50.6451
14.175 32.2766 66.3119
12.0109 7.71348 20.0513
12.4422 21.091 32.4696
4.81597 7.16839 16.4067
8.72021 22.1989 56.6856
12.0414 10.3478 25.3011
11.3565 22.3268 64.341
20.5786 28.5524 37.7137
8.52211 16.6226 54.3549
13.965 29.852 54.8263
8.54413 26.7917 81.7802
20.8371 23.9277 29.198
8.98728 22.142 53.261
8.7075 19.7767 52.049
15.5862 25.1757 48.4989
12.6111 30.2315 68.9457
13.264 16.5562 54.3734
10.4578 18.9925 32.4824
9.28704 15.135 40.4745
12.1202 19.6365 35.8197
9.63586 14.5157 40.6824
9.78239 24.463 54.4985
11.9895 7.70881 12.2688
9.15708 23.5939 53.8798
11.3066 22.3505 67.0756
14.2219 24.3787 37.3602
6.00253 23.4942 79.1559
12.5113 18.8133 46.7631
5.5957 9.713 19.3297
2.53773 4.97651 18.3595
3.86281 14.1277 30.1067
9.54294 12.9919 30.796
4.77949 16.539 35.2958
5.18233 10.8877 31.301
6.72955 13.7188 23.8239
5.10424 12.7627 31.9611
10.368 26.1422 54.7697
8.49401 11.275 36.0486
6.42851 9.81875 17.4205
6.93896 35.2212 77.8375
9.69375 14.5773 47.1385
12.872 21.3521 43.596
8.35732 14.7647 46.7811
13.3354 14.6595 44.3523
10.8715 24.3147 70.17
13.5687 21.2162 38.4305
8.54766 26.8947 82.1602
16.6605 15.9454 36.5856
13.4021 15.9087 31.0235
7.81447 11.7102 19.3454
6.86896 18.8953 44.7601
11.9317 20.4524 46.4592
7.38892 11.2497 27.1194
5.2435 16.2985 53.2444
10.5162 28.1433 50.1611
10.1383 24.1186 63.9652
12.0101 8.26968 27.565
10.942 14.46 40.8841
8.80492 21.4159 64.9774
11.4815 17.3901 72.8243
17.6339 25.6982 57.5449
16.7081 25.7798 46.3328
10.2962 12.1085 21.4377
6.34318 10.4277 32.3158
8.38758 18.2417 45.7297
11.9214 25.8443 51.9213
9.11564 19.7182 67.0212
13.7964 14.768 35.7286
13.4874 24.4256 51.4763
14.8727 27.9619 74.4604
7.77883 12.182 28.0781
7.62958 16.2951 39.3291
10.9043 15.8565 37.0103
5.27593 8.04207 33.8489
14.1504 18.0289 47.5209
8.4365 15.1008 34.7505
13.4896 20.5028 35.7711
5.40529 13.7128 39.9312
8.62813 14.9617 33.4747
5.8291 23.9765 54.6286
8.49082 16.9805 42.2139
10.0871 18.4618 52.7503
5.26071 11.9282 29.3106
6.36092 25.2932 91.521
13.1274 26.1093 61.814
11.132 14.9914 37.2333
6.7935 12.3092 38.3709
11.3508 17.092 34.7399
3.49834 6.00525 28.3652
8.89442 11.252 51.7402
17.4885 24.0627 53.9004
11.7877 18.1367 32.035
7.61209 7.9208 20.2308
8.9468 17.3864 46.6799
8.48265 11.7815 18.0065
9.71875 19.072 39.7979
5.69089 9.78549 40.4325
5.90612 13.3462 36.0019
5.7787 13.9411 54.6219
11.9663 19.022 31.8056
6.14351 6.1516 22.3444
9.22186 21.0772 57.8384
8.49915 15.341 28.4062
4.65521 13.2223 33.0162
6.19523 17.0225 73.9616
12.2535 13.7707 34.3889
5.77599 14.5526 54.6867
12.4885 24.2036 26.3308
3.07362 12.8537 29.1435
6.77791 14.1885 50.9301
5.38598 11.9647 37.862
5.65819 12.8252 38.9157
10.4139 24.5536 50.186
5.71088 6.87291 24.2054
5.2457 7.42449 41.3592
10.2099 11.2462 20.0385
5.0447 16.0127 42.0239
5.68664 10.5625 36.8856
8.04146 12.2138 31.8886
8.8637 8.47178 21.6831
8.31781 16.8721 33.9946
11.1744 17.883 49.9397
6.09864 14.2847 34.3799
4.75305 24.1011 78.5957
8.84479 11.5514 31.0104
7.17495 19.3225 66.854
9.13555 16.9036 50.3392
8.12469 11.8602 34.5398
5.16189 12.4456 37.3685
6.61972 12.6805 41.2574
9.34099 26.3579 50.5084
9.58961 9.00799 20.5151
5.09246 12.7606 45.1006
7.97598 10.1005 22.527
7.22342 17.7133 45.267
1.58116 15.2251 71.2225
8.06176 13.9858 54.7842
7.85648 30.8044 54.333
5.46744 10.3134 29.9771
5.73055 7.74821 13.807
4.46635 9.78675 31.7048
3.08369 7.39978 53.1883
8.22692 10.0323 33.834
12.175 25.5752 39.0885
5.9731 13.1868 54.2722
4.93913 13.1531 27.4016
5.26312 16.3631 50.4185
9.984 20.7933 70.7733
8.813 29.1857 62.413
6.1001 21.7887 65.6139
8.19871 18.5392 57.6846
6.7063 27.1363 65.4438
9.07736 24.47 76.6436
8.67201 14.0151 61.1657
16.6776 26.9029 41.3953
5.05852 14.2986 66.3404
13.421 29.9332 87.5007
10.5092 16.6683 33.0946
6.09882 8.88811 36.9241
5.97504 17.0934 39.7731
5.34256 10.1171 44.4017
7.53772 12.4942 33.8007
6.53147 9.18535 44.6805
8.40674 12.1608 50.8159
15.1083 29.5806 45.2597
5.50346 10.4842 44.5084
5.94708 14.0783 36.4761
8.41031 11.2708 25.5097
4.74291 7.76615 27.5443
7.20196 14.8804 43.2951
4.29222 9.13924 21.1129
5.28659 19.4827 78.7907
8.95587 21.5999 41.4469
9.62715 12.8121 32.195
2.98014 13.0898 54.9761
8.65329 23.0557 67.4949
4.97819 10.811 40.4748
6.1668 10.8694 26.8157
6.84891 23.5886 32.922
3.22118 10.8594 42.8965
2.58228 6.27799 70.905
12.4035 25.5924 32.2476
5.63076 16.0796 39.7901
5.18254 18.6882 49.3595
3.88006 10.6163 47.3709
6.98258 13.8582 43.6684
6.22902 11.4057 25.1241
4.51239 13.1273 61.2416
8.12222 10.5782 40.2574
5.25751 18.9833 37.8962
5.21598 4.8966 19.3381
6.50296 13.3482 35.1495
4.2487 10.2688 30.8315
6.11554 10.7521 47.3779
9.2562 14.174 23.5754
3.56248 8.17192 28.1821
5.69302 12.4365 44.5489
6.56951 9.44468 48.1029
10.5143 9.55283 48.7628
12.52 18.7334 22.0175
4.25169 12.5206 29.9524
4.1159 9.93368 24.0368
3.89606 9.18848 30.775
6.17549 14.5669 53.6882
3.92177 8.93383 28.1354
3.82033 7.05138 46.5332
7.41171 13.1786 32.1116
3.87786 21.2659 47.7553
5.96369 4.92202 48.8183
13.4906 17.3063 37.8517
4.66179 15.8707 73.7317
8.15938 14.8489 45.974
6.25699 31.8819 50.4957
2.52858 8.40464 52.0894
10.5395 8.42302 22.4711
5.89334 8.03876 29.9341
3.35082 16.2709 66.6813
13.4322 22.6476 57.6747
8.71396 15.4475 71.1788
14.3775 32.0263 66.2546
7.17884 18.053 60.5195
4.26493 16.458 52.7788
6.65963 14.4483 27.7307
4.17283 12.8035 65.3568
13.5274 22.7621 59.66
9.70834 10.2117 13.1661
3.74049 9.64956 28.8282
2.63419 12.3061 44.8167
4.50712 4.62727 31.0204
6.95866 11.1925 33.0027
3.06969 19.2292 52.5176
7.04025 10.894 40.1696
3.21521 9.06428 60.9562
7.83321 28.0865 62.0139
8.4048 12.3906 23.9239
4.0604 8.46169 39.5529
8.1669 20.0177 58.8888
8.2683 20.7042 75.9006
5.41306 10.063 54.7687
8.66665 13.8189 33.0075
8.91713 8.48187 30.8034
11.2942 17.3846 25.2884
4.08454 14.3276 52.8186
2.86131 11.0691 57.5716
7.06886 14.7173 23.6594
2.989 6.59188 19.5075
4.11942 8.61011 35.3368
7.16022 9.77872 24.8029
3.16388 5.11903 24.3729
3.76924 5.17603 18.0868
3.27768 7.89133 27.0833
4.38447 7.33626 28.8862
4.00149 8.63305 27.8517
3.18069 15.0844 39.8176
5.04527 15.2455 42.3005
5.32254 6.14612 29.9673
6.96211 13.5602 26.5835
2.92842 5.27616 32.0113
5.88235 15.3453 42.1955
7.32493 16.7531 54.4823
4.43722 5.18545 37.3051
5.33308 17.4377 40.6943
6.48893 11.8881 41.6633
5.02772 21.3593 49.9315
3.95604 8.34302 41.8466
7.08128 18.1476 45.4543
8.44024 16.5194 59.5537
4.48432 14.5137 60.0371
5.09789 13.3991 37.3289
4.02589 9.59464 32.8517
5.54315 4.92144 32.8531
8.90968 25.1984 61.8937
4.75841 11.4582 48.6835
5.72383 4.60569 26.347
7.17704 9.54167 35.0931
7.11525 15.1625 35.2656
4.27736 2.84347 14.3916
2.71075 5.88671 25.7785
4.5866 8.80128 30.3868
8.13126 15.603 72.9081
7.98403 15.0957 51.3035
12.1075 17.4392 42.0085
7.01871 9.50843 48.6022
7.86436 12.9891 20.3541
4.73136 12.9409 56.6202
4.99344 5.23653 37.6509
10.1613 16.9843 32.296
3.18725 12.8092 34.9345
5.53197 6.53147 21.3194
7.53145 17.927 27.9428
2.98063 12.2417 62.3458
5.81751 22.3048 89.078
7.67826 13.9372 27.0429
4.58067 13.2327 44.251
5.9675 18.1486 87.5429
10.2716 12.9318 34.5095
4.58997 10.1473 27.385
1.96215 5.25651 50.9916
4.70862 13.3926 40.5344
3.89304 11.4818 28.3191
4.19906 4.29066 22.8936
1.05558 10.6792 48.8968
5.35811 14.9334 36.7732
5.81843 7.01791 26.3034
3.73383 7.75831 21.8006
2.99389 7.88712 26.2042
2.72177 14.8599 55.1944
3.52629 8.00648 23.3178
5.44672 9.49763 56.271
6.54537 13.3044 27.0486
4.4757 11.0386 49.8806
5.9619 21.9925 39.2829
1.65752 8.15864 28.3352
2.52784 11.2101 64.9452
8.09237 11.7767 21.2236
3.70579 11.4253 39.9606
1.7306 11.1403 33.1091
3.66675 9.76561 37.7486
5.69708 12.9215 60.5021
7.56503 12.7031 23.551
3.67761 6.17144 21.9288
5.14852 7.18824 24.4422
5.46652 11.5978 23.6098
3.14243 11.3919 61.3233
7.39706 9.30577 20.7012
4.89889 7.92607 30.9489
3.24876 4.81941 47.1216
7.48566 18.9256 39.6878
5.27568 11.2232 47.4745
2.77998 5.23516 33.7799
3.99592 14.7721 31.5645
2.80137 5.58795 22.0851
2.46782 9.29602 34.8974
5.64466 16.3912 37.7913
3.36098 6.0553 31.0129
4.35852 12.142 37.4605
4.51241 13.4488 39.3547
4.53826 8.94262 56.1315
9.06519 18.3139 69.3105
7.91586 9.39809 45.2107
7.57722 12.2677 20.0804
4.1115 13.22 29.8111
3.70609 9.94995 61.1052
6.86947 17.3643 43.3212
4.26904 12.5253 65.1077
4.55456 11.3689 31.7045
2.97072 9.81558 24.7965
4.33383 8.29679 60.6939
5.4289 10.5234 31.0986
3.40953 9.81749 39.5966
6.25914 5.05124 19.1892
5.09087 7.65261 40.4799
7.46534 17.8738 41.7588
5.16047 9.91187 53.3411
5.14296 13.3794 32.9321
4.79919 7.28413 38.2158
6.21135 15.7021 61.073
7.44708 14.4101 30.6494
4.31683 6.98665 20.5889
1.97583 6.35232 35.9656
5.87019 7.177 13.5505
4.01632 10.1257 39.065
1.88591 10.6096 38.0149
3.77994 9.35667 17.311
2.80748 12.8637 43.1319
5.06715 11.2406 54.7033
6.25133 10.1059 13.7921
1.62991 6.0946 28.4786
4.62655 13.5986 34.878
3.95443 7.51875 75.4513
8.87955 11.917 32.951
5.40792 13.4546 35.6152
4.65339 7.70633 22.4026
2.96762 5.88807 48.7422
5.1747 7.71094 21.6736
4.69907 14.8421 40.5007
3.28286 11.0846 26.0509
2.78584 5.21753 18.908
3.40175 7.78035 34.5221
3.98111 9.90654 48.2762
6.27179 16.0384 53.4904
5.20441 13.905 47.0164
8.06438 27.8572 90.1657
6.47898 5.55215 21.6088
3.37705 8.80344 48.3955
7.46916 9.65464 24.9325
3.11036 7.07147 13.2817
3.45924 5.8563 27.3103
4.97478 9.89834 45.0466
5.72763 12.2374 25.2808
2.71031 7.21 29.5361
4.21788 11.8371 63.2583
3.57785 9.99217 17.416
3.38336 6.01246 33.8067
2.71409 11.4771 19.963
3.33264 2.64045 30.3328
5.44894 9.62085 37.2966
4.87588 18.5949 58.659
5.98629 10.3449 58.1064
7.31463 16.1712 70.7421
7.22867 12.3911 48.8668
5.42263 14.722 37.6889
6.69631 17.4226 51.3285
6.28127 14.2705 58.5988
6.26503 11.0059 37.7934
4.6961 14.1756 36.8395
4.66469 10.1082 44.4316
5.07374 11.5424 31.8464
4.74876 12.9194 44.4831
4.40438 8.4693 35.1058
5.25382 5.37791 19.2707
1.64157 8.23729 27.7948
4.81171 9.75826 49.5806
4.40081 11.6062 23.7628
3.0842 9.34656 51.1189
5.59265 13.2486 62.1716
5.80648 12.3438 46.7189
6.00703 13.4161 24.2354
3.30404 10.214 60.6912
7.35971 10.384 35.083
3.58115 7.48989 26.5802
4.86579 3.84004 41.3646
3.83001 16.0264 22.02
2.74493 7.38878 33.2153
5.43554 12.6893 68.5961
9.02688 10.8958 50.5157
5.41475 5.68362 27.5835
4.81105 8.96609 15.9873
2.19654 5.91579 28.737
4.13936 9.92027 58.7703
3.36868 7.73036 27.6097
5.06908 7.05459 16.8002
2.96757 10.9025 23.7549
2.40216 5.45719 32.5352
3.69009 4.20689 11.4482
2.34893 5.96888 27.1375
2.96942 12.9441 45.1626
3.90886 7.25467 18.893
3.38217 8.46813 44.7616
7.90786 10.1711 24.4082
3.43753 6.6341 40.6495
6.90587 6.63841 23.1356
6.29028 9.73262 33.9197
6.45554 14.8655 34.5179
3.47335 20.5955 64.4372
5.33346 7.5814 43.0711
3.42867 10.1273 48.3848
4.67794 7.80963 28.133
2.20723 5.07566 26.7083
4.33072 19.3968 59.4841
3.85799 20.8241 91.4534
7.03167 15.7594 53.585
5.02149 10.8961 32.3709
3.23612 9.07807 38.8951
4.94539 7.68734 46.9611
5.89661 14.264 60.7775
8.68538 7.78355 35.9179
6.42166 15.6781 34.2561
3.15904 8.32877 31.3594
3.65765 6.20444 8.42135
1.16399 10.9053 81.8147
9.51462 12.4996 29.3496
1.78758 8.93968 44.9105
6.21732 7.93705 18.9317
3.7235 12.519 48.5083
5.4408 9.53011 30.0271
4.17475 11.4376 65.2558
7.81762 9.71893 25.7783
3.58795 8.1097 28.4495
3.36795 12.1716 53.4969
7.20576 7.99832 37.9529
7.01738 14.5075 23.1627
3.35353 10.7617 29.5714
1.83311 12.537 36.6251
3.77121 2.67915 37.3886
5.75365 10.7031 28.4326
2.43433 4.47597 32.859
2.60213 9.18329 39.6325
3.17366 7.75121 19.9804
4.1278 5.94762 20.0205
3.98075 6.0274 28.4561
4.71608 11.8825 44.2898
3.93897 4.49366 14.3558
3.04417 8.34448 32.7352
5.15877 11.8923 29.4517
5.12418 16.2217 60.5712
2.91974 10.2858 29.9879
3.45869 6.69832 43.931
1.77435 15.136 79.2536
8.49858 23.0951 46.7571
4.99108 13.2582 56.0089
4.15409 4.54582 13.6578
3.81536 9.95533 51.21
5.0661 11.1743 39.9684
5.62763 13.2617 65.9053
6.22206 13.8351 27.2995
2.51933 14.1504 58.6725
2.9968 7.98343 38.751
4.6011 4.59064 26.2261
2.8979 3.99852 61.0635
6.53957 17.9015 21.1612
2.79621 12.1334 41.6226
4.69927 16.9004 45.5862
3.81371 9.63077 47.8987
5.47489 11.3871 43.2558
2.96998 6.9393 18.7087
1.79964 5.76079 46.1674
4.87671 14.6169 35.134
3.65712 8.25163 38.4504
1.86443 6.73957 64.3678
3.79805 15.2966 54.9729
2.97801 12.8083 45.6514
3.52171 9.30888 29.1299
3.97766 7.42018 42.4687
4.19308 11.3812 31.6382
2.15382 9.81743 37.8114
3.12433 11.1902 46.5615
3.47016 5.43568 17.6094
2.84668 8.17977 24.3519
4.02207 11.4409 46.7246
4.73762 4.99394 32.8383
2.64489 6.58038 16.8532
1.77035 10.2867 53.0902
5.24781 12.8798 26.709
4.54191 8.28562 65.2705
6.60144 10.1144 21.5774
3.76393 13.3508 67.0677
5.22496 11.132 27.0235
2.43422 6.4305 27.416
3.58611 10.6672 70.0703
7.71146 22.5308 44.0417
3.41916 4.38597 41.2598
3.44575 10.2935 26.8337
3.65909 13.6396 67.5093
4.86035 6.51196 18.1375
2.81448 9.09192 25.1191
3.10517 4.86954 12.0533
2.98495 6.82669 28.0447
3.40269 4.81867 21.1858
3.26444 9.8624 49.8748
6.46491 17.6824 66.4638
6.31677 6.77111 50.9648
4.99847 15.7597 24.4179
3.13894 10.302 38.1532
1.41502 9.18388 40.5892
4.77219 8.80066 59.0329
5.41519 20.7556 52.1013
3.72869 16.6526 70.9056
6.67013 11.2719 45.7476
5.04776 6.53936 15.246
3.44596 8.84648 43.1878
3.75986 8.76993 58.2731
4.48108 10.2872 31.6872
4.13319 7.23199 47.4372
3.76452 12.3414 36.9753
3.46503 9.78002 25.3386
3.11694 2.96843 28.2159
3.30772 11.3074 32.8304
1.91539 7.74859 22.3475
3.74853 3.15282 13.1899
1.52128 2.9867 25.9319
2.61739 9.64619 48.6003
5.36369 12.9761 41.2045
4.85311 7.20009 48.5154
3.32504 16.1795 28.828
4.17658 3.13045 20.767
3.53271 10.0741 46.1859
4.42629 3.85162 26.3818
2.81295 8.35373 28.0679
3.90622 5.54454 27.2921
4.05067 10.2431 35.4617
1.17246 5.87548 27.6123
1.73088 9.24289 54.6176
4.16862 13.0987 25.3531
3.07971 7.6897 25.5084
3.93131 9.70774 51.1376
4.12965 13.3023 39.6845
5.0887 13.4337 48.6535
3.26569 9.29327 46.8764
4.58545 7.61207 25.236
2.77625 8.38553 26.9201
4.21066 6.51325 23.4914
2.82459 3.62318 17.5855
2.83318 5.96084 43.2857
3.8662 12.423 29.3634
2.67277 7.7416 18.7121
3.22232 9.55933 42.0302
4.43681 5.28815 26.0511
3.89464 6.08181 38.3262
2.7485 13.8248 57.1818
3.87009 11.5007 20.6004
1.76034 7.63741 36.3681
4.47229 6.08835 62.6446
4.63648 8.44431 28.6988
1.17311 8.37917 35.2969
3.77702 17.8314 27.8895
3.4273 8.44125 31.5202
4.09747 8.71782 32.7266
5.19221 14.1867 46.9213
5.74693 9.9595 58.2876
7.07031 9.4878 45.5729
4.59654 10.5671 16.6432
4.36565 11.9183 56.2206
4.2967 8.99778 38.5849
3.58069 11.2139 58.0568
5.697 6.82191 12.1408
1.27339 10.2382 40.3829
5.85083 6.09728 18.047
2.41285 4.42359 24.5241
2.49474 8.21385 69.4139
3.0019 9.74737 13.8229
2.92703 8.20144 26.5488
2.96013 4.92337 41.3554
3.29501 14.346 23.4708
3.50882 8.48782 25.7949
4.51431 4.98582 37.5133
5.15681 13.712 50.7862
3.5364 14.6008 57.3722
4.96297 7.82615 28.7023
4.63589 8.79589 57.2238
5.26787 10.9545 77.2495
7.37514 14.6015 35.2321
3.19694 10.5868 33.8696
5.19442 15.784 78.595
5.42715 13.1786 21.2983
1.50237 6.65246 18.5457
2.87351 5.97197 47.8764
4.26355 19.1539 54.2449
5.00027 7.86123 40.5053
5.19039 7.97021 32.1631
1.40609 13.4748 38.7312
5.56215 6.35511 30.9031
4.97671 6.58652 41.3433
5.81285 8.63532 31.809
4.22028 9.14187 23.7393
2.90891 4.45057 24.8152
2.77995 13.5196 52.3234
5.12578 5.33787 19.6316
3.54605 3.89229 23.0304
3.24695 9.95016 20.9343
3.04991 4.64289 45.9767
4.7844 7.67949 14.7731
2.53152 4.32634 38.5419
4.13128 10.0286 24.651
4.26112 7.59498 14.9176
1.83511 3.40393 33.07
2.80586 9.05632 48.4558
5.22218 16.0093 49.5709
4.49929 7.65524 27.7858
4.20995 9.02484 43.0896
5.43223 11.4026 48.4622
4.03367 10.3613 46.4122
4.90726 14.5534 28.1214
2.37388 6.90233 43.7474
2.95353 16.5086 67.3676
5.38749 7.16294 34.1227
1.57598 14.756 29.1219
4.70161 9.34816 30.522
4.51162 3.12178 34.0904
5.10784 6.13876 20.4475
3.18309 11.0987 38.1329
4.44253 4.13788 12.7788
2.72454 4.69714 23.8103
3.37815 0 0