# pn-170911/CsIIF-av-PTBB-1280-1959.psd
# Power spectrum* (dif=0,1,2) (really just |FT|^2)
# NOTE: only the first half! (symmetric)
# weeks: 1280-1959
# 4 clock-days, 0 excluded
# PSD: 1441
1457.96 0.364424 0.014109
1.23471e+06 14.6839 0.0276173
1.08899e+06 15.7514 0.0303231
936459 32.4301 0.012394
422930 30.1929 0.0122424
221224 29.7344 0.0198193
205233 33.5456 0.0376631
98327.1 14.3558 0.0315841
62938.1 19.6557 0.0574782
78832.6 28.8681 0.052922
21920.8 11.9511 0.0181715
87949.8 55.8394 0.0154106
29595 19.215 0.0150603
16602.7 10.5664 0.0149377
35297 28.1006 0.0809566
26781.4 22.9345 0.0628103
16616.4 25.6248 0.0916109
20336.2 27.8767 0.0620171
14249.1 25.5212 0.00419968
40732.6 66.7838 0.185396
21180.6 42.5849 0.106732
18839.1 31.7938 0.0544921
10625.6 27.8167 0.10192
14898.8 27.2232 0.045647
25858.7 50.177 0.162727
12923.7 29.8714 0.0803735
24699.1 61.5714 0.21468
9339.32 37.6502 0.121972
6407.27 17.5762 0.0782934
8782.16 30.7342 0.0848677
3891.39 10.7678 0.0340667
6111.5 26.7504 0.16888
2909.05 9.81168 0.0672305
3490.46 17.8477 0.1301
1644.98 9.69752 0.117299
6157.4 29.0107 0.15771
3272.69 21.7888 0.13145
3915.53 16.5203 0.122155
2588.26 23.6542 0.193025
6031.37 38.4336 0.222484
3826.63 37.0737 0.406941
3756.56 24.1584 0.184463
1137.83 3.60901 0.0791471
4436.37 27.5226 0.251289
2284.46 23.7082 0.27402
4274.01 31.399 0.341172
1097.72 12.6129 0.19065
2865 25.6072 0.268334
1023.71 14.0572 0.186847
1925.62 27.1265 0.44616
2128.63 26.146 0.386204
3355.52 33.0383 0.352841
2365.02 24.49 0.336977
458.28 2.00096 0.0364016
2513.3 36.2395 0.499772
1315.42 11.9546 0.100833
3127.32 46.1187 0.565819
545.264 5.74767 0.144703
1735.56 26.9726 0.416491
1495.69 33.8104 0.550272
1625.23 29.8877 0.504885
2249.67 39.6124 0.72801
2070.88 37.9272 0.779953
2437.54 43.3209 0.909133
1900.39 27.2261 0.577042
1241.15 19.8483 0.247937
1819.31 24.1371 0.562822
1301.42 18.5768 0.353568
1441.75 27.1332 0.688415
1086.86 26.7592 0.54571
713.362 18.946 0.538194
692.593 16.6896 0.526603
1583.79 29.5209 0.910021
334.338 10.9773 0.297388
869.058 33.2864 0.856835
559.354 17.6268 0.495906
1097.76 34.182 0.973019
719.898 16.0844 0.405551
1336.9 41.8957 1.2246
2362.17 54.9692 1.41857
512.08 17.5304 0.76688
1686.01 44.2458 1.17439
237.71 6.05287 0.161213
296.987 12.3287 0.509965
562.917 16.9371 0.552791
270.835 11.2945 0.382295
886.775 32.5287 1.31138
467.762 15.6591 0.630609
1155.1 39.0235 1.66792
940.424 30.6135 1.09896
276.169 12.9913 0.585518
687.221 29.9276 1.10016
1557.8 55.9713 2.2455
858.322 36.3225 1.76919
1720.37 59.0334 2.15326
1484.31 53.3855 2.60565
924.046 39.7067 1.6722
1080.72 42.1739 1.79872
251.26 10.3764 0.667054
713.468 40.4201 1.96768
916.106 33.3154 1.70363
895.756 33.345 1.4621
339.222 17.1057 0.772626
712.704 37.3174 2.0033
772.204 31.5456 1.56648
481.084 16.9855 0.906036
275.8 15.9646 0.708274
550.029 40.9878 2.22687
877.802 40.6838 2.28586
925.811 38.1908 2.2374
521.779 29.9118 1.73006
255.053 18.0698 1.17395
626.165 39.3061 2.20645
94.6918 7.03258 0.606842
196.346 8.61809 0.666788
264.104 17.2143 0.84681
223.95 18.9289 1.37143
516.886 41.4234 2.5711
589.54 31.6393 1.85505
284.715 7.94124 0.415108
1013.02 61.9438 3.93868
420.69 27.7455 2.00567
399.206 20.876 1.53945
1175.49 80.5661 5.71565
331.21 21.4346 1.78228
208.809 12.621 1.03329
493.47 39.1605 2.88909
590.098 47.4611 3.44628
447.356 36.5322 3.18759
503.116 27.2093 1.70708
238.006 12.9799 1.25136
458.481 33.3183 3.0443
284.968 24.9396 1.76494
399.855 40.165 3.0679
298.761 28.0491 2.54759
224.64 11.2097 0.766514
477.237 41.9646 3.93984
98.6195 8.25619 0.690971
392.096 30.114 2.72682
260.982 37.0653 3.6003
330.811 27.295 2.00166
350.347 25.7839 2.56898
346.684 29.4259 2.80727
213.295 25.7552 2.8491
596.67 54.6376 5.08815
457.908 39.4236 3.9167
240.022 17.6074 2.1768
291.09 21.7839 2.28391
118.819 14.4116 1.61503
333.807 30.0064 3.5708
592.057 62.4391 6.13316
206.341 16.7377 1.71682
479.913 40.127 4.46764
621.554 62.4261 6.61506
333.192 32.2859 3.66203
422.689 44.3745 4.45171
179.453 16.007 2.08494
166.144 16.6705 1.93088
257.576 26.5402 3.24187
340.826 37.0614 4.48291
394.474 47.9384 5.98262
426.932 49.934 5.84352
403.878 43.2152 5.21462
315.211 34.7046 4.30693
135.037 12.0288 1.77776
58.1117 12.1924 2.09772
571.075 73.5621 9.03222
488.02 43.0958 4.86445
203.264 24.071 2.85848
159.576 30.8662 4.15033
315.566 32.3074 4.49145
229.178 26.3819 3.8718
179.915 25.5608 4.16983
195.662 30.1015 4.54483
167.556 23.6938 3.19937
252.297 38.5117 5.73019
147.938 27.8963 4.187
207.086 25.0439 3.75612
131.987 19.886 2.88672
143.971 13.2004 1.96434
314.692 59.5169 8.81137
332.527 43.5327 7.10333
71.5961 16.9595 2.45234
117.059 13.5195 2.03398
118.999 20.67 3.64046
293.065 34.8175 5.04314
75.966 20.3502 3.41979
227.932 26.8204 4.16048
232.417 42.1681 7.09324
154.846 24.3298 3.91989
69.513 10.4747 1.95795
197.311 37.6474 6.81008
166.991 34.0138 6.59292
484.88 74.1158 12.9655
95.6315 15.2746 2.84238
166.165 22.9579 4.15128
89.7505 19.7234 3.62486
252.198 36.0737 6.58823
238.762 32.323 6.12382
119.895 25.2613 4.34892
166.054 39.3458 8.56728
73.5175 12.9635 2.43433
125.789 23.4955 4.68505
194.345 27.7409 4.99959
104.452 16.0622 3.12255
177.762 18.9824 2.91302
109.059 12.8903 2.54595
50.4188 10.5639 2.18094
113.744 19.2881 4.08136
194.307 26.3628 4.92741
100.774 19.3542 3.47193
57.1607 6.59405 1.24344
63.6975 12.8487 2.67126
49.1052 8.36799 1.79403
135.399 17.8084 3.9659
161.447 40.9453 9.50794
120.886 24.2353 4.64707
69.7129 18.5819 4.68339
278.277 49.553 9.88142
187.436 38.2533 9.07842
135.625 26.9211 4.11747
67.6275 14.0888 3.29972
73.1383 15.0441 3.3682
294.018 55.7145 11.544
167.254 40.3599 10.0135
164.622 46.2593 10.6212
164.899 45.4766 11.2339
36.3266 11.7078 3.05997
112.622 17.2108 3.67071
46.7988 11.9503 2.85097
61.3287 18.736 4.57299
69.3405 13.8181 3.48724
86.4402 21.6173 5.96625
128.532 26.0037 7.06152
132.345 23.5138 5.36811
167.516 38.3649 10.6977
115.607 29.1811 6.98371
80.3277 17.6712 5.44943
59.7139 13.0032 4.45807
211.729 60.6989 15.5613
86.0715 18.3311 4.85788
16.9246 4.48454 2.23222
71.1037 13.0493 3.56059
164.536 37.8529 9.17584
95.1061 23.1406 5.67804
51.5731 18.4889 4.8834
171.261 39.6065 11.4758
48.8317 7.76941 2.65564
189.42 37.693 9.28859
119.51 25.1953 6.53876
66.0633 15.4624 4.63407
99.7933 26.0523 7.91574
53.2283 14.663 3.88432
164.289 44.8631 12.0202
199.749 74.705 23.2414
90.2793 26.9389 8.93132
78.302 22.2864 7.5588
143.177 38.1285 12.3665
109.148 28.5712 8.87478
61.5706 16.0714 4.38824
124.812 37.0915 11.896
144.009 40.0724 13.0378
12.7616 2.96249 1.00572
96.6061 25.1192 8.29087
194.302 55.5524 18.0589
281.718 75.9477 22.5367
43.9781 17.4145 5.78742
116.422 34.4383 12.6576
80.9381 13.4075 3.09616
59.8657 19.7951 6.787
112.2 24.9806 7.9681
84.6577 24.4751 9.08647
98.2367 32.349 10.7232
47.1575 13.6155 4.69888
78.1496 25.3539 10.053
64.6127 27.4432 10.5337
207.563 72.8366 27.4478
147.314 43.3148 13.8015
99.3302 33.7665 12.236
39.7036 15.8649 5.02132
108.142 35.1146 12.3421
72.703 27.4011 10.7354
57.9895 28.7401 9.54567
28.9685 14.7017 7.57278
83.7319 27.2162 7.84096
51.4039 31.9139 14.1896
99.7308 29.541 9.12275
56.1784 10.9791 3.63148
131.497 43.7684 15.8498
79.6739 29.4588 13.4916
64.1433 16.3612 6.35326
102.715 38.0356 13.382
105.185 41.1221 16.2569
45.6166 20.4005 7.2963
86.6709 34.8879 15.5172
117.358 34.7276 13.9884
67.131 34.3193 16.7393
137.74 56.4631 20.5844
63.8486 27.5977 10.7948
12.9658 14.089 8.95872
68.5482 11.5315 4.40964
120.859 44.1204 18.2236
74.4656 38.3915 16.6294
85.0347 22.2828 7.49843
45.7184 14.3268 8.05219
96.0522 24.0747 8.43446
92.2745 29.3148 10.5495
42.5793 10.3897 4.23931
89.5488 31.6695 14.79
66.116 30.351 15.2138
94.9534 28.8631 10.2916
123.857 37.79 15.097
38.9061 14.1143 5.75097
73.3325 29.1203 14.464
36.0165 13.0722 5.88413
14.3562 8.73582 4.42367
38.801 14.1336 5.86363
122.822 45.5992 20.3128
79.2325 41.9916 22.9781
94.9976 52.0996 22.7116
55.038 26.5088 14.4625
102.577 36.3487 17.8805
38.6714 24.6667 11.4596
36.2486 12.7719 6.31677
99.2312 34.61 12.1067
66.3294 30.7624 15.7168
25.9959 9.43953 3.56595
64.2448 31.1919 14.9643
40.4587 20.6006 11.5199
55.8412 19.6748 10.9219
113.59 58.2332 28.5028
98.4049 33.5441 14.2476
69.1463 29.1981 14.6992
72.8075 29.2552 15.3536
124.708 50.4684 25.1926
29.9277 11.5501 7.39002
25.7221 10.5547 6.26517
26.3236 17.39 9.63871
43.5502 18.9313 8.88951
53.5555 24.0001 10.6539
28.7337 13.3039 8.89205
58.1633 31.8695 15.5985
35.0549 27.9727 15.4076
54.0409 21.2016 12.4377
113.926 55.4821 31.0821
37.0419 14.1822 8.93681
76.4116 36.4449 15.2925
28.9976 16.4948 10.9534
66.3555 35.3996 19.4707
25.719 11.492 6.50517
55.6928 39.4237 24.0109
22.5182 10.7708 5.5632
48.1803 23.0875 14.4471
62.9616 21.8825 10.3331
27.1881 18.8642 10.9539
80.4763 53.0239 25.6875
32.0048 23.2302 14.9674
25.1642 13.2936 9.31553
71.6042 30.7421 16.2374
58.159 25.41 16.2373
41.5806 18.8934 8.94282
46.5125 29.6752 18.9236
51.3602 23.7518 13.7076
37.0281 14.0563 9.61975
33.5006 23.7688 11.9055
51.4507 30.2412 19.3835
34.8124 32.9087 24.8785
61.6767 28.1046 11.0123
59.795 33.5733 21.9856
35.3937 12.0267 8.91701
53.5258 33.0444 20.6234
58.8149 26.1528 17.5533
30.9961 27.2114 15.1624
75.8628 42.9865 23.6031
21.4461 9.04982 6.23155
33.87 18.1684 11.1298
46.6032 29.9721 20.4471
12.578 3.61365 2.43813
24.1523 17.8801 10.7765
28.2793 15.9819 10.5149
13.2056 19.2664 15.8355
49.8699 25.8555 16.1717
50.4595 28.6678 20.6651
18.6686 11.1143 9.94416
32.4412 14.3279 7.04808
95.2386 63.5124 39.874
38.3947 20.7811 15.6123
93.1184 41.9815 23.4855
47.7504 24.3466 16.6325
48.3435 34.0228 20.9962
81.0708 49.9448 39.9885
71.742 38.4607 22.4635
70.3109 53.744 39.6256
23.5516 15.15 9.7599
24.3438 17.7344 17.8786
62.1033 40.9202 27.2695
42.599 26.2942 22.1706
34.9498 14.0424 9.05469
76.258 53.3037 35.9778
29.6885 14.9126 8.64386
76.139 52.6902 38.9388
39.5824 34.2526 23.7157
57.3662 33.2709 24.9869
47.034 23.5283 15.5047
14.7625 17.0653 17.7615
88.1047 59.0881 35.3261
15.6709 26.8213 23.7358
25.688 24.1686 22.6743
61.9423 33.9906 21.8767
39.7143 22.1285 16.3765
50.9177 28.7103 18.301
32.3668 29.1848 28.2455
74.8272 67.5357 50.3165
39.4032 13.2894 6.92417
40.1551 17.481 12.4727
95.4674 67.0225 47.1489
60.1517 48.2173 41.09
37.1897 25.2384 20.4589
45.4118 34.0605 21.8622
12.2569 10.43 10.3174
23.8156 15.9556 14.5517
57.9765 37.4819 27.6739
58.2446 35.8132 34.3283
64.3405 58.6275 39.0763
25.9467 14.4409 11.1153
32.4758 27.6015 21.5483
7.24358 13.2886 18.8135
86.5318 45.5025 27.9288
17.8233 21.1824 20.6323
24.6094 17.7773 17.7778
49.1494 21.6856 12.4333
32.3741 28.4452 27.678
35.7892 11.9518 9.56061
13.0898 10.7001 11.7711
52.5855 47.9111 39.4658
79.0332 45.8647 29.022
32.1191 25.3252 21.5123
9.41203 4.73304 6.11781
54.1106 30.2189 22.5255
38.9635 46.0571 50.3646
75.4351 40.1921 28.4292
23.6539 19.3364 16.2916
68.4612 57.5171 49.5757
74.0008 49.9666 42.6109
21.9574 12.2292 13.2212
30.185 29.4199 27.4964
57.8431 43.6018 26.4916
29.8826 22.3814 20.2975
33.191 34.9542 39.12
37.0282 26.2738 20.6642
16.1744 12.9546 7.93837
17.7227 17.2133 16.8206
23.6042 28.2738 40.9978
88.6808 55.9211 35.3302
38.2368 42.8728 38.9668
41.2558 25.886 17.918
29.9315 30.7558 36.1545
55.348 33.3169 25.0758
19.41 15.0269 15.5707
83.0515 59.2866 49.1034
21.5544 17.197 18.4801
10.7075 12.1112 23.9278
42.9481 31.2152 18.0725
22.6073 26.8937 25.9267
88.3763 70.7904 71.2139
14.4014 13.2817 13.1312
26.3549 20.2204 16.2171
38.8468 43.114 54.5682
70.1748 54.1471 41.067
16.6316 9.4949 9.87743
39.0125 28.3253 22.1567
22.1789 15.1688 14.2613
15.5389 19.6243 25.7875
42.8645 37.9965 30.8363
11.3575 13.2815 19.0605
52.7546 48.1641 53.3418
53.024 36.5297 30.8686
24.1589 20.7941 23.7049
29.4352 18.7957 14.3958
31.3638 30.8387 36.9596
16.8037 10.3002 5.55687
23.1353 17.6276 20.5798
31.6284 37.0975 31.4485
39.671 41.3442 45.2838
20.2413 13.8946 13.2968
29.1268 28.4055 32.4229
31.9936 28.9047 24.8327
41.9655 53.2242 73.0988
53.4894 42.4553 31.2905
24.8984 30.5237 30.1404
18.9582 12.9413 9.85031
16.0428 24.8389 35.1808
38.1876 34.3717 30.4835
15.2402 9.34062 12.2974
49.7458 36.5467 28.2895
22.4123 20.5568 19.1907
20.6227 28.0229 30.3061
20.8502 30.7998 43.0769
25.5737 23.8494 36.6003
48.2196 40.5741 30.0471
12.8639 13.5967 20.842
34.5533 42.719 36.4804
19.0154 23.0511 25.4744
42.3151 37.7117 40.2585
37.1731 40.6982 43.7986
46.8962 52.6452 51.3606
11.87 10.3731 20.0184
24.4412 22.108 19.4822
20.3401 18.7598 26.1721
42.9559 38.9153 44.1846
45.9692 62.8716 75.2997
45.1229 33.1071 33.9496
18.6133 18.3575 23.4435
43.1721 30.4021 27.3257
26.1859 25.7411 30.1342
48.1944 52.1239 50.3505
15.5888 16.2717 22.1616
17.7283 22.4778 22.8518
19.957 36.3708 57.6085
32.2311 24.858 33.4241
36.941 21.6515 26.6211
21.8948 16.6712 24.0252
69.107 61.6137 65.7447
14.4196 16.4569 15.834
26.1073 23.8144 24.0633
12.7123 13.1347 10.3357
11.6564 8.85192 8.98679
46.0822 60.8407 74.5922
26.0669 29.341 44.1151
22.8605 30.3591 28.6847
15.8146 14.3925 16.3787
35.1271 28.5444 28.5328
31.8895 32.4324 34.3828
20.1295 24.1009 34.7133
11.1637 13.2072 16.8632
17.2552 21.4625 33.3899
32.5877 28.9678 25.5929
10.792 21.8797 32.148
27.2298 34.4354 30.9376
8.36913 22.3592 28.6589
16.2424 28.3604 48.3197
13.1889 14.9965 26.5137
21.0958 18.269 23.9102
15.278 9.14624 9.24507
32.4802 34.7143 37.6878
26.6005 30.0534 30.6376
18.0939 17.5039 22.7241
17.0284 15.2309 20.1984
26.6947 31.0525 35.134
20.4745 41.9136 61.1986
16.1769 18.3829 30.8793
29.0269 22.0238 16.9151
17.0022 15.1752 20.0986
19.7568 21.5886 24.4747
18.564 34.0003 58.872
67.3427 58.4758 54.3599
24.1636 30.1266 36.5294
17.5368 16.788 33.1284
43.4946 53.4124 52.0986
15.464 25.8097 36.9038
15.4926 12.8418 17.2629
15.3547 31.9761 55.5207
23.6355 39.1213 53.7067
17.2049 11.1897 20.5907
27.4942 51.3725 68.45
40.6953 40.9426 47.5541
14.7866 13.4911 10.5479
21.0837 40.3175 56.6119
14.6173 21.9025 47.0848
24.7414 39.1987 60.7906
45.7863 40.842 58.2187
45.4288 46.6408 73.3399
22.8444 22.736 30.5359
26.6032 33.6147 42.0469
9.83923 15.3924 20.5477
26.9666 35.4279 64.0811
29.1995 22.3343 11.9486
13.8773 15.0104 11.3258
5.7467 4.13063 4.33719
18.0344 23.402 21.0357
14.0954 29.2823 43.3871
9.7912 11.8816 19.009
29.9492 31.3693 34.181
17.9641 30.2163 47.342
25.7173 32.3766 53.2442
11.3258 12.0494 15.7883
11.4704 17.1331 25.2651
23.6873 29.0194 38.7195
16.4222 27.8946 45.3278
24.8401 26.3523 41.9632
15.0045 26.385 43.405
34.0979 39.6267 31.6521
10.0211 29.8941 62.6857
21.4306 25.9092 33.437
14.3086 11.251 20.9666
16.9141 20.4678 26.6608
24.7914 31.1782 42.9479
22.7871 35.2178 40.8915
11.0342 14.7106 35.6591
43.358 61.7474 94.3975
24.2759 28.6725 34.543
39.9088 62.8068 101.646
25.752 32.2388 41.45
22.6699 37.1414 61.0181
21.1838 23.4672 29.8265
25.1308 29.6682 36.1306
23.7812 46.7567 74.2204
33.3158 45.3282 56.3077
18.0446 33.8131 59.6167
31.2962 32.6542 47.7342
12.8504 13.9828 23.3914
7.41484 17.3141 34.38
20.7601 15.9749 19.7297
14.7915 23.5396 57.4862
47.3964 50.4555 60.2647
18.986 18.3161 29.0806
42.0244 52.2164 85.4817
22.1348 19.2035 16.0595
15.7785 26.471 38.5254
19.0131 36.4907 75.7347
24.1888 27.5689 46.5195
12.0835 7.15808 12.0903
16.533 21.5522 20.8147
22.9518 41.3295 56.2446
18.385 50.6899 77.5224
11.5251 21.4094 53.7227
27.2766 30.9828 47.9762
24.7227 23.854 32.623
18.9368 21.3865 40.5089
25.1791 27.9651 36.6124
9.89884 18.7872 24.4206
17.2765 19.4591 31.3767
25.5159 36.7022 46.7704
12.0919 28.7456 75.4485
49.6401 50.1147 53.806
28.8847 51.1784 78.4013
16.1027 29.247 51.3972
23.3349 31.7113 47.7523
22.829 36.8057 64.1772
19.2733 24.5539 38.3029
20.2782 23.2777 35.4855
24.4115 49.0027 82.1143
19.6009 24.5097 53.6245
15.842 14.7597 18.0795
24.0271 38.0711 82.2335
20.3271 21.672 16.0853
30.5573 58.2255 82.4948
9.34868 17.2348 42.3684
6.71591 20.8616 66.4323
23.2714 40.4586 54.8341
9.81462 12.5087 33.1931
15.7608 16.6404 24.426
14.7723 34.6776 79.9973
11.957 9.44099 18.7417
16.3483 22.0506 24.1666
8.95548 9.40862 15.3843
9.28072 24.9732 33.9149
12.2283 29.4528 43.839
13.185 19.7391 35.2452
11.0278 26.2509 39.4054
17.8773 30.9209 45.3452
4.45308 17.4938 57.6901
30.8496 42.5458 40.6972
6.8801 22.7835 50.8027
20.4619 23.9137 59.9218
22.6951 26.6243 47.229
21.6489 44.8915 57.1484
11.4305 20.2857 42.8016
8.57245 11.8342 36.0966
22.5185 39.3692 68.5246
11.6079 16.1435 29.9122
24.5933 32.5703 47.949
13.9936 13.101 24.4657
39.345 78.5162 119.787
15.8299 39.7987 82.3841
24.9793 42.6859 70.6716
17.763 31.2249 51.0375
22.7013 44.1502 73.8895
11.0333 22.4857 47.9688
10.3442 18.7589 36.2688
7.69241 10.4278 31.6192
5.84911 12.2941 48.4562
22.6939 18.2925 24.0003
19.8519 53.2919 99.4896
19.1933 24.8709 38.8452
8.52064 5.57766 16.2032
14.7461 12.2 13.103
20.2475 29.4466 47.5799
13.6939 16.6522 23.2346
15.3724 45.165 102.058
4.38837 6.92131 22.0105
7.01331 11.1449 26.1857
19.6356 33.9175 47.5193
4.29974 5.22692 16.0169
10.9382 19.2173 44.0709
18.1716 24.4815 35.0363
14.0397 26.2638 51.6787
14.8821 24.0757 55.3518
8.0602 24.0328 65.4545
17.2192 24.0686 22.6566
9.02706 14.6168 29.9077
16.6368 35.0584 66.1806
14.5166 28.7167 46.9405
7.44088 17.7592 38.9642
7.71512 18.1495 46.8475
8.10063 14.9944 24.9455
13.2489 10.6045 13.1805
5.29941 13.0227 32.689
15.2977 32.6523 48.3646
14.5189 27.8397 53.4061
20.2509 52.6869 135.346
17.1916 16.2503 27.1603
21.6385 43.6849 92.1742
10.8789 29.6396 81.8234
17.2893 21.7303 28.5298
21.4132 33.582 47.067
2.70004 10.6228 55.4098
19.5674 28.0026 17.0403
15.4701 40.4579 89.4171
21.7443 38.3743 58.6334
13.5515 32.0351 46.2748
11.6213 19.1918 47.8592
23.2574 49.2208 70.8958
4.99333 20.1026 47.0849
10.55 21.1039 50.0947
12.982 42.2447 97.9699
25.3911 36.8802 52.7114
10.6409 33.3585 117.294
35.3167 69.1637 101.755
5.00005 8.55858 27.1402
7.2961 10.2354 12.5423
9.46196 25.8139 70.674
21.1536 41.9119 61.6131
15.8828 25.8936 45.4027
7.01615 17.6108 33.1165
10.6581 32.2844 69.4971
15.7943 14.1206 31.1873
5.32788 14.4052 47.6353
22.7537 24.531 40.6633
12.2858 32.3311 52.1969
14.2268 38.8535 74.0761
6.63816 15.7714 41.8593
6.47209 4.31969 22.9445
9.05794 13.2427 25.5726
10.9579 15.231 43.8242
9.41616 19.313 32.7653
16.7687 25.6427 44.241
7.56702 15.3224 31.8905
8.38263 33.2261 66.9805
11.9367 24.5098 54.5245
8.29974 11.5453 16.418
5.07626 34.5574 86.3627
18.2392 35.8587 71.7462
7.90204 20.1319 66.1772
15.0732 15.549 20.3497
6.65621 5.2293 24.2604
19.0928 39.2911 66.1625
14.407 37.2281 70.9771
15.53 38.3112 110.655
18.7053 23.6324 34.861
10.1774 14.3981 40.411
12.6263 16.8301 32.7065
8.59346 20.519 43.6094
4.83523 6.16241 24.3572
12.8214 19.2961 33.3081
4.74674 15.3494 38.205
10.5939 27.2488 59.8405
6.26251 9.4385 50.2968
14.1954 17.8015 40.133
16.1333 24.0151 66.7184
20.4951 35.97 93.4495
40.1674 65.4121 76.6975
6.85945 26.0732 69.3837
13.6144 27.9109 48.8874
11.3204 28.1622 61.8223
9.55876 34.1917 102.677
18.6106 34.0705 79.4222
17.7946 25.9222 86.996
29.6373 63.4948 107.064
22.7185 50.3002 85.9354
9.83923 26.1882 37.2231
3.43842 21.0673 91.438
28.3853 41.3594 56.3327
13.7055 30.3975 70.2895
16.7375 35.3216 80.944
9.11348 28.7426 73.9846
8.14107 18.1854 67.9761
17.4647 29.2727 58.8011
13.994 27.7462 81.6066
11.4267 8.16196 24.0304
16.0796 45.2534 81.773
7.62726 44.8096 132.501
27.1477 40.1127 54.0054
11.846 25.0962 58.9155
23.8227 46.5608 100.651
11.1474 25.5238 44.9058
3.8034 25.5491 78.8746
9.31269 21.3393 71.1078
11.2465 28.9562 96.3886
12.7875 11.955 7.71518
13.0781 37.4954 73.4698
15.048 20.9603 26.1522
8.15501 49.1346 126.368
13.3755 12.0361 31.5033
11.4494 28.6314 57.3312
1.06097 10.0391 59.9721
13.4095 13.148 38.2318
14.931 30.3829 66.9256
17.9588 28.3063 53.907
5.88979 10.6501 27.7093
16.5685 30.1693 58.9374
9.19773 23.5145 56.138
23.7543 71.6583 160.414
8.76179 12.4804 42.8764
9.48543 18.8574 45.9874
8.53644 24.0431 60.5519
9.71087 27.77 45.3473
3.60761 7.96473 35.6885
7.4937 19.405 32.5287
6.21128 28.4896 90.522
12.239 27.6557 107.075
24.2811 31.0963 59.6095
14.4123 24.8526 43.0187
17.4926 53.693 141.189
17.1 33.08 47.2827
3.44902 27.7856 64.3384
6.18145 10.9926 47.0314
4.84465 12.5548 42.1283
12.5391 12.9301 21.7299
9.26336 40.9585 140.66
17.5481 14.4484 22.8342
12.1963 23.2804 38.3103
3.90755 12.1405 50.1275
8.31558 14.4804 40.7405
12.7131 30.1935 66.4098
8.2922 10.3084 12.974
8.88911 28.4341 124.865
24.6454 36.7906 81.6862
17.5739 35.2968 45.5815
7.48337 39.8498 107.898
14.6927 35.2416 86.0109
15.9987 35.0202 93.3738
7.56422 10.5658 45.0096
11.5066 15.3243 39.5252
11.065 13.1319 56.0085
20.5 30.4859 32.1272
5.04421 21.079 65.8924
12.1978 37.8473 75.4085
13.3906 29.3331 69.2022
8.96489 16.6013 99.4045
25.1246 35.2532 62.3999
12.1117 19.9787 34.1331
5.33151 11.7632 67.1174
17.4011 34.8316 57.767
9.72428 28.457 62.7277
9.65272 20.5711 67.7858
11.4011 30.0602 75.4044
12.2755 19.6426 42.4337
3.7827 9.86038 12.8294
1.61949 5.97291 40.5575
20.6088 40.9281 84.8948
7.49172 19.726 41.3358
9.70531 28.6317 76.9418
8.46225 16.0727 29.8554
6.22839 15.9938 56.75
8.89225 26.222 66.9559
7.12752 21.8353 42.3644
4.71193 5.07526 24.101
6.50794 12.3687 26.8933
5.56465 18.2162 57.0393
10.6317 41.5171 77.8666
3.33086 9.38694 62.2392
9.85093 26.5095 87.4146
14.8561 22.701 50.4833
5.49992 20.949 103.539
16.9592 24.4544 47.5472
8.83538 9.563 13.8657
3.87283 8.51789 38.4065
7.01549 22.1673 115.229
17.619 33.9126 58.0525
9.59905 30.2293 98.559
20.0925 43.3325 76.4674
7.27991 21.5941 56.3928
11.7765 15.8046 27.3458
9.58503 23.3461 78.0558
15.9626 49.4905 99.387
5.0881 12.4584 64.0385
11.9814 16.6427 46.238
10.395 28.0653 78.8127
22.052 48.6082 62.867
4.68406 24.834 60.5615
3.63845 24.355 92.5293
7.15931 4.59193 17.1863
5.10366 19.9176 88.9089
13.1174 16.6296 26.9266
6.59944 16.128 33.991
5.81055 20.4725 52.1693
7.23253 7.41747 48.0355
10.7895 27.2871 61.1111
11.8889 29.0775 55.1433
11.4924 31.6183 118.681
15.3938 47.6903 117.095
11.8677 25.5093 61.2349
8.68289 24.723 56.3937
3.23275 14.9578 82.3674
17.1498 35.378 48.5193
4.19583 11.9603 64.553
17.0139 38.0041 86.8292
9.65109 18.2449 68.1879
8.00253 30.3732 100.725
11.9207 21.4671 48.4633
6.34332 18.4652 59.4478
8.49612 21.7975 37.1277
7.39877 21.7148 58.2433
6.95569 27.8228 94.8944
6.24942 4.95736 21.6298
14.0462 48.2971 109.105
6.59914 10.4345 50.3996
11.485 35.7378 107.335
10.8771 17.305 48.3304
9.2573 28.2299 75.6079
8.57977 16.5385 37.5539
4.10689 9.12924 45.5257
7.13269 20.6957 49.0945
6.54584 22.6859 71.8224
11.8765 21.9211 53.7962
7.84589 14.5003 31.9072
8.96805 28.8145 43.6122
4.44204 26.8356 112.426
13.4155 35.1641 100.314
6.99469 20.4789 89.952
13.574 20.3982 36.2396
4.89715 29.2082 101.785
12.101 23.2861 56.3658
10.2553 17.3717 35.6595
5.90012 29.4398 88.7599
8.15242 13.7062 69.6946
9.42942 19.0352 25.742
4.46577 24.061 49.6103
3.74948 7.36765 21.9359
2.02895 12.4028 59.9632
7.75351 15.2591 14.2652
5.77497 38.4326 121.775
9.69887 9.08312 26.6338
5.25955 28.6644 92.9602
6.37375 5.62641 28.5805
11.3666 72.5371 183.066
10.6964 40.4525 162.768
16.2385 5.046 58.6608
12.8669 17.1217 33.1219
9.79753 19.4842 53.4256
6.66098 14.384 55.5223
9.59131 30.1177 80.1697
4.7216 15.5846 48.1362
6.24244 23.738 111.89
11.9293 10.5981 106.571
34.497 88.2354 145.358
9.91516 20.1711 70.179
12.3829 39.0308 76.9565
7.67373 28.7054 164.289
24.1119 53.1054 121.396
17.0544 30.5002 56.8415
5.71293 16.8215 38.3904
9.5513 26.3362 60.8388
3.46206 17.8868 59.9501
5.60484 27.3862 81.4564
13.057 28.7091 88.302
9.39811 30.0449 118.834
8.49198 9.18327 27.2036
9.38349 22.2947 87.7572
7.93611 15.6623 18.0844
4.83535 11.9899 36.5874
3.70766 24.781 63.0888
3.24042 29.0383 132.641
14.0594 36.0732 116.501
10.0302 12.0723 69.0374
9.48204 23.9516 130.976
22.9464 49.6105 88.3983
6.57692 30.6305 60.9019
6.47696 11.0853 51.8489
7.85885 6.56883 34.5694
13.8354 50.6811 138.773
15.0991 55.2079 139.935
10.9534 33.2698 121.648
10.9891 21.2777 40.5744
1.0114 7.3904 33.6204
6.44502 26.8498 77.5322
7.98546 25.9901 86.1129
6.52933 9.80977 36.6156
6.21068 28.987 111.311
13.3029 27.9785 52.0717
4.48212 21.5358 87.7507
9.59499 29.6187 97.8223
9.37631 25.4515 98.9168
12.9123 35.2649 52.0756
5.56587 19.0934 91.8587
13.6416 36.8907 44.0881
6.47707 48.3274 94.691
4.35117 23.3775 87.0276
6.74868 25.0996 82.7093
5.01471 36.0298 174.021
13.0637 20.5815 58.7097
8.40924 25.1215 138.028
17.99 21.9684 44.8888
5.77738 19.0422 44.2287
4.46962 11.9327 39.942
3.58212 23.2514 160.193
18.518 38.3341 69.7402
6.35347 25.83 78.3707
11.5937 42.2975 68.368
8.25341 28.0756 61.293
4.66999 26.719 131.149
14.9012 32.4628 119.142
13.9585 44.3887 98.5212
4.01904 26.7885 175.493
18.0582 55.1907 155.491
11.0642 22.5425 53.3543
7.34556 20.8536 69.1365
5.77541 9.31285 56.1333
8.92154 38.3518 91.9081
6.22335 6.46677 59.8752
12.2318 38.8718 98.4761
7.80977 35.1099 262.648
29.9824 61.9493 77.0556
6.98783 28.0118 95.1798
7.55516 24.0327 70.134
8.94309 22.7672 84.3877
7.87721 15.4646 73.976
9.14223 15.5001 82.362
10.6306 14.1519 46.4142
13.1489 29.997 39.6574
5.33197 23.0864 67.3038
2.8122 13.2698 78.5872
8.074 30.6585 90.2313
10.6065 35.4029 106.225
10.7672 19.0405 56.1155
5.44327 15.5249 65.2499
8.75294 16.6257 38.7242
6.41225 28.6409 118.864
9.06186 28.7116 83.2293
7.40871 12.7352 62.0503
13.6138 37.152 64.1743
3.51092 13.783 57.0319
5.57646 27.0289 88.7397
8.4255 21.2845 64.4202
5.46189 19.3674 83.7252
4.00052 13.6689 51.8102
5.33383 10.5241 43.9454
6.90654 35.9217 134.236
17.7709 38.5896 64.5486
3.80736 29.9888 122.114
8.68081 13.2083 47.0757
7.96291 20.3295 62.6365
4.29102 9.83678 79.2713
17.2146 53.7966 67.8582
1.99473 23.1185 172.101
13.4575 31.2672 82.7581
7.3814 9.57912 19.7777
2.32129 12.4344 45.7653
5.06939 20.6841 116.443
13.0901 23.6078 20.7744
3.56084 15.6719 43.6505
8.48827 22.96 54.338
4.30442 33.53 170.444
12.0704 29.1252 64.3218
7.83484 23.017 80.7344
4.85103 13.7317 40.2906
2.1781 11.1446 93.1294
8.58683 23.557 33.4372
0.87966 19.5345 148.274
8.15777 18.4383 71.9308
6.34197 19.4336 69.9229
8.67131 33.3032 57.9747
5.43591 29.9195 102.314
8.21006 41.3362 119.965
8.29782 16.247 45.9081
5.50061 37.4284 119.088
9.8449 5.94531 31.4768
6.72434 25.8572 60.8803
5.78721 15.0566 81.8556
5.77493 14.8424 69.4078
9.05242 13.5246 14.1847
1.9441 9.95107 82.4197
13.438 29.8354 73.3874
8.53491 45.6611 162.444
9.62772 18.205 49.9001
4.73054 21.7206 119.456
10.3073 34.0419 83.7184
9.47817 39.1567 143.761
11.0881 41.1036 131.45
10.6825 13.2177 40.6477
5.42905 31.602 120.134
9.59297 37.8715 96.6665
8.56588 14.634 68.9776
6.59986 22.6914 52.9354
3.89138 24.2828 91.8986
6.18086 8.56301 29.5009
2.85789 8.54851 38.2163
3.28414 5.86167 17.7667
1.37293 14.1087 79.8842
7.72731 15.0373 40.7964
2.8974 12.747 43.1192
6.942 20.2818 68.0542
5.18721 26.4599 46.7971
3.06385 17.9783 85.9488
12.3993 42.7356 107.922
5.8959 35.4232 197.71
16.3616 32.9357 80.8001
5.82528 11.3586 58.9321
7.54083 29.5543 63.3347
5.74418 19.2762 73.7174
4.32308 14.5681 75.4108
9.70725 32.7741 74.9344
4.26725 11.3687 39.2699
4.30706 31.6829 125.125
7.54154 7.1739 42.6932
3.50399 20.8436 226.112
24.6734 73.9132 94.5184
4.07965 7.93446 118.177
14.3054 48.9795 89.1275
8.4974 49.6119 131.786
7.4724 30.3987 90.2083
6.25403 39.0197 94.2611
5.67416 6.82925 99.2611
10.504 25.8163 83.2355
6.0433 5.95289 81.5575
12.2734 18.7228 35.2853
5.56288 14.1803 30.3178
3.96286 9.12989 107.891
12.9024 56.8403 136.661
9.71137 14.6162 57.874
7.16669 25.9447 81.6584
4.89909 13.4236 90.8354
12.4482 39.5767 136.018
6.8925 14.7151 34.1242
5.61141 29.4915 90.7175
8.70616 30.2825 169.115
15.9536 28.2778 46.6516
4.49023 15.2352 42.9488
3.82279 32.912 146.273
7.76081 11.5258 30.8128
3.10909 7.42999 14.5422
2.26518 22.2535 51.8163
1.75674 14.7276 55.9341
3.4297 21.5509 130.985
11.7839 42.6898 139.205
13.0562 37.0145 148.2
9.92414 27.5715 107.236
11.0613 38.1007 181.813
12.0427 34.2978 52.2996
4.07776 19.4147 101.338
9.15133 16.3886 85.5739
7.69149 22.9366 159.61
15.778 45.8287 59.7193
4.44328 25.475 90.7338
4.60739 9.15854 89.6729
9.28379 28.7119 45.3711
5.74502 31.8361 129.976
10.1001 36.903 193.933
16.7506 42.1414 121.426
10.5162 27.3124 98.763
7.19869 15.9488 53.3324
6.78767 19.445 68.6986
7.60956 12.0001 55.2527
8.05235 27.9818 125.84
13.5286 37.3298 76.0357
1.9603 10.2799 108.32
8.7176 33.5394 41.503
4.71476 22.3519 70.7236
7.65522 41.0782 159.057
9.80236 18.0536 87.1466
6.14193 20.8272 65.5656
5.82182 16.9593 94.728
7.61359 18.4045 99.541
9.64094 52.587 117.953
9.01751 18.2377 71.1796
4.93495 11.2071 56.1915
7.05532 41.7161 150.086
10.3958 28.2031 124.081
9.51846 25.5973 29.4754
0.855529 18.6837 134.529
12.1116 24.431 35.1328
3.58975 28.9336 146.945
10.7336 31.4526 106.807
9.30375 21.0173 61.7518
5.46096 24.057 133.403
10.509 27.0901 42.1048
5.03771 25.7437 91.981
3.71605 12.235 27.7242
2.4004 15.947 121.677
11.9466 65.1386 186.74
9.92516 6.9585 55.4991
6.06205 29.1399 144.457
8.13939 33.3386 133.747
12.5155 13.5107 68.5681
11.5087 43.2985 65.6954
1.92492 11.4964 34.0825
2.60312 17.1744 92.7748
10.1258 21.9995 90.7256
7.70858 34.0751 76.5614
6.86054 18.7005 74.9484
6.9034 21.9786 75.3772
5.65769 19.1028 66.9754
3.72437 23.1247 141.046
7.73684 18.9627 102.296
6.69597 16.5442 38.8965
3.71433 11.163 106.837
9.01661 39.1669 105.417
10.9931 44.3554 126.135
5.48283 17.0821 121.507
9.12284 16.0279 16.2373
3.09419 27.0401 128.733
9.41557 26.3288 88.9347
7.2754 37.9538 71.7401
3.053 24.5812 109.029
7.8647 14.0192 65.6655
5.53474 27.0696 116.724
6.72864 11.5293 20.5125
2.56873 9.90941 47.855
5.94068 22.3678 80.1221
4.55358 18.3037 51.6379
2.78414 13.9648 50.2576
5.07226 11.0282 85.648
6.2289 18.4163 53.338
5.12382 36.7077 119.792
9.97332 22.8035 121.039
11.3293 30.4246 73.9629
5.16374 10.9496 56.1998
4.97511 23.7599 256.171
21.0458 48.2772 48.0433
4.9149 24.1548 65.7614
3.82997 12.0164 49.8122
3.53326 25.1406 61.3162
4.35794 19.6859 109.602
5.15653 8.66424 27.9445
1.85329 8.68427 81.3132
6.59491 20.9829 66.4125
4.78069 33.8345 62.0251
5.16844 23.8328 210.439
18.3115 23.4776 109.635
13.9925 41.7299 87.6514
7.3289 22.2318 98.1482
7.66761 13.435 66.1244
6.57063 18.7896 56.3163
5.55315 25.0985 133.728
11.5124 28.5944 41.1089
5.61047 31.4959 145.333
10.9808 34.3781 100.503
6.74704 37.7991 133.181
9.55331 25.127 78.9531
5.96953 22.1613 45.2615
3.5721 17.9561 73.2593
3.68745 11.1552 96.5699
9.83924 41.1031 102.813
7.62572 24.5936 70.2071
3.48483 2.96117 28.0467
4.14353 18.4188 58.8429
3.81244 11.9196 46.4853
3.14597 8.77892 36.2255
4.43195 16.616 14.3413
2.45654 50.2128 321.332
23.7228 48.7143 68.9963
3.86937 19.7652 99.9523
5.3036 8.62693 114.255
8.13588 42.9717 118.04
8.74752 33.4072 75.4549
6.10521 23.3117 98.3443
9.22134 38.3838 133.367
4.99157 19.6535 143.044
9.64294 9.12538 60.914
6.85232 24.8342 64.2301
6.37418 26.4108 172.993
11.0868 31.8044 110.173
11.4683 83.5288 218.976
8.51784 20.3631 168.109
9.19459 11.6258 20.5561
2.02355 10.405 59.3419
6.0189 26.1379 131.759
10.3396 42.9478 112.7
6.37079 22.4711 110.686
6.52577 22.9202 147.781
10.4912 53.1031 152.785
8.33349 23.344 86.8176
6.77664 25.9566 133.825
8.41168 31.9364 156.912
9.84011 29.5567 33.3572
0.907074 6.34298 69.4759
3.38086 20.9822 41.478
4.6727 22.9948 63.7685
4.67349 30.9022 133.273
9.41932 52.2523 178.063
8.66724 8.12157 39.1513
3.98725 36.3898 172.851
9.59536 27.1301 174.472
11.8815 31.1074 152.591
8.44643 31.7419 61.9023
5.57157 17.9345 27.6942
1.94103 16.1914 197.509
14.6321 42.9573 47.8938
2.73543 20.2345 110.301
5.37569 25.1877 34.539
2.24704 12.6812 102.849
8.94441 10.286 92.9295
6.96619 30.7949 126.959
10.3607 21.0847 46.9362
3.08921 30.9405 110.623
5.62722 19.3479 212.897
15.4658 62.6267 154.608
11.1236 30.622 140.572
11.9462 27.2892 49.8444
3.1809 13.3484 92.8459
8.61033 30.3369 64.9231
5.71914 14.8546 128.088
9.74442 41.6924 182.299
14.5701 43.7861 61.3031
4.06716 39.4959 183.985
10.7033 14.1849 76.1997
5.54386 30.5303 72.0382
5.37937 19.6268 106.548
9.71419 27.2879 68.3165
4.05277 19.9858 124.73
8.89247 16.6061 36.5644
4.95216 30.005 72.0394
4.91369 13.2465 34.9697
4.98387 41.5358 111.687
3.69159 22.8885 137.817
7.41783 28.7211 64.183
5.54914 16.3598 96.074
5.51192 7.91414 42.1433
4.30606 18.0539 48.2643
2.7922 13.3404 28.3218
2.54069 22.6537 154.024
9.34726 20.1602 66.8389
5.47427 18.3344 92.0094
5.93989 28.5208 138.607
8.53115 24.7527 75.5035
8.22353 36.8704 54.8405
1.722 9.49194 55.8064
4.33321 18.4625 83.1395
6.84705 31.178 104.085
3.88807 25.0812 105.82
8.04762 15.4134 94.7688
7.00831 12.5729 178.884
13.1278 36.1737 78.7568
5.35841 27.0912 112.245
6.33745 17.0368 49.4379
3.70285 33.4045 93.5159
7.04379 22.2251 192.299
13.5478 30.5601 70.9956
5.94224 8.74874 68.1645
7.59482 22.8057 129.552
5.93875 23.4061 56.7226
3.79212 23.4711 68.3392
6.22056 28.2018 168.411
11.9959 26.1265 68.1586
4.17722 14.4551 27.9717
2.32484 24.2122 149.708
9.84556 36.1235 110.82
6.77386 41.1914 160.36
13.8177 25.4616 106.982
7.95475 19.9517 83.3226
6.58986 37.897 109.541
6.46742 9.55355 64.0779
5.23785 9.69458 55.2613
5.23715 25.8552 83.1369
5.38095 29.6863 168.852
10.5166 25.5664 197.714
15.6059 18.2837 55.5148
6.29565 27.4825 46.6213
2.98996 14.6671 66.3148
4.32682 16.142 95.6992
6.43768 41.239 160.028
10.9926 32.2279 135.097
10.1148 26.8475 131.722
8.60631 27.9762 94.2602
5.99129 35.2158 199.536
14.4519 24.5313 144.552
12.8285 57.9897 118.463
8.85136 31.0744 100.266
5.68596 27.1675 70.1693
3.04692 37.1887 75.8465
4.30841 11.5611 44.5638
3.76153 15.0993 106.569
3.95648 33.0686 104.014
8.57754 26.0484 196.204
16.9134 32.3135 105.246
7.68379 44.1525 164.12
7.46076 23.736 43.504
3.71623 29.9361 69.412
5.67173 40.7893 160.116
7.54792 14.8289 76.6755
6.45376 13.176 26.7414
3.54398 29.8071 102.524
5.14924 11.7103 49.6251
3.74938 16.2945 77.7225
6.02373 23.653 95.4093
3.63726 15.7251 65.1885
3.88044 13.7922 100.772
5.13455 35.8792 100.935
7.18121 16.6937 161.47
9.64773 43.8273 124.096
9.50615 18.7228 61.0403
5.21123 9.69481 40.2052
1.86417 20.1749 138.852
10.0523 26.7084 140.665
11.4973 51.3157 92.6087
5.46459 14.8304 59.7275
2.84357 9.9075 32.9883
2.76294 39.2605 187.298
11.4656 14.744 40.2846
3.8788 23.0877 174.658
11.5463 27.4456 121.656
5.78462 35.7882 103.22
8.03843 26.5799 64.5645
5.04103 39.7323 149.129
10.089 33.8654 186.653
14.7661 24.4535 143.699
10.9237 38.6746 77.957
6.22475 21.513 90.5186
6.01041 15.2015 94.7924
7.32264 32.5649 112.343
8.06413 41.2623 99.0429
6.10507 9.87104 87.7847
6.28832 36.9616 176.08
11.5036 14.9761 41.295
2.46558 20.2127 86.4012
6.40202 17.2707 25.7985
2.87078 24.6775 90.0699
6.37698 14.3591 93.5609
4.56608 17.2404 30.6965
1.86011 16.0068 149.586
8.93121 30.5985 80.9405
5.28917 20.6609 62.6432
4.58927 17.7184 89.3324
4.82515 25.6271 71.6997
5.13655 12.2661 79.8237
5.95235 22.0501 191.116
11.3652 36.9024 38.8576
2.70609 9.40222 73.0209
6.20195 41.9403 209.679
9.79959 0 0