# pn-170911/CsIIA-38-USN3-1280-1959.psd
# Power spectrum* (dif=0,1,2) (really just |FT|^2)
# NOTE: only the first half! (symmetric)
# weeks: 1280-1959
# 2500 clock-days, 1058 excluded
# PSD: 1441
66107 2.02997 0.0390761
1.84387e+06 31.6103 0.0444797
1.04472e+07 211.32 0.0503586
1.64063e+06 61.4957 0.044986
1.54982e+06 107.957 0.0521836
586277 57.7461 0.0514038
405875 59.3313 0.0541051
300575 58.6482 0.0589921
243123 60.7524 0.0630335
192918 60.1976 0.0631484
152752 57.8235 0.0701698
129341 60.882 0.0798607
105012 58.5996 0.0844705
90537.6 59.3214 0.0929326
79506.2 61.4896 0.102049
68269.2 60.6162 0.107851
59877.5 59.9902 0.114
50849.1 57.0854 0.122223
49586.3 61.8915 0.140855
42278.7 59.083 0.141893
38244.8 58.6623 0.153603
34691.5 58.1778 0.162259
31055.7 58.6848 0.174067
27775.1 57.8808 0.190695
26288.7 58.8396 0.204812
24210.8 58.7897 0.219555
22996.1 59.8189 0.238611
21575.5 60.0654 0.250326
19660.1 60.753 0.267139
17887.8 58.0842 0.276015
16913.1 59.2729 0.296409
15588.7 59.0071 0.320304
15067.8 59.7473 0.337381
14203 59.9357 0.351558
12812.4 58.8413 0.364835
12363.3 58.4273 0.380932
11854 59.3088 0.4077
11099.3 59.2328 0.430459
10646 59.9663 0.455399
10190.3 59.1247 0.473987
9658.05 59.3671 0.503622
9196.32 59.7037 0.528374
8691.74 58.8722 0.538855
7999.31 57.9181 0.554459
7809.47 59.6624 0.595298
7317.45 56.8777 0.586026
7178.14 58.6402 0.641736
6977.06 59.9631 0.67428
6791.22 59.8165 0.703269
6538.27 59.0327 0.719015
5956.55 58.0738 0.730012
5943.85 59.5534 0.778827
5685.06 59.4223 0.812058
5398.76 59.5918 0.838155
5177.8 59.8275 0.877334
5196.78 61.6504 0.933703
4834.22 59.148 0.924429
4549.7 57.7533 0.934071
4559.91 59.2211 0.982044
4489.15 59.9793 1.03135
4270.96 59.4519 1.05289
4079.36 58.5954 1.06543
3935.36 58.3058 1.10524
3852.33 59.7015 1.16444
3901 61.5359 1.24779
3570.65 58.4345 1.21759
3415.21 57.5943 1.22666
3301.71 57.5796 1.28327
3304.45 59.3163 1.34479
3168.41 57.8613 1.34074
3067.03 57.3248 1.36936
3090.68 59.2511 1.46161
2990.26 58.7612 1.4924
2867 57.993 1.49586
2664.95 55.7642 1.49355
2707.81 58.6946 1.60453
2671.22 58.003 1.6247
2542.68 57.4775 1.66775
2463.91 57.9759 1.70074
2383.97 57.571 1.74876
2326.81 57.0804 1.77771
2318.87 57.8116 1.83316
2262.14 59.3035 1.9402
2160.37 56.915 1.90149
2147.19 58.2477 1.99329
2048.2 57.6054 2.01452
2045.04 57.8822 2.0528
1999.16 57.8514 2.11863
1958.43 58.0569 2.16261
1912.42 59.3014 2.26776
1900.53 59.6281 2.31331
1823.24 57.7297 2.31381
1726.36 57.9304 2.36992
1722.47 57.8396 2.42076
1681.91 57.0307 2.42941
1709.66 59.2708 2.57607
1586.3 56.6031 2.50593
1591.5 56.7652 2.57403
1569.12 57.3054 2.66653
1537.15 58.6167 2.77889
1461.23 56.3581 2.72203
1450.89 55.9434 2.73149
1427.18 55.6804 2.79252
1407 58.3667 2.9549
1423.52 58.8074 3.02851
1365.6 57.7949 3.08158
1297.21 55.92 3.01394
1287.29 57.318 3.12591
1278.39 56.0099 3.13081
1218.37 55.9482 3.1938
1281.91 59.1379 3.43104
1176.71 56.2379 3.3075
1179.63 55.2589 3.31558
1154.2 57.94 3.53687
1146.55 56.0509 3.48606
1138.55 58.2409 3.66731
1095.44 57.5506 3.69178
1093.98 57.5063 3.75811
1043.72 57.3019 3.8262
1044.6 55.6408 3.74174
1055.37 58.0671 4.00916
1047.32 59.7899 4.17328
1016.21 57.9814 4.13779
984.959 57.2862 4.10667
945.819 55.5128 4.06243
911.904 54.8366 4.08905
935.212 57.8371 4.35649
885.381 53.3923 4.09858
934.344 58.5119 4.56809
887.449 56.731 4.50661
878.235 57.0192 4.58938
854.178 56.051 4.56697
862.431 56.2255 4.66583
842.047 57.1048 4.81541
811.316 55.6193 4.7489
809.799 56.0175 4.83901
781.037 54.5496 4.77718
794.485 56.7514 5.06684
750.98 54.0666 4.89659
764.568 57.0947 5.25451
766.229 57.0268 5.31467
712.245 53.5317 5.02536
732.894 55.958 5.34796
704.857 54.8321 5.34306
714.767 55.9398 5.47502
725.569 57.1888 5.72086
698.828 55.4506 5.57673
690.869 55.7016 5.69755
691.564 56.0227 5.79454
652.636 54.4513 5.71841
639.474 54.6092 5.83983
639.075 54.503 5.88189
628.867 53.8175 5.93502
607.302 53.6275 5.92887
614.467 55.4661 6.22584
591.343 54.2324 6.14748
626.309 56.5986 6.52763
580.638 53.9426 6.25703
564.848 53.9485 6.32278
573.869 52.722 6.27635
551.527 53.6083 6.48368
562.265 54.2372 6.6548
565.369 55.768 6.88911
541.041 53.9407 6.76091
517.046 53.1094 6.80069
542.622 55.5868 7.15368
517.503 53.3165 6.93887
515.267 54.1755 7.15129
516.376 55.3794 7.34599
511.638 54.6504 7.32343
496.099 53.9285 7.39755
487.447 53.3335 7.40459
470.829 51.9763 7.26539
476.805 53.2227 7.48132
460.899 52.2091 7.45485
470.432 53.6392 7.71604
464.918 54.0293 7.9241
468.301 54.8653 8.15048
457.189 54.0046 8.06757
438.286 52.9731 7.93435
436.335 52.8256 8.06451
442.971 53.809 8.35567
428.349 52.7071 8.20129
415.22 52.1658 8.20511
407.482 52.3016 8.35213
409.81 52.9345 8.50645
410.096 52.0389 8.48693
417.623 53.694 8.76391
405.131 52.671 8.76883
385.686 51.6892 8.67273
384.578 52.8925 8.97742
374.127 50.5934 8.69709
383.262 53.1895 9.23478
387.807 53.2826 9.27673
373.05 52.8459 9.37503
365.962 51.864 9.22523
368.341 53.492 9.61974
363.512 52.6212 9.56663
356.932 52.1154 9.59787
352.234 51.9653 9.6813
344.431 52.4048 9.87502
339.924 51.0099 9.62978
332.372 51.1337 9.80235
335.438 51.4735 9.95691
328.478 50.4121 9.79225
324.12 50.4737 9.91087
331.578 52.6515 10.427
316.896 50.3146 10.1106
317.151 49.9778 10.1336
306.696 50.4382 10.3579
308.928 51.6249 10.6387
308.17 50.8534 10.6071
303.246 49.0899 10.3208
303.828 49.5837 10.4746
303.364 51.1841 11.0404
300.391 50.1093 10.8282
294.833 50.4464 10.9657
290.357 50.6488 11.0854
289.866 50.2967 11.1976
280.946 49.4352 11.1091
275.051 49.8289 11.3182
286.716 51.8231 11.7081
277.084 49.9721 11.5185
277.302 51.3401 11.9147
267.556 49.4068 11.5666
274.488 50.7896 11.967
262.59 49.5386 11.8019
258.184 49.3074 11.8351
265.144 50.5526 12.2677
263.208 50.5824 12.4318
255.264 47.8578 11.8087
248.348 49.7255 12.3941
249.276 49.0271 12.3057
247.705 49.2474 12.4546
243.366 49.2739 12.6309
249.106 49.8027 12.8342
245.541 49.3759 12.7826
246.567 50.5713 13.2573
239.623 49.3804 13.0959
238.103 49.2504 13.1489
231.94 48.1218 12.8381
238.479 51.4489 13.9007
223.823 48.5115 13.1478
220.806 47.9482 13.2486
227.579 49.0677 13.5696
223.271 48.4339 13.4781
226.732 49.1678 13.7888
208.394 46.9189 13.2925
216.983 48.6067 13.8195
212.253 48.2925 13.9983
214.508 49.1966 14.2794
207.053 48.1036 13.9745
206.366 48.518 14.4432
208.893 48.1482 14.2553
196.092 45.316 13.6085
205.761 48.3808 14.6316
200.842 47.6696 14.4417
200.192 47.951 14.8069
202.051 47.8101 14.7237
204.395 51.0359 15.9015
197.37 47.8892 15.1082
197.052 47.6022 14.9531
187.318 45.1449 14.3503
195.602 48.0788 15.2663
190.63 47.4539 15.3067
188.771 47.2041 15.2954
190.032 48.5722 15.9156
187.581 47.703 15.7063
182.531 47.547 15.8211
187.928 47.7729 15.8876
179.294 46.4819 15.7632
175.511 46.5541 15.6949
173.038 45.0132 15.4862
173.515 47.6257 16.5126
174.318 46.8848 16.2314
173.647 46.9259 16.2561
165.78 45.7194 16.1736
168.105 46.5873 16.5853
165.434 44.3708 15.8791
161.159 44.9202 15.9867
163.847 45.8005 16.7901
168.964 45.6459 16.5824
157.449 44.4507 16.1501
161.913 45.7135 16.8705
158.996 45.8392 17.1183
164.31 47.3228 17.6856
153.917 45.8678 17.2458
155.429 45.4441 17.3634
152.958 43.5851 16.4908
153.279 45.2659 17.4325
154.51 45.8225 17.9583
154.022 45.2763 17.6684
149.187 45.2659 17.7334
152.357 45.9816 18.1021
147.523 44.7284 17.7593
146.674 45.2923 18.2153
155.663 47.3658 19.0997
145.886 44.3778 18.0468
145.618 44.9572 18.2598
140.784 44.5379 18.4194
142.176 45.3943 18.6914
139.676 45.5237 18.9884
143.603 45.0571 18.7399
135.245 43.1484 18.1441
131.313 42.5656 18.0961
132.372 42.6332 18.2488
136.733 44.8157 19.3195
132.357 43.5604 18.947
134.276 45.0681 19.5033
133.699 43.1615 18.9015
132.044 44.1962 19.2772
130.548 43.2035 19.2315
129.537 44.5083 19.6918
126.042 42.861 19.1781
129.772 44.0969 19.9315
125.361 42.5931 19.3062
124.86 43.3586 19.7746
126.937 43.648 20.0399
124.363 43.9455 20.0104
126.59 44.4218 20.6497
124.143 43.9969 20.5973
116.492 41.4563 19.6151
120.345 43.0236 20.4478
114.575 40.755 19.5654
118.481 42.366 20.2595
113.99 41.3931 19.8325
114.153 41.8104 20.4694
115.813 42.8387 21.0265
118.311 44.0702 21.3766
111.562 41.4693 20.647
114.543 41.762 20.5577
111.759 42.7316 21.2539
111.973 42.1792 21.2248
108.955 41.9876 21.1808
113.557 43.2944 22.1041
107.495 41.3602 21.0607
108.804 42.2406 21.6336
104.874 41.167 21.4773
108.773 43.7281 22.5588
104.805 41.5113 21.7052
106.441 42.2435 22.0748
103.659 40.0711 21.3668
106.168 42.6455 22.5603
104.043 41.5486 22.1712
101.791 42.0074 22.7502
100.198 40.908 22.0105
98.4659 40.4613 22.1038
103.181 41.965 22.9845
102.414 41.478 22.6719
98.4304 41.919 22.9647
96.9554 40.6806 22.6641
98.1546 40.1826 22.3898
98.1185 41.3091 23.3729
98.4321 41.1803 23.1393
97.2667 41.5542 23.4453
93.3845 38.6807 21.9475
98.4441 42.6869 24.3986
96.1711 40.722 23.4751
90.1376 40.0443 23.4238
93.8027 40.2893 23.4439
91.618 40.9982 24.1707
92.3483 40.3236 23.7114
90.9854 39.1729 23.15
91.1398 40.703 24.3519
93.5103 41.0285 24.2681
86.155 38.4631 23.2838
89.6815 39.6851 23.8074
87.3925 40.4133 24.9271
89.8081 40.7487 24.8171
89.1258 40.6886 24.9572
83.9749 37.6753 23.2744
85.0277 37.7005 23.3537
87.6432 39.8651 24.7645
85.4795 38.8614 24.2295
81.4313 38.4974 24.2075
84.1691 39.809 25.343
81.318 37.7519 23.8951
83.6973 39.5921 25.3109
82.4206 39.4304 25.3024
81.4984 37.8198 24.5683
81.1397 37.9922 25.0586
80.5738 38.8159 24.9803
82.8807 39.8275 26.1299
80.8323 39.1833 25.8548
78.3886 38.4338 25.401
76.7874 38.4318 25.7685
80.057 39.0679 25.754
79.3367 38.6345 26.354
76.0257 38.039 25.614
75.9069 37.7718 25.8888
76.9156 39.2618 26.3405
75.7599 38.2068 26.4162
76.2421 37.9257 25.9299
75.6482 38.3211 26.378
74.5246 38.2867 26.4702
74.0807 39.0551 27.2773
75.4697 38.4543 27.0694
74.484 37.8656 26.7068
73.4604 37.738 26.6782
72.5117 37.0226 26.161
71.5781 36.5792 26.0917
72.0541 37.3049 26.6497
70.5602 37.2929 26.9867
69.3111 36.4576 26.4168
70.1281 37.2664 27.1585
71.4592 37.864 27.6646
67.8732 37.181 27.5549
69.5862 37.4265 27.5798
66.0972 35.8245 26.8971
69.4461 37.1069 27.4569
67.8709 36.5307 27.2922
65.8211 35.9504 26.8034
65.7011 35.4337 26.6541
68.1299 36.3951 27.1977
66.0057 37.16 28.5313
68.0204 37.3933 28.8016
67.1505 37.6189 28.7651
67.2135 37.4103 29.2285
65.8154 37.2476 28.6955
62.2359 34.9223 27.3847
64.3769 36.3693 28.5415
65.4718 36.2023 28.2334
65.37 37.4968 29.5229
63.1255 36.276 28.6941
61.7518 35.5122 28.2182
60.921 35.2187 27.9356
61.123 35.334 28.6048
60.0066 34.5013 28.0154
59.8083 35.4168 29.0384
62.0472 35.4256 28.5285
58.6367 34.542 28.3424
59.4748 35.3144 29.109
60.0817 35.6508 29.1053
61.2118 36.55 30.3596
59.5899 35.5938 29.6211
59.9127 35.6165 29.9227
59.4997 35.5866 29.9487
58.2861 35.5082 29.8615
57.8426 35.2059 29.2219
56.037 34.1111 29.1148
58.0915 35.0213 29.8292
55.5612 34.5379 29.9299
59.2587 36.6388 30.9751
55.459 33.7907 29.4807
56.0457 35.4037 30.5853
55.898 33.9753 29.4448
55.3942 34.4697 30.0084
54.0856 34.6202 30.4402
54.3922 35.7565 31.6324
57.6326 35.3531 31.1491
54.7892 34.7882 30.8969
54.7083 34.9618 31.3943
57.4898 35.379 31.7206
55.1191 35.4734 31.9418
52.4651 34.1787 30.5765
52.5607 33.649 30.9529
55.2843 34.5047 31.0064
52.3259 34.3428 31.6532
53.3613 33.6161 30.8326
52.3853 34.0877 31.4961
51.9798 34.4559 32.0118
52.594 33.8953 30.9783
51.0985 33.0066 30.8868
48.7696 32.4053 30.4401
50.7628 34.0335 32.227
51.0322 33.2142 31.256
49.4305 32.8517 30.8364
49.1564 33.0277 31.4068
49.3023 32.0551 30.5573
48.1433 32.8402 31.5654
49.2154 33.3716 32.1062
48.9628 33.4637 32.3646
49.0613 33.0588 31.9655
47.4851 32.3601 31.6947
47.0406 32.2211 31.9245
47.1326 31.996 31.6802
47.7165 34.2443 33.5614
48.393 32.5758 31.7872
46.921 32.748 32.416
47.1146 32.4132 32.1807
47.1661 32.855 33.0062
46.2772 32.551 33.0868
46.0784 33.0399 32.5841
44.2651 31.4968 31.9654
44.3888 31.6725 32.8785
45.5411 31.613 31.7368
45.2591 32.8331 33.6653
43.8578 31.6792 32.5869
43.7968 31.4543 32.5308
46.9508 33.3681 34.0025
44.5356 30.9767 32.3945
43.6312 32.0381 33.4233
43.3175 31.36 32.6811
44.0353 32.2476 34.0433
43.2976 30.9479 32.3735
42.3038 30.3918 32.219
42.4691 31.522 33.3882
42.1569 30.357 32.1558
40.9585 30.748 33.1428
42.4092 30.082 32.2129
42.682 31.6343 33.9871
41.2576 31.2508 33.6754
42.1868 30.7723 33.7557
42.8365 31.4559 34.2544
42.8157 31.9672 34.1704
42.2445 32.1367 35.0347
40.8239 30.7922 33.9478
40.0033 30.468 33.738
41.8382 31.1404 34.2796
41.6354 31.8595 35.251
41.2923 31.6839 35.2724
39.1008 30.7879 34.557
40.4385 30.9779 35.1962
40.6391 31.5623 35.158
39.1681 31.0189 35.6219
39.5836 30.9625 34.6548
37.9251 29.7989 34.0459
38.7829 29.0115 33.3099
38.4684 30.4063 34.7838
40.2873 30.5377 34.2907
36.9978 30.073 35.1726
38.8136 29.4544 34.3465
38.3392 30.5921 34.8639
37.1654 29.9744 35.0364
36.3872 28.5202 33.7135
38.7321 30.6103 35.5285
37.5904 29.7374 35.4581
37.1109 29.8011 35.4023
37.1605 30.4366 36.2666
37.0057 30.0611 34.9157
35.4178 29.0571 35.9908
38.0571 30.3881 36.0844
36.9183 29.5564 35.4657
36.96 30.5455 36.6307
34.7751 29.0612 35.5294
35.483 29.3903 36.2708
36.0587 29.7389 36.2132
35.056 29.2381 35.406
35.5442 28.5385 34.698
34.2015 28.3894 35.3432
34.9823 28.653 35.2735
34.6805 28.7528 35.6268
34.6404 28.1122 35.0583
34.305 28.8467 35.4829
34.3181 28.5974 36.1946
33.4907 29.1624 36.4879
34.5684 28.7729 36.1316
32.9925 27.5218 35.3054
34.2732 27.7351 34.9362
34.3189 29.044 36.4849
33.2829 28.6751 36.4283
33.4191 28.7951 37.101
31.9619 27.9904 36.2029
33.0944 28.1455 35.8677
32.1454 27.7559 35.7137
33.4652 28.2933 36.8681
31.5168 28.0728 36.8025
32.5306 28.1371 36.5259
32.4211 27.6456 36.1552
32.0301 27.5118 35.8414
31.92 28.1476 37.1042
31.8112 27.2891 36.4795
31.7767 27.9211 37.0243
32.175 27.2894 36.7273
31.8433 27.2987 36.0766
32.56 28.7764 38.1876
32.4443 28.2241 37.9442
31.7188 27.5409 37.147
31.7498 28.8081 37.9739
31.2427 27.7427 37.5253
30.1694 26.8346 36.355
30.002 26.686 36.6888
30.5427 26.8964 36.0273
30.6948 27.8164 37.7133
28.801 26.6277 37.4696
31.0323 28.3647 39.0711
29.8023 27.3512 37.4298
30.283 27.5888 38.624
30.2287 27.0025 36.6145
28.9943 27.0051 38.2125
30.5526 27.2094 37.979
28.5744 26.5654 37.424
30.3347 26.5394 37.4118
29.4683 27.4942 39.0005
29.8641 27.104 38.5407
29.219 27.1112 38.5185
27.8337 26.156 36.8817
28.5761 25.9761 36.5752
28.8385 27.1094 38.5805
28.634 27.0488 38.6229
28.4767 27.1934 39.0735
27.5304 25.6349 37.444
27.6548 26.1786 38.1639
28.0019 26.8272 39.4273
28.0787 26.0203 37.4686
28.1497 26.5013 38.2709
27.6321 26.14 38.6715
27.254 26.4672 39.1294
27.6808 26.5929 39.1652
28.2992 26.5805 39.1904
26.8263 25.0223 37.3847
26.8089 25.3094 37.2352
26.9761 25.2509 37.2787
26.7035 25.3391 38.5355
26.9544 25.7134 38.3491
26.3875 24.9925 36.8441
26.1069 26.2288 39.1325
25.944 24.7404 37.2581
26.2031 25.6662 38.6771
25.3925 25.1308 38.9069
26.4666 25.6925 38.3759
25.1728 25.1589 38.7338
25.0662 24.8709 38.1557
26.7939 25.9296 40.0509
25.4889 25.203 38.3705
26.219 26.4809 40.6893
25.3257 24.5604 37.5063
24.3318 24.6303 39.0425
25.5737 25.358 40.0853
25.6779 25.93 39.6595
24.3812 24.4741 38.5772
25.028 25.1824 39.2893
24.9388 25.4117 39.7989
24.4261 24.9421 40.2417
24.6279 24.5884 38.7345
24.0326 24.3797 39.0632
24.2868 24.5404 38.8193
24.9341 24.643 39.3349
24.0638 24.4441 39.8938
23.9254 24.486 39.6105
25.2288 25.6098 40.5846
24.2767 24.315 39.5818
24.6277 24.3457 39.8922
24.5169 24.4369 39.2052
23.5754 24.351 39.8789
24.1362 24.415 40.2653
24.8861 24.8403 39.1651
23.3013 23.3975 39.1098
23.7447 24.5368 40.193
23.3055 23.6904 39.1195
22.3715 24.6203 40.9063
23.5299 24.1961 40.1466
23.0255 24.2189 40.0037
22.7681 23.7891 39.311
22.261 23.1593 38.5066
22.9362 24.0659 40.365
22.4354 23.6531 39.9961
22.7229 24.3491 40.3914
22.6605 23.9128 40.0784
22.5924 23.8284 40.8878
22.7409 22.7847 38.349
22.5325 23.7404 40.3368
22.2499 23.7503 40.497
22.0883 23.7228 40.3582
22.1018 24.1543 41.592
21.7221 23.0765 40.0744
22.2013 24.0892 41.271
21.6419 22.6638 39.4688
21.6833 23.2557 40.3448
21.7267 23.8851 40.2003
21.6409 23.0916 39.9363
20.9087 22.5326 39.3955
20.5616 22.5837 40.1788
21.6706 23.1171 39.5775
21.5775 23.6782 41.3163
21.4032 22.6201 39.5306
20.6892 22.6528 40.3139
21.1982 23.1739 40.2158
20.4694 22.1697 39.8619
20.9845 23.1595 41.4197
21.3317 22.842 40.0282
21.1612 23.0654 41.4333
20.6478 22.5486 39.8888
20.6371 22.4214 40.573
20.5836 23.1828 41.4795
20.6153 22.8648 40.7583
19.5472 21.862 40.0861
20.0519 21.7232 39.78
20.0902 22.8755 40.9025
20.1922 22.3279 41.4697
20.6994 22.2381 40.1001
20.8119 22.6247 40.8332
19.9067 22.7328 42.1965
20.2517 22.1996 40.8362
19.6321 21.1331 38.9261
19.741 21.8903 40.6329
19.7581 22.3724 40.7095
19.0454 21.3968 39.9401
19.4022 22.7779 42.7431
19.4735 21.555 40.0335
19.5172 21.4602 40.6266
19.2901 21.7952 40.1698
18.9839 21.3342 40.2041
19.0213 21.7172 41.1684
18.9201 21.7886 40.7693
18.9123 21.2629 40.4123
18.5894 21.9149 41.6984
18.7792 20.8677 39.9562
18.9389 21.8701 41.2604
19.2374 22.3138 42.5739
18.9014 22.2017 42.5572
19.1084 21.6116 41.3475
18.8241 22.5633 43.3082
18.6852 20.4817 39.184
18.3994 21.8694 42.1466
18.085 21.7031 41.8237
18.3283 21.2653 40.7556
18.5431 21.3596 42.281
17.9323 21.0695 41.8965
17.9252 20.7289 40.2591
18.3683 21.6267 42.0566
18.2685 21.3306 41.5215
17.566 20.552 40.3806
18.6081 21.7945 43.3887
18.1736 20.872 40.2107
17.6809 20.33 40.6992
17.9593 20.8794 41.0413
17.3584 20.2839 40.457
17.311 20.4785 40.7984
18.0849 20.8768 41.1971
17.9528 21.5 42.5866
17.392 20.5653 41.7621
17.1587 19.8949 40.0462
17.349 20.921 42.361
17.0516 20.6124 41.2863
17.1218 20.4538 41.7284
17.0625 20.7962 42.7352
17.2817 20.3996 41.401
17.0397 20.4368 40.9841
16.8787 20.3907 41.7516
17.2755 21.0846 42.2778
16.5201 19.8463 40.714
17.317 19.9592 40.2065
16.566 19.8842 41.3787
17.0392 20.5481 41.1393
16.1974 20.235 41.9587
16.1742 19.6873 41.0932
16.1428 19.6039 40.7922
16.6209 20.194 41.3836
16.7171 21.1667 45.2798
16.6064 20.3045 41.8501
16.4226 20.1451 42.1134
16.3825 19.8766 40.1617
15.8346 19.9965 42.2023
15.9292 19.9074 43.0999
16.7535 19.8561 41.4356
16.4344 20.3874 42.6018
16.3671 19.3385 41.5318
16.3369 19.733 41.8215
16.3223 20.546 42.7862
15.3344 18.9473 40.3207
15.6693 19.2543 40.9661
15.3528 19.4798 42.3566
15.8952 19.4556 41.5237
15.706 18.9854 41.2405
16.3583 19.9437 42.174
15.4838 18.7541 41.0278
15.7301 19.4581 42.3074
15.8832 19.4532 40.6729
15.105 18.7659 41.233
15.1563 19.3545 41.919
15.9794 19.6715 43.1967
15.0182 18.6497 41.6356
15.8488 19.1151 40.731
15.3644 19.5894 43.4063
15.2439 19.3351 43.2866
15.0105 19.1985 42.1179
15.3998 19.2798 41.6253
15.0152 18.8804 41.2706
14.8345 19.1152 42.5127
15.0553 19.2951 42.2816
14.9417 18.7073 41.8547
14.9739 18.482 41.0944
15.3347 19.7073 43.8128
14.959 18.7624 42.0141
14.8959 18.7745 41.9909
14.6124 19.031 42.3221
14.4796 19.2374 43.2809
14.669 18.7899 42.1095
14.7019 18.3603 41.3714
14.1839 18.2265 41.4755
14.7162 18.2603 41.9254
14.9874 18.8974 42.0633
14.2209 18.1311 42.0172
14.2143 18.4466 41.707
14.4253 18.7862 42.366
14.3914 18.082 42.1232
14.8968 18.9091 42.5189
14.2578 18.8409 43.2568
14.3329 17.9521 40.66
13.8937 18.0685 42.4114
14.3817 18.8101 43.3486
14.4423 18.3271 41.84
14.1613 18.6374 42.5471
13.7532 18.8318 43.5745
13.5567 17.9182 42.9306
13.8836 17.3307 39.708
13.7566 17.7768 41.7018
14.147 18.9916 43.5844
13.8471 18.0207 43.2171
13.8167 17.9182 41.4208
13.7508 17.9081 41.5625
13.6805 18.1627 43.9928
13.5916 17.7841 42.1904
13.6789 17.9237 42.6466
14.1271 17.816 41.3975
13.468 17.8922 41.7986
13.0356 16.9427 41.7814
13.5279 17.5816 41.682
13.8836 18.2863 42.6998
13.1428 17.7294 42.5157
13.7261 17.81 42.6312
13.8773 17.7061 42.8234
13.545 18.0362 43.0677
13.5858 17.5977 41.8917
13.3193 17.9558 43.9102
13.4047 18.0145 42.7099
13.0707 17.5498 42.3924
13.2047 17.2976 42.3725
13.2681 16.8537 39.995
12.8541 17.3203 42.4608
13.1661 17.7979 42.6807
12.8725 17.5548 42.9757
13.1308 17.6348 43.4851
13.0684 17.17 42.3916
13.1844 17.0508 41.5244
12.5026 17.1696 42.0231
12.8386 17.212 41.4644
12.4965 16.9623 41.5438
12.5689 16.9769 42.2853
12.7648 17.3223 42.183
12.548 16.7272 41.0539
12.0308 16.0223 40.8825
12.5067 16.6423 42.2635
12.6617 17.1581 42.5565
12.8669 17.1259 43.0719
12.3718 17.0698 42.5704
12.5566 17.2094 41.7562
12.3286 16.9231 42.6594
12.4199 16.2058 40.7221
12.3112 17.3302 44.1032
12.2122 16.3787 40.4149
12.3135 16.6856 42.4203
12.3436 16.8768 43.1019
12.3908 16.6731 41.916
12.1062 16.8922 42.2297
12.4245 16.6458 41.6494
12.5124 16.4832 41.5958
12.0328 16.7475 43.3878
11.8883 15.8378 40.5785
11.9813 17.1364 44.6774
11.909 15.9781 41.6025
12.3786 16.6872 41.6466
11.8597 16.134 42.1666
11.8674 16.7554 42.3205
12.4289 16.9695 43.7023
12.1612 16.6895 42.7912
11.8968 16.5567 42.7689
11.8335 16.3658 42.0133
11.647 15.8971 41.7459
11.8151 15.9443 41.3116
11.7352 16.3057 43.8091
11.845 16.449 43.2387
11.6258 16.8643 43.3278
11.7504 16.597 43.5187
12.0536 16.6376 42.7354
11.6957 16.2748 43.0286
11.7104 15.8595 42.2021
11.9481 17.0465 44.3994
11.5131 16.4288 42.8602
11.4287 15.8485 41.6497
11.5306 16.0217 42.9446
11.2663 15.8031 42.0585
11.4197 15.9469 41.4192
11.2625 15.1417 41.6293
11.2039 16.399 42.8152
11.2577 16.3785 45.4272
11.6184 16.272 42.6025
11.5754 15.6458 41.0643
10.9079 15.3191 42.3262
11.4943 15.8616 41.9801
11.2635 16.3182 43.0983
11.3678 15.5276 42.1769
11.2473 15.4772 41.8129
10.8219 15.704 41.7153
11.0405 15.7365 41.9964
11.0047 15.0007 40.7393
11.1614 15.8616 43.4675
11.0294 15.252 40.9731
10.6878 15.4244 42.3765
11.2001 15.9653 43.4465
11.0065 14.9096 40.3918
10.8263 15.4675 42.9449
10.9331 14.713 40.2546
10.5546 15.4148 43.1288
10.9647 16.2431 43.3524
10.5748 15.388 43.0685
11.1114 15.5559 42.2963
10.8591 15.4057 41.4587
10.6333 14.5539 41.3773
10.9347 15.3517 41.5723
10.5168 15.1551 41.6745
10.404 15.6643 43.4854
10.7192 14.9995 42.5704
10.614 15.6173 43.4817
10.9294 15.3644 41.5543
10.3383 14.9112 43.3722
10.4369 14.664 40.5499
10.2286 15.0237 42.23
10.4241 14.9859 42.1565
10.7172 14.8386 40.434
10.2972 14.7634 41.5616
10.3331 14.7093 42.1828
10.603 15.616 42.8047
10.6679 15.3254 42.2257
10.2661 15.0965 42.1393
10.3425 14.8981 41.6032
10.4777 15.0932 43.8825
10.1974 14.9008 41.5158
10.4655 14.9212 43.0387
10.2758 14.3139 40.9839
10.2955 14.7855 42.1668
10.1087 15.0165 43.1589
10.2729 14.1812 38.6228
9.60278 14.5904 42.3005
10.1318 14.287 41.0577
10.09 13.8221 40.2627
10.1983 14.8154 42.7652
10.0092 14.798 41.9665
10.0959 14.8208 41.7339
9.60654 14.067 41.3374
10.2072 14.9275 42.5218
9.78869 14.5162 42.3951
10.2042 14.9112 43.7054
10.015 14.3381 41.4116
9.93937 14.4025 42.3322
10.0136 14.3431 41.0239
9.48862 13.491 39.9844
9.9359 14.1117 40.7111
9.8763 14.0356 41.9866
10.1089 14.3965 41.4176
9.78948 14.4278 42.1104
9.78018 13.7896 42.1995
9.85177 14.0087 40.2846
9.82314 14.1942 41.4341
9.83525 13.979 40.7837
9.75931 14.3643 42.7942
9.93012 13.7977 40.5164
9.83011 14.0228 41.0091
9.67518 13.9243 40.7159
9.55184 14.1856 42.5247
9.8486 14.1978 41.274
9.51114 13.7216 41.0644
9.57137 14.3566 41.9534
9.74255 13.9119 40.95
9.52177 13.8035 41.457
9.51319 13.4338 40.3837
9.54525 13.7163 41.0918
9.55095 14.0611 41.3731
9.27754 13.1955 40.2518
9.49545 13.3766 38.9121
9.07364 13.4937 41.1761
9.32066 13.6184 41.6116
9.28197 13.3782 39.1778
9.18837 13.6557 42.7241
9.5837 14.1391 40.5286
9.21662 13.5103 40.9186
9.21443 13.7709 41.4227
8.9167 13.1096 40.5667
9.21076 12.7448 38.6369
9.15861 13.11 40.8291
9.39745 13.7906 41.0508
9.01258 13.826 42.5169
9.59398 13.9304 41.1552
9.08481 13.3088 41.106
9.14319 13.5158 40.2155
8.81925 13.1982 40.9766
9.23342 13.8214 40.8262
9.06267 12.7294 39.7145
8.8517 13.147 41.1395
9.26923 13.8994 41.4331
9.13587 13.3693 41.5581
9.15885 13.665 42.7768
9.32953 13.3986 41.2422
9.2792 12.9765 40.8231
9.17379 13.4972 40.2894
9.0452 13.1653 40.8364
9.01006 13.0731 41.0043
9.09268 13.1435 40.6701
8.68739 13.4785 41.3571
8.93482 12.873 40.62
8.97024 13.5897 40.5912
8.80169 13.5135 41.9643
8.76121 12.6604 40.3116
8.69922 13.1203 40.6474
8.71188 13.2082 41.695
8.76203 13.0518 40.5994
8.65041 13.0516 41.4985
8.85317 12.6346 39.1233
8.66958 12.5251 38.3848
8.77371 12.908 41.3125
8.58317 12.7013 40.0234
8.63621 12.9039 41.1775
8.83157 13.0073 40.6943
8.6965 12.5392 40.1214
8.83305 13.0718 40.3394
8.42636 12.6543 40.8245
8.6977 13.2868 41.1209
8.55083 12.5145 39.701
8.56436 12.9997 40.6924
8.64715 12.9002 41.1264
8.50906 12.6552 40.9935
8.51477 12.5006 38.3766
8.19304 12.4085 39.7958
8.32569 12.7667 41.2354
8.48091 12.2822 39.6541
8.47747 12.6003 41.4061
8.52634 12.5332 39.5088
8.47516 12.5505 40.2884
8.109 12.0034 37.9212
7.90746 12.2327 39.6991
8.43223 12.6841 40.943
8.69433 12.8601 39.9186
8.45604 12.3649 40.8695
8.23689 12.8535 42.4809
8.46363 12.7093 40.4246
8.37916 12.2311 40.1317
8.55221 12.3578 39.9185
8.15235 12.9174 41.5307
8.37938 12.6924 40.9806
8.40069 12.4207 40.455
8.31922 12.3039 39.1642
7.93801 12.1783 39.5714
7.94809 12.4485 40.6918
8.40609 12.2398 40.1104
8.00031 12.6504 40.9689
8.19732 11.7384 39.1757
8.07723 12.3357 40.7551
8.3328 12.0579 38.9646
8.15787 12.0862 40.4618
8.21357 11.8509 38.4392
8.2734 12.5311 40.8662
8.3376 12.3669 39.4622
8.10644 12.2117 40.4142
8.15128 12.3907 40.9601
7.95986 12.4171 40.2906
7.7546 11.3478 37.9584
8.0739 12.0765 39.8925
7.92128 11.8947 38.6472
7.96532 12.0133 40.613
8.31717 12.3505 40.5581
7.88155 12.3341 41.4
8.1169 11.9451 38.866
7.93343 12.0682 39.8985
8.0323 11.8826 38.9482
7.86427 12.6691 42.9084
8.02781 12.4736 41.3145
8.15694 12.2646 40.9675
7.95491 12.1454 40.7366
7.57003 11.5406 38.0659
7.82177 12.34 40.4249
7.62541 11.4543 39.4197
7.68817 11.3833 38.6701
7.81499 12.0199 40.7306
7.89811 12.0104 40.6834
7.97718 11.6932 39.483
7.68547 11.6673 39.7823
7.86628 11.5421 38.372
7.62437 11.9934 39.52
7.68633 11.5779 39.5196
7.87301 11.4642 39.3093
7.83301 11.821 40.5989
7.8293 11.5209 38.4606
7.6456 11.6298 38.978
7.669 11.909 40.3085
7.73243 11.9193 40.2316
7.76184 11.6081 39.1654
7.50739 11.8098 40.6702
7.64388 11.663 38.715
7.72733 11.6667 39.6363
7.51797 11.5579 40.2341
7.79625 11.3938 39.0362
7.48037 11.6022 39.2929
7.54233 11.4911 39.8165
7.62869 11.35 39.6733
7.74638 11.9806 38.4561
7.38657 10.6699 37.3017
7.52151 11.1707 38.7882
7.45215 11.395 39.1534
7.41623 11.1233 38.2588
7.58782 11.0398 39.4102
7.58437 11.3222 38.7682
7.44589 11.0716 40.106
7.75435 11.6976 39.0556
7.39288 11.7094 39.2734
7.47405 11.5504 40.968
7.60732 11.9638 39.4159
7.47355 11.4819 39.3743
7.42672 10.9083 38.2644
7.38262 11.4524 38.8682
7.22358 11.3097 39.6915
7.48255 10.9901 38.7529
7.37434 11.0034 38.382
7.09192 11.3607 38.9795
7.37679 11.5457 40.2979
7.51354 10.9583 38.5775
7.26752 10.8581 38.0797
7.36786 10.9207 38.2493
7.36379 11.3812 40.1846
7.4983 10.8625 37.1514
7.12044 11.1759 39.3072
7.36052 11.3113 38.4697
7.22963 11.0064 37.4761
7.09915 10.7495 38.8024
7.31848 11.7287 40.7145
7.37582 10.9555 39.6474
7.19408 10.9944 37.0347
6.95524 10.7291 38.3662
7.23199 11.0455 39.3996
7.3037 11.4608 40.2275
7.32692 11.4205 39.2055
7.24664 10.9109 39.1124
7.12447 11.1697 39.8616
7.16491 11.0749 39.5493
7.04007 10.6485 37.2686
7.16081 10.8345 39.1586
7.36936 11.3867 39.5844
7.31992 10.9241 38.7066
7.45028 11.0145 38.1886
6.79891 10.671 38.1095
7.00902 10.7566 38.4675
7.12418 10.9295 39.2412
7.12498 11.2837 40.5915
7.1999 10.837 38.413
7.08087 11.3526 39.3516
7.20368 10.7663 38.2275
6.91983 11.0717 39.6449
7.07132 10.5543 37.2263
6.80422 10.6585 39.9306
7.14246 11.0103 38.6914
6.97089 10.8843 38.7516
7.09876 10.7679 38.2737
6.86819 10.4489 37.6066
6.98297 10.8287 39.6073
7.05731 11.2984 40.177
7.08383 10.8613 38.7896
6.98638 11.2083 40.2063
6.99633 10.7214 38.9621
7.04608 10.9626 39.3904
6.98409 11.2519 41.208
7.06224 11.1128 40.6618
6.98696 11.1212 38.3941
6.86892 10.9437 42.1111
7.23894 11.3507 39.7418
6.87881 11.0918 40.0075
7.15794 10.5672 37.9005
6.79747 10.3819 37.258
6.78512 10.6978 38.8675
6.94337 10.6673 39.2609
6.89624 10.918 38.4814
6.68117 10.5761 39.0206
6.9427 10.5691 38.4943
6.92878 10.5022 38.1108
6.71496 10.3504 38.0946
6.82749 10.4757 37.821
7.02778 10.5915 39.6365
6.91224 10.5435 37.906
6.79243 10.1426 37.3084
6.68097 10.4907 37.8372
6.68052 10.2422 37.4541
6.59765 10.3643 36.8778
6.71287 10.6402 38.1149
6.64497 10.0334 38.8991
6.75417 10.6434 39.6051
6.79434 10.6308 38.3166
6.7556 10.5541 39.6143
7.096 10.6546 37.8184
6.52383 10.4977 37.8726
6.6152 10.3054 39.2071
6.8053 10.6159 37.9272
6.53221 10.2709 38.4444
6.78589 10.2685 37.5187
6.79516 10.0891 37.7798
6.63585 10.3252 37.9443
6.81158 10.3022 38.2557
6.73444 10.6444 39.0179
6.62152 9.93198 35.9274
6.64308 10.4257 39.9064
6.80429 10.6441 37.9232
6.50883 10.208 37.1953
6.72421 10.2477 39.1839
6.65566 9.89522 36.709
6.58724 9.91134 35.924
6.62135 10.3099 37.5526
6.61631 10.3338 38.026
6.6612 10.4969 38.2551
6.53777 9.61727 37.7106
6.63557 10.2332 36.4069
6.56226 9.94347 37.3296
6.4191 10.1027 37.83
6.54046 10.0904 39.146
6.6124 10.57 39.0731
6.61573 10.4159 38.5783
6.59378 10.2475 38.9481
6.5849 10.1756 36.6061
6.64732 10.0361 36.935
6.42158 10.0664 37.1123
6.48374 9.95733 36.508
6.28382 9.33742 36.1654
6.4197 9.96647 38.0801
6.56952 10.1843 36.5305
6.26941 10.029 39.7024
6.47474 10.3776 38.2954
6.71596 9.88287 36.3717
6.28228 9.83021 38.2802
6.63101 9.92456 37.5617
6.53288 9.85775 36.0865
6.31826 9.79686 37.1569
6.47115 10.0192 37.8575
6.52564 9.93384 38.8328
6.63522 10.2441 37.8773
6.5374 9.67472 36.2248
6.33442 10.0576 38.6609
6.41884 9.76928 37.1466
6.40446 10.1518 37.102
6.31269 9.87117 37.3249
6.49793 9.61381 36.2648
6.14808 9.68202 37.4067
6.34781 10.141 36.8693
6.23832 9.82036 36.4766
6.27563 9.61153 37.6782
6.48938 9.69582 38.3647
6.68172 10.1074 38.1057
6.67999 10.0751 37.9334
6.51493 9.71463 36.7082
6.48704 9.86144 37.6369
6.25829 9.75291 37.7496
6.3688 10.3283 37.7434
6.25471 9.64309 36.259
6.27148 9.773 37.6473
6.36307 9.75273 37.0395
6.26382 9.63805 36.1903
6.15875 9.81481 39.1476
6.50427 10.1985 39.2306
6.45015 9.88077 37.8188
6.48937 10.4601 38.9934
6.46484 9.50414 35.9806
6.3533 9.88482 37.7141
6.14623 9.65639 36.0854
6.27488 9.53219 37.7226
6.51608 9.88045 37.1702
6.16422 9.85888 37.8842
6.29212 9.49101 36.3082
6.22588 9.51401 35.9493
6.41897 9.53644 35.5982
6.38382 9.7532 36.1611
6.27435 9.62477 37.5754
6.2324 9.50798 36.53
6.46666 9.68734 37.1147
6.30525 9.75622 37.4159
6.23394 9.78116 38.6665
6.26102 9.36278 37.1539
6.28335 10.019 36.7799
6.26277 9.5719 35.4957
6.08355 9.55152 36.9214
6.20873 9.73178 38.2218
6.37917 9.505 36.5539
6.23607 9.47973 36.0555
6.16494 9.64207 36.2039
6.17444 9.52288 37.427
6.398 9.70559 37.3525
6.25711 9.37096 36.9574
6.17505 9.2979 36.5038
6.21606 9.7683 37.7887
6.14231 9.63478 36.9536
6.28714 9.25399 36.3367
6.07415 9.64293 36.7602
6.13674 9.35256 36.7918
6.14553 9.31736 36.5319
6.26953 9.64102 35.9412
6.08458 9.46309 36.7501
6.16887 9.13397 35.014
6.10445 9.61271 37.5158
6.24003 9.51013 35.6951
6.20048 9.22927 36.9911
5.98377 9.38416 36.4463
6.20719 9.72063 37.6353
6.4389 9.70168 37.1394
6.06799 9.31603 36.8407
6.21763 9.3353 35.959
5.94761 9.31075 36.3269
6.15175 9.46402 35.5357
5.95154 9.12875 36.3067
6.11524 9.39717 36.321
6.05389 9.14714 35.1425
6.10897 9.08195 34.9538
6.07424 9.55077 36.9341
6.13199 9.26473 36.0656
6.05334 8.92892 35.8079
6.07437 9.76384 37.3831
6.14768 9.48384 38.0466
6.15905 9.57031 36.1123
5.91494 9.05211 35.5648
5.87694 9.2336 36.1242
5.96006 9.6082 37.0481
5.99175 9.28454 36.4703
6.10086 9.15463 35.0953
6.14423 9.22099 35.6395
5.93148 9.19859 36.5382
5.91783 9.63525 36.9608
5.96843 9.24207 36.0194
6.06214 8.93742 34.9393
5.96567 8.93696 35.2877
6.12765 9.29023 36.4746
6.09605 9.18249 37.2748
6.13865 9.2595 37.0235
6.15929 9.35145 35.4262
5.85062 9.15931 35.4434
5.852 9.36231 37.1533
6.11071 9.29641 37.0434
6.01559 9.59374 35.7466
5.99429 8.86218 36.6865
6.04121 9.97665 37.2205
5.96287 9.04104 34.8573
5.88413 8.89983 36.4866
6.10577 9.36994 35.5081
5.99162 8.96895 36.5686
5.95721 9.37306 36.27
6.25562 9.32838 37.2643
6.01768 9.38173 36.3334
5.81327 9.47587 36.0229
6.11357 9.20188 36.7279
5.93784 9.11706 36.7635
6.1083 9.26033 36.6534
5.95391 9.4746 37.1148
5.98402 9.13472 35.6495
6.10171 9.32228 36.7216
5.84697 9.01163 35.0249
5.67896 8.93625 34.6903
5.8436 9.05943 36.3436
5.98125 8.84377 35.2193
5.82319 9.09837 36.4633
6.04529 9.44161 37.0298
5.93888 9.25785 38.1285
5.92602 9.23955 36.9022
5.86144 9.33976 35.9185
5.85503 9.20699 35.5953
6.07648 9.00955 34.8266
5.89917 8.8088 35.44
5.99757 8.86433 36.2733
6.03531 9.44089 36.997
6.03902 9.49206 36.1061
5.94028 9.15022 35.4077
5.93202 8.87066 35.9599
5.97415 9.17422 36.2637
6.02714 8.87534 36.1572
5.78198 9.26833 35.6878
5.90365 8.74101 34.9725
5.85041 9.02143 35.057
5.8915 9.31255 37.5913
5.93808 9.40373 37.3316
5.92726 9.23476 35.4113
5.84895 8.8266 34.7381
5.85043 9.02747 36.6137
5.99279 8.55978 34.3984
5.85565 9.23211 35.8096
6.01807 9.07988 36.1922
5.88823 8.87414 34.9429
5.88926 8.75052 34.6578
5.63271 9.15502 36.6811
6.02278 9.24476 36.9073
6.10403 8.67264 34.588
5.83732 9.11868 36.6757
5.98904 8.70184 34.9455
5.6979 8.73879 35.2215
5.87553 8.85332 35.1812
6.01614 9.29018 37.1474
5.86935 9.18065 36.699
5.88034 8.98975 36.0055
6.00117 9.08095 35.3579
5.66349 8.83145 33.5308
5.87864 8.80228 36.4645
5.91597 8.77517 34.7605
5.72532 8.74352 34.6061
5.86611 8.82218 34.3327
5.94568 9.00419 36.6972
6.02716 9.33084 35.9686
5.72338 9.07739 36.4822
5.74622 9.17178 36.3611
6.02009 9.10633 36.1568
5.80752 8.79477 35.2585
5.98773 9.33739 36.9382
5.94308 8.88993 35.4689
5.88425 8.95285 35.4991
5.77867 8.72243 36.1305
5.92955 9.35013 36.3336
6.05934 9.37632 36.3597
6.00331 8.90592 36.8302
6.12474 9.2613 36.2431
5.92572 9.09792 35.9988
5.94238 8.8597 35.2315
5.91132 8.63717 34.3107
5.76431 9.10491 35.8325
5.89692 8.95373 35.0016
5.84006 8.75114 36.0271
5.97571 8.98505 35.5811
5.77666 8.99931 36.4281
6.01768 8.92324 35.1974
5.76988 8.95811 37.8123
6.01623 9.47901 36.357
5.74136 8.89453 34.9793
5.89354 9.17419 35.8201
5.91759 8.79841 35.569
5.73367 8.57194 35.0098
5.65468 9.08321 35.7222
5.96579 9.01302 35.3502
5.75337 8.96834 36.4735
5.95905 8.98282 35.5423
5.95342 8.72289 35.2827
5.95593 8.78879 35.0817
5.80116 8.63343 35.2908
5.75198 9.00933 35.1799
5.8429 9.12209 35.3737
5.64978 8.76337 37.0869
6.00128 9.31301 36.7982
5.94799 9.23181 36.6176
5.91974 9.03006 35.5777
5.74973 9.08686 35.9421
5.73385 9.08664 36.4049
5.83734 8.99117 35.0492
5.96759 9.33813 38.2384
5.96555 9.1932 35.789
6.01188 9.12699 36.6877
5.83655 9.25321 36.1444
5.70796 9.11146 36.003
6.00156 8.99291 37.3588
5.9637 9.13233 37.4357
6.18127 9.76532 39.4841
6.11944 9.9632 39.5454
6.08356 9.89448 39.7747
5.94189 0 0