# pn-170911/CsIIA-30-KOKB-1280-1959.psd
# Power spectrum* (dif=0,1,2) (really just |FT|^2)
# NOTE: only the first half! (symmetric)
# weeks: 1280-1959
# 2 clock-days, 2 excluded
# PSD: 1441
28697.5 0.815756 0.0093674
1.54599e+06 23.3152 0.0289978
7.47675e+06 113.985 0.0235925
1.52224e+06 73.9741 0.0471673
1.15797e+06 88.7606 0.0285858
739328 112.264 0.0243467
181492 17.8377 0.0215981
48706.9 8.47227 0.0173835
185248 41.4261 0.0476512
148871 38.2921 0.0263642
192223 64.0776 0.0811354
34417.8 5.37462 0.0244117
8528.7 16.0301 0.0455047
55973.8 48.386 0.114895
56010.1 56.3671 0.117328
26684 52.3125 0.106765
56888.6 41.8569 0.0608428
84861.5 160.427 0.210178
24661.5 67.1585 0.14317
32596.1 95.3287 0.153527
54594 133.364 0.221026
68823.8 116.862 0.374053
32200.8 93.8262 0.308238
20411.4 37.9843 0.193775
12567.1 37.3371 0.0847569
13739 40.8726 0.152101
5132.61 30.3059 0.193305
25772.3 58.691 0.173077
1300.46 1.18767 0.022485
11574.9 20.0663 0.158792
26644.9 81.7242 0.474929
9775.62 52.833 0.386805
2795.42 7.93329 0.0903835
7755.97 23.1201 0.252989
10007.4 87.2771 0.522367
3601.52 17.0068 0.144564
8542.3 31.5982 0.119816
4735.22 22.6229 0.106117
45390.9 341.887 2.39106
2870.77 21.6903 0.225608
6391.9 26.0534 0.274487
11936 59.1149 0.517096
14459.2 98.7519 0.70356
7734.16 45.2966 0.461935
10140.4 62.4903 0.633753
4523.23 42.1302 0.292533
23087 285.96 2.6553
282.073 13.9026 0.162888
3977.44 32.4937 0.266108
7165.85 81.6988 0.990996
697.4 20.6327 0.306104
2517.21 40.6392 0.572615
2707.99 55.7278 0.899778
11417.9 98.389 1.38298
13752.8 136.386 1.85839
5296.59 64.3885 0.608921
6057.46 88.5965 1.20999
7716.29 75.9248 1.1263
4129.11 45.877 0.733022
157.957 5.04279 0.177767
3084.23 59.0754 0.707344
2084.49 54.9234 0.841642
3480.66 31.8538 0.602686
641.623 27.8313 0.526281
4923.17 70.3251 1.33251
2813.78 47.6861 0.761469
5773.47 142.193 3.19412
962.48 34.4554 0.922945
4541.03 68.8149 1.88361
1574.87 19.8123 0.654853
231.362 11.0246 0.282097
1591.74 57.9356 1.57592
5870.61 90.4409 1.99992
1800.74 20.2888 0.425368
3692.18 71.2068 2.04538
537.817 6.42463 0.249267
7221.3 207.497 5.24875
3407.97 69.8301 1.95401
2908.35 82.3037 1.85236
1671.15 45.3251 1.09385
1269.42 76.1168 2.32009
2645.67 65.7801 2.42831
1546.62 21.4902 0.769786
1815.14 43.4858 1.09512
3334.56 73.9818 2.45045
590.406 20.591 0.697684
1239.61 61.0931 2.2017
1557.37 50.7308 1.66229
1765.3 63.5608 2.23915
2001.96 59.6511 2.4189
458.291 23.9774 0.810736
89.1511 7.65261 0.270922
2131.94 110.244 5.05623
2166.31 47.3588 1.63867
588.841 32.2702 1.61374
609.117 10.3507 0.319364
1246.86 35.5443 1.59749
337.56 10.4516 0.444344
1649.34 40.7196 1.9649
1041.14 30.2891 1.55167
275.907 11.2997 0.582195
644.738 56.7786 2.48611
540.86 43.1091 1.88025
3003.71 130.395 6.67616
93.1412 20.2198 1.00194
514.151 7.97964 0.387241
1087.51 31.5886 2.05411
834.971 29.1014 1.74886
774.825 39.5326 2.23035
767.538 41.7044 1.80099
437.956 49.1101 2.57009
1217 57.773 3.81006
2377.55 185.137 10.8392
1041.7 36.0962 1.8472
539.33 36.9589 2.50935
1734.62 109.314 6.56341
611.938 48.558 3.59972
451.49 16.0727 1.23431
1464.36 93.9442 6.38869
536.898 30.4231 2.58694
2138.56 95.9518 5.81167
858.014 66.4334 3.9358
521.053 22.4284 1.55997
911.664 60.6122 4.28762
1178.52 87.2736 6.75431
1381.98 74.8523 6.68978
497.089 44.4225 2.75776
1402.05 126.559 11.2845
1265.78 99.4481 6.46453
802.251 59.138 4.41937
96.9772 11.4893 1.47143
545.243 32.3183 2.03889
170.396 22.2915 1.62006
361.728 23.1963 1.68442
200.795 9.13422 0.821709
817.74 113.993 10.5674
989.94 69.906 4.97149
901.634 89.4428 6.9228
331.277 56.2541 4.67648
395.076 72.5518 6.83666
300.421 25.3457 2.3286
1477.38 148.526 13.952
491.876 21.7274 1.52659
381.587 66.4889 6.29831
755.552 62.7702 6.0622
520.307 33.8133 3.62215
293.502 28.0727 2.31705
342.243 20.6229 1.80475
255.133 11.5799 1.21831
444.817 44.4842 4.23027
826.289 110.336 12.6179
1077.42 69.9335 6.70285
553.2 41.8743 4.7304
261.932 23.3672 2.38359
35.8586 15.5947 1.91718
1034.6 102.109 12.1268
665.92 90.1064 9.9782
857.512 55.1688 5.96782
938.234 100.665 11.9608
202.047 45.3591 6.32312
150.139 15.5244 3.01095
402.94 66.5954 8.55251
1581.66 137.543 15.7439
147.639 22.877 2.54842
152.628 24.0854 3.1642
87.8933 4.11454 0.742658
362.477 55.5451 7.50405
316.004 36.4887 6.11153
990.999 78.2202 10.2947
606.075 64.5695 7.37039
561.044 45.4674 6.27996
578.094 58.7816 7.01888
367.958 47.0455 6.62019
131.893 29.3917 4.43824
260.294 41.4882 5.7696
263.552 26.4809 3.38435
514.747 62.2335 10.0557
474.663 33.3727 4.6448
209.831 25.7201 4.44398
524.122 61.0678 8.42819
335.761 37.4665 6.82331
303.634 39.0087 5.07833
795.627 105.84 18.7706
189.589 49.4609 6.58029
852.992 110.305 17.4355
303.115 30.2606 5.15392
117.897 12.3267 2.46757
648.379 90.2657 16.0023
676.076 100.107 16.3186
368.587 53.0222 9.3586
140.94 39.5126 4.91854
272.359 57.6713 9.43693
330.306 69.2879 13.2294
778.766 136.888 29.0632
217.726 21.505 3.02932
233.054 49.4043 7.63898
324.895 84.4394 16.1171
308.135 50.6442 11.9875
217.918 64.8486 9.92946
150.345 50.9629 11.4333
206.297 44.9573 9.71414
148.663 11.3264 1.07043
132.019 13.9104 2.02578
263.992 29.5322 4.78992
421.54 59.5928 15.2764
371.661 71.7936 10.8922
158.563 52.6423 9.54669
124.224 13.3467 2.68491
38.937 22.3039 5.67602
744.725 113.696 17.4285
648.704 171.802 36.6251
204.707 29.863 7.29735
254.871 29.3936 4.31065
1109.4 215.951 45.9832
61.8665 24.8871 8.08704
319.661 70.8846 11.0715
536.233 154.976 32.6884
62.8506 23.9323 5.24732
112.78 59.5541 15.2048
110.436 25.2762 7.89595
143.515 25.7775 5.74315
469.657 60.6068 13.9107
175.159 28.8374 6.77316
301.242 67.2978 15.4433
91.3349 15.845 6.4111
629.735 146.615 29.5983
197.744 53.4166 10.0915
211.865 74.3346 19.0738
25.7545 25.94 6.99304
336.967 89.8445 21.929
33.883 7.59683 2.69869
152.318 84.0238 25.4234
265.706 38.6937 9.64321
257.334 30.6812 7.00361
400.258 95.7481 25.99
338.858 99.6239 23.3405
337.92 53.5495 13.2324
207.053 46.5707 15.7609
53.2821 4.79475 2.15939
211.759 33.9483 7.62428
333.733 62.3485 14.4598
316.913 82.3341 19.7649
41.297 13.9016 4.36297
50.9759 13.8242 2.37537
112.295 64.3661 20.0185
205.82 61.6748 14.1803
481.589 123.258 32.5108
84.8891 26.1272 9.14725
344.354 60.296 16.8667
120.434 44.1303 13.2485
225.475 36.3155 9.63709
159.007 45.2925 16.4738
92.3519 36.9665 8.98675
133.535 27.5756 9.27299
80.6635 26.9261 8.43549
109.343 25.6309 10.6821
111.603 31.246 11.2814
281.669 118.328 33.5641
166.511 38.278 13.4106
192.407 25.2152 7.74935
202.915 72.7651 25.159
70.9968 11.4311 2.6822
143.028 37.0507 9.12
139.386 53.8214 21.7001
385.787 111.522 31.9385
69.1482 24.7874 5.52665
131.304 32.0877 7.99501
198.164 79.5134 26.994
256.319 91.7908 30.7186
88.2712 22.2364 7.96428
132.196 85.5727 29.9427
252.061 70.9047 17.6431
453.04 174.7 63.3159
310.488 99.2096 36.2541
102.542 16.068 8.94987
251.992 85.3812 28.4335
138.559 46.9176 14.3946
44.4657 19.7208 8.69799
256.887 54.4934 17.5067
54.3073 16.0661 4.82662
26.0462 17.9339 6.28533
9.36086 6.19567 3.08796
34.3423 3.33737 2.00384
89.2157 35.8845 13.5315
50.0059 46.8853 19.483
132.543 20.0407 7.25678
126.398 27.0949 7.15834
149.352 53.6151 22.408
59.5415 7.41001 2.17009
58.0449 43.4491 15.6942
120.746 43.9969 17.3729
83.8286 19.7907 9.50313
289.444 78.0691 31.5027
261.341 72.6604 29.4494
128.306 59.1223 25.825
73.446 47.5067 22.212
104.535 18.7126 3.11678
89.6742 24.6611 6.77205
132.059 80.6374 33.9585
110.748 46.7459 18.5527
137.705 87.1063 40.9417
66.0422 5.44866 3.46406
81.6484 72.5291 42.5524
472.206 117.65 38.8111
222.4 79.9058 34.2147
60.3023 8.6955 4.00322
371.191 151.25 53.3771
231.383 111.464 55.1147
84.3924 41.8489 28.8984
32.7432 14.9361 11.3413
61.2788 15.3517 14.3706
113.919 38.6424 14.2042
249.976 65.9858 26.9363
150.158 38.404 19.7038
66.8886 34.8554 15.0119
114.869 32.2105 15.3276
22.495 3.10647 1.08961
134.911 49.0208 14.7593
74.7885 49.6311 20.6562
126.053 32.8421 14.2771
137.28 57.478 24.1738
273.999 109.596 54.9773
111.026 46.9773 14.6718
65.3583 26.2518 15.2454
74.5951 37.1942 17.3265
93.2596 26.5741 19.4156
113.733 53.3361 19.2205
85.0317 41.1575 16.375
54.8603 15.662 3.66925
276.93 159.378 73.8735
67.8061 73.8269 39.4607
166.865 80.9516 44.2191
133.904 32.2746 13.885
55.5487 10.1801 5.36906
17.6811 2.26187 1.10798
104.208 78.7818 43.3347
72.5249 45.1005 20.4091
158.583 67.7664 38.9966
36.5215 16.4726 4.70343
70.8343 47.9061 29.1974
131.632 50.9295 22.298
26.0045 14.6878 11.9567
6.43699 22.3364 15.7296
67.4994 32.3863 21.0431
158.711 51.3212 19.6536
17.1829 37.0375 24.8733
169.345 46.6313 20.0685
56.0975 31.7036 24.7266
168.27 89.7929 44.1492
52.8829 33.0723 11.0244
75.0664 60.0152 28.9154
26.6242 19.3619 11.0684
87.5342 63.9591 43.6494
52.1511 61.1806 42.716
248.93 93.5187 44.5223
55.8048 38.8806 19.5373
16.277 34.4069 29.2046
133.284 74.3499 49.3042
148.47 79.9903 48.4449
83.1979 12.0881 5.15224
119.62 34.0309 15.4334
158.859 75.5091 57.3893
192.874 90.0937 48.7109
61.4252 15.9999 6.73682
71.9092 60.0586 37.0979
190.454 100.971 46.2821
54.9845 44.2321 35.7264
27.8742 8.69937 7.40239
62.8908 29.2291 13.75
37.3655 6.3556 3.2817
7.46648 7.3294 4.16394
26.0144 24.4497 17.0572
110.271 90.5075 59.3482
65.0616 9.12404 4.32394
109.752 52.4081 40.8011
194.731 87.7759 50.2152
102.557 45.4154 26.713
20.4231 14.9007 5.98358
80.2438 46.1834 31.3419
87.8239 50.3303 28.2915
10.2671 12.467 11.0245
123.23 44.2539 25.2323
60.1761 30.1888 26.3851
66.7221 30.0159 18.6822
49.6657 38.1884 28.0802
46.6242 49.0066 27.8329
57.6851 31.9839 27.8454
73.1091 46.2809 27.8894
92.6119 85.1014 57.3399
34.35 13.229 12.2546
26.0399 16.4511 15.1395
32.662 44.1579 44.3222
93.1412 30.0211 10.8708
61.7611 48.7531 40.3328
114.251 47.6313 22.6218
93.0071 30.7543 18.0302
16.804 43.178 40.0275
125.977 45.4136 26.1029
47.5603 31.3614 28.043
90.1453 52.9987 29.3982
110.352 48.43 35.238
80.3824 66.3038 44.016
59.2908 7.17665 1.93012
124.139 99.3091 78.3802
46.6675 6.12809 9.53255
248.271 115.171 68.0753
92.0712 41.987 33.0716
82.4569 43.7872 24.2169
20.2191 8.83251 7.91759
62.4619 29.9216 25.6432
77.3971 45.2557 33.3681
58.4467 48.2351 44.6508
16.5166 4.72686 9.32063
71.8085 85.9952 63.4643
141.529 58.9938 34.1501
44.6182 22.6173 19.9819
41.3493 20.941 17.6817
78.8405 52.6806 44.6966
51.9786 53.1268 31.4979
54.1886 35.1878 35.3779
81.8382 53.2002 35.5808
50.9409 92.708 95.4615
134.372 58.7854 25.9629
110.824 66.4724 49.1416
26.3752 17.1821 22.0085
67.6017 24.9143 17.7167
8.98773 10.0766 7.84979
21.6318 17.7875 11.1926
40.215 25.1749 15.1225
49.3843 31.1646 29.4276
13.7407 2.64977 5.77371
27.6925 20.8952 17.7157
54.6372 36.811 19.6061
42.5899 44.6762 40.635
20.4073 8.94331 10.6607
124.839 98.3026 90.6617
58.0737 70.896 63.9146
19.9265 2.22688 13.8867
122.94 64.6303 42.2506
3.35074 7.40186 19.0047
135.554 77.3242 43.021
59.5545 29.1801 23.8981
22.5218 12.4929 18.7325
32.8266 27.1239 21.754
17.049 10.0868 7.19498
1.66408 6.35728 7.22866
15.2743 11.9848 8.81154
41.3868 61.4884 47.6654
13.6758 29.6838 39.6633
81.9755 40.4526 22.717
24.843 9.02587 7.08697
54.4251 42.9705 35.7953
7.36879 36.0154 49.5948
44.4985 6.89291 4.38131
38.3436 27.0572 28.7474
77.8173 39.9818 37.3438
39.3243 44.013 33.6069
19.9566 0.754571 2.63154
52.5051 16.5396 11.304
25.2547 15.3173 13.3332
21.2899 17.3055 30.097
47.3095 32.1018 16.284
31.8858 47.4551 47.183
8.76087 13.7371 27.6663
71.6915 30.1514 21.3516
31.4943 9.73512 5.36156
20.058 23.6503 22.7888
41.7615 16.7025 17.3786
54.1125 28.1465 29.0479
122.251 93.9294 82.8303
22.7965 31.128 51.1326
19.2963 11.9486 21.2696
79.6456 53.4315 27.8452
23.5757 7.40381 3.21365
12.4501 6.80933 7.53894
95.7255 80.1079 67.781
69.9564 44.1168 44.3629
68.1753 51.7634 50.627
13.4534 23.2271 24.74
37.1545 15.7242 16.4613
37.8 31.3659 53.2247
16.5551 24.2439 15.1856
13.4701 15.7732 25.3873
44.8463 22.4306 9.54509
19.7552 16.0185 23.2235
45.749 27.7594 18.2957
1.90053 14.1337 20.6001
79.4537 48.1405 37.2675
2.19755 2.03389 2.02615
52.4093 99.3935 107.017
29.4896 7.62582 9.42209
31.7498 15.1447 15.9618
16.3189 15.3512 22.2889
17.3358 20.6415 41.392
51.4642 18.9646 15.0408
32.215 12.4578 5.19175
61.2354 40.2402 34.289
16.6381 21.5522 17.4662
42.0519 45.4526 51.0758
30.206 30.6955 34.7159
23.5951 4.54599 10.3155
36.9329 13.1826 2.67279
47.0086 47.5771 50.4522
58.0366 33.3012 28.5419
14.3111 23.3155 27.3952
96.4374 91.4803 109.628
37.2732 80.4649 91.7647
50.5448 29.5827 31.8178
30.4536 16.5648 18.5443
5.53995 20.8072 21.5127
40.9034 32.1157 44.7851
17.6878 5.71389 10.2523
81.9432 109.69 109.417
24.9434 5.20823 4.35749
45.0343 54.425 52.0333
14.3655 18.1891 35.0341
19.4176 20.2868 23.4305
39.663 37.3368 27.3664
78.9581 71.8952 80.8027
24.0203 38.6481 38.6435
25.6755 14.6643 12.0912
69.5601 83.5712 80.2125
13.3332 59.0364 94.2875
36.6278 40.9011 39.7606
11.9746 11.2335 21.5634
67.9576 58.3759 67.2502
61.6132 51.4573 84.4841
26.2109 26.977 15.6511
3.35408 5.36452 15.3747
42.8308 33.3448 27.1402
49.8872 48.2491 57.6213
14.8319 29.8646 33.5067
41.3943 33.3352 22.0186
25.3799 39.6271 62.2472
35.7067 47.8364 48.5379
55.5462 59.3293 75.3954
37.8797 33.2979 42.0178
39.9528 43.357 42.1851
19.252 11.2573 18.9802
13.5888 26.6847 30.2134
23.1068 16.1931 20.1502
12.9506 7.26975 14.6258
3.62706 17.1133 48.9247
57.1712 25.9854 23.347
53.9717 23.9611 17.4495
35.8903 29.0478 25.0036
32.7421 50.7881 70.1858
42.602 23.4618 31.6824
15.8518 30.277 28.6721
24.8368 14.7928 23.7324
17.9169 8.65256 12.6687
23.525 34.8473 46.8094
13.1409 35.7945 39.114
19.0363 9.57322 14.0767
2.69402 9.90387 9.39077
4.04866 25.5565 50.7487
45.7879 14.1228 8.99483
24.4497 13.4609 14.5963
12.5931 3.63022 6.16696
4.35351 14.0231 37.7442
59.0816 43.9957 42.0875
2.20884 7.25505 9.34998
18.1568 25.8517 29.2553
21.8844 14.4309 18.761
23.6589 24.7981 42.0201
23.5932 56.5008 79.437
42.9435 53.9953 60.4693
7.14311 28.8902 52.6384
26.2129 11.6619 18.8816
53.5624 43.3078 51.5206
23.8654 14.2527 13.4346
10.5044 5.6674 6.94187
14.7047 17.1634 23.7661
7.51595 39.8976 76.0317
48.9875 34.6153 51.0297
79.3908 82.8892 99.9709
41.0836 28.2829 20.4489
18.3333 22.8785 49.6847
23.6851 31.2981 31.3228
6.68269 12.9149 39.9406
85.8235 80.7649 94.8948
23.897 37.4673 56.1465
28.1806 33.7929 44.436
14.8657 30.4937 46.824
16.4666 11.2935 29.1216
34.1122 40.7142 35.5196
11.1767 7.51334 21.2571
13.7549 31.3201 40.5139
30.2325 30.5165 46.8837
8.63312 9.56333 17.289
19.0104 4.61218 1.09117
9.03753 3.16994 6.60562
48.8792 46.6902 54.8857
9.11005 22.3719 33.6851
22.4531 33.9583 42.1133
7.26652 9.43556 20.949
33.3214 35.5906 42.6679
32.495 27.3262 40.072
1.09935 5.99178 17.4807
48.851 63.9099 81.8911
25.1875 45.7786 65.8714
1.89156 10.3306 29.8792
13.8684 2.79218 16.3528
33.3932 20.4574 24.5296
40.983 42.5386 65.2818
2.12645 3.43946 15.118
17.4744 24.1854 33.5427
14.9298 27.6068 26.3328
7.08006 22.4078 61.1349
46.9025 25.0858 15.6509
35.659 61.6896 78.9439
26.1376 25.7396 43.2557
14.3349 12.8102 23.9512
6.70949 26.6581 51.3747
18.1687 21.2864 30.9725
20.6838 3.92455 2.77764
16.5431 14.343 14.258
2.4927 14.4291 27.6752
31.4926 44.1998 74.7271
12.1209 5.84462 25.3346
37.8576 32.8924 40.6316
14.3062 7.46795 20.124
18.2831 22.5557 53.5475
43.5358 46.0377 81.2846
32.5805 53.1934 42.5834
8.63907 38.7804 71.8401
28.1677 20.9123 48.7865
23.8694 69.7596 119.823
31.2769 13.3381 23.56
48.1455 50.3439 69.0246
11.9321 4.2676 12.2357
17.8337 32.3037 60.6875
40.5429 17.1711 12.0165
16.2286 9.98692 12.4548
29.4938 37.1611 38.1901
21.7287 41.722 96.7232
23.1097 34.6246 72.3767
14.9433 11.1745 28.8217
37.0956 24.8494 21.6338
4.4562 5.87601 5.49437
5.99385 8.5195 21.0858
21.6309 28.4217 59.8202
17.7475 18.281 20.9316
13.2792 7.69738 29.8332
43.6429 64.9624 89.9175
18.848 29.3481 57.3195
36.9856 32.3077 44.5782
32.0781 28.3667 59.047
18.7466 20.4026 20.653
7.63729 8.23727 14.7604
33.263 35.3193 53.8255
12.9813 4.37561 20.2945
26.5936 16.3117 15.1279
24.9467 37.8697 43.9462
19.1922 24.2868 50.1843
15.5171 23.8687 30.7193
5.8238 4.60341 14.7612
24.8181 21.6331 40.2183
11.9317 8.17658 6.09145
4.43051 5.56576 27.199
28.9686 32.2444 26.2907
9.46861 13.1778 24.4291
5.21234 8.05812 20.8257
14.0509 9.35274 9.44908
3.77318 6.29485 16.3659
24.4426 25.6599 34.0952
10.11 12.0599 30.5022
8.25786 11.0489 21.4346
6.96052 14.4203 19.0142
14.09 12.2367 35.1232
11.189 20.8785 28.2661
8.95434 20.1948 37.648
24.0149 21.6182 26.5679
6.69274 19.1363 60.5534
24.2909 37.234 70.3841
29.4282 24.2871 30.6826
12.5669 7.58359 20.9545
22.3816 42.2413 110.657
33.5377 53.7055 91.4001
32.4923 13.3444 11.6748
6.91737 10.0607 23.8234
28.7295 11.2864 5.86611
33.5472 36.9041 47.1925
7.33264 19.9746 43.5571
10.1899 8.46002 27.0886
5.73556 13.5892 31.1377
19.9039 24 33.7144
15.6928 7.83795 19.7576
11.7955 9.86486 6.06641
16.7884 29.7377 57.1026
11.5955 4.60022 18.3407
20.8738 8.33957 7.32134
24.7459 15.928 13.112
4.79461 3.67257 16.9189
37.7574 34.7159 40.9849
14.0952 24.9615 74.9102
36.1982 49.9011 47.7356
26.4841 60.7361 90.0567
8.09385 40.8204 151.937
41.9571 24.8754 26.4422
27.2052 34.8625 65.0488
3.12094 13.2322 76.9426
37.047 52.2173 53.0813
11.9609 26.1557 37.6681
3.60555 5.36445 9.48023
7.90464 16.5543 69.6097
47.7603 53.2525 47.3013
13.6456 37.3557 119.18
18.0221 25.2661 25.1497
10.9355 4.47778 6.64859
6.3948 6.4025 9.05284
4.57238 2.14546 8.06694
2.65421 1.28627 8.32509
23.5497 26.2552 52.4964
8.30484 31.0662 75.903
24.1648 31.2601 54.0113
12.0686 10.3463 16.8975
7.44394 7.6848 21.8307
28.302 37.4477 83.2924
11.5835 19.9138 18.5945
14.3193 45.9672 86.896
4.70349 39.9827 94.5018
12.7704 2.19614 30.2129
19.5677 13.4854 31.211
19.6369 24.8575 23.5137
3.36957 17.3047 33.2125
19.2297 14.1798 21.0736
16.5472 12.1882 13.6315
13.7509 22.8967 32.2584
6.79056 11.7269 24.1004
10.7761 19.4295 50.1002
2.4617 15.0407 101.989
27.314 56.5867 86.922
12.078 6.71193 3.10484
14.2367 43.8018 66.4835
2.12695 19.6913 74.5047
32.6627 16.5493 12.8462
13.8612 14.8812 19.5825
3.45219 7.56986 20.4273
15.7646 17.2884 32.8754
3.94599 15.5747 34.6379
5.59858 22.3321 58.541
20.4915 20.6834 25.8282
6.04372 7.11094 12.9727
16.1708 20.6423 53.4059
3.98578 17.2755 38.3943
20.107 24.5667 67.4546
8.13126 8.21619 32.7758
15.8694 12.4811 23.43
9.2453 21.9838 21.5229
7.80787 7.41194 19.1381
7.8312 12.1334 28.4885
8.92278 11.4582 32.7871
4.24908 7.24737 18.7054
2.78079 2.81463 8.18414
2.33312 3.13149 27.5618
5.06472 27.216 74.5851
22.2165 39.4177 88.0771
6.73313 6.50005 18.7458
11.9511 43.4005 53.3986
12.5014 32.1952 88.7537
13.2127 21.9677 13.3837
5.60057 19.9551 26.7347
3.32783 8.67191 32.5197
11.246 38.548 92.4489
23.4801 29.4651 62.7241
10.309 5.29846 24.028
26.0012 21.4059 26.5533
10.1986 17.4933 66.1817
15.6185 35.0291 47.3123
5.81509 6.51506 16.9253
5.79418 11.9496 37.086
9.18617 5.24543 6.04585
4.21559 13.2812 26.9044
5.79791 8.70483 17.2076
8.6096 6.32841 19.8165
9.73134 48.3312 107.419
12.8421 28.1108 68.9787
16.0094 5.45604 6.86019
2.17942 5.68208 42.9254
22.9299 30.6484 43.1597
8.42439 9.82219 34.6473
10.1327 12.0703 18.9306
15.9438 19.0651 54.5568
14.0701 19.1384 22.1359
3.35983 18.9537 56.5467
13.3219 11.4993 26.9084
6.68046 16.4381 19.3289
11.4465 28.7872 91.5943
16.3238 17.5721 33.4134
13.4622 12.9636 22.3681
13.502 20.0092 51.5596
6.3717 8.64645 8.62717
4.82421 2.33932 5.06012
5.16784 7.95121 35.9371
7.2854 15.1621 26.1622
10.9176 8.51908 23.2124
0.884836 5.16746 13.313
13.3829 13.8223 40.8259
4.36544 13.9451 67.6869
14.0756 24.4093 39.1503
13.8428 28.5604 48.3555
6.50241 14.3133 39.7732
5.57034 18.0561 28.1155
10.7671 21.6917 42.8631
8.83924 11.1921 54.2027
7.19433 24.9106 30.0994
6.04119 3.56635 11.5199
0.544149 5.47869 11.0507
4.57461 12.8111 24.9615
9.47245 7.14653 18.3714
5.19195 16.0892 23.1306
1.24368 13.4718 62.6558
29.5143 39.8297 64.6119
2.40796 5.04564 30.0263
4.90199 28.7298 66.1633
7.59911 19.7719 48.563
10.0501 2.87747 20.9055
13.0196 17.8327 25.2797
2.26482 19.0341 52.307
7.55789 6.98322 31.7987
12.2983 21.9073 22.8166
2.48264 10.5209 27.3005
4.96658 6.29539 13.4501
5.52974 15.4247 61.0916
11.619 11.7549 30.5755
10.0364 5.66908 26.9402
10.21 8.51962 49.1087
24.93 27.8682 36.7431
9.11686 4.55455 33.0322
18.9656 18.3948 8.07498
8.11472 10.1653 16.2987
4.23829 4.72139 17.6984
15.4118 44.862 109.282
3.21357 10.1958 18.3073
6.39124 2.92352 8.57896
3.62455 14.9792 67.9765
10.2862 33.1381 41.4492
4.92771 18.2215 64.6711
15.071 85.6783 248.865
30.128 27.1302 69.8643
18.1704 15.4904 43.0359
20.8124 15.9356 22.4161
7.77726 14.956 43.9501
14.2457 15.5454 19.2772
1.07144 2.86322 6.66105
2.86553 19.7533 107.518
20.8112 27.743 70.2364
27.0828 27.196 39.2628
14.001 7.27135 9.68616
20.5842 44.9024 114.58
25.8112 47.7325 119.838
2.92676 5.7682 17.6236
11.6471 17.4841 32.5876
7.10625 10.4166 42.0874
10.4939 13.8163 26.3617
5.75906 5.4475 13.0666
6.78692 15.2871 55.9481
2.1636 8.781 7.4545
3.33073 6.47093 26.255
4.46019 6.10413 8.5524
4.0052 8.7289 17.9117
7.22111 5.70031 17.4484
6.35445 3.89267 12.603
9.45293 7.00569 47.537
33.0529 67.0897 124.214
2.29434 7.55429 14.9136
6.78016 37.0951 130.9
16.3649 14.8418 22.1181
2.84166 11.5212 77.1177
10.0811 13.7405 35.97
8.62534 17.5131 22.6994
6.27485 15.6263 106.541
11.7912 37.3485 54.3864
1.70055 10.3723 19.7989
3.73339 45.8936 111.155
13.1385 11.495 43.6261
9.39834 3.73092 22.4741
12.7114 24.1303 62.9474
6.95379 11.1626 28.54
2.17588 21.7944 30.812
6.52936 21.8551 46.7171
5.59077 7.80175 40.6586
16.3156 37.8146 111.678
11.8817 4.57698 41.5701
12.0742 37.9342 53.1827
3.14192 23.2803 63.4054
15.0607 20.5396 38.9565
8.20412 3.31639 3.03449
4.40809 13.5601 46.9234
11.6157 27.4083 54.0079
3.22131 16.126 42.533
3.15073 3.58323 20.6824
6.29299 26.5549 72.1991
10.6587 11.2419 42.8531
13.0584 15.2599 53.9766
6.6052 8.54167 25.7878
9.03541 2.41355 11.305
9.35625 8.72558 16.4785
3.94982 8.30814 27.7152
6.21044 9.80301 17.8298
3.73825 13.872 56.9941
11.6716 10.0852 36.1513
11.3154 4.63089 19.3784
8.68707 16.2436 42.7195
10.3036 4.80295 30.9984
12.3326 14.6087 33.1825
11.3514 10.9374 11.9129
5.85357 4.3741 36.8655
16.8998 40.3076 79.4779
2.48844 10.9629 29.1148
6.37793 4.47919 41.6253
24.476 37.3196 88.1571
5.01364 21.4806 54.6793
13.5356 16.3275 33.9344
2.87715 12.3262 31.3367
11.7613 24.2164 109.323
19.33 26.8852 25.7932
2.6469 7.47899 40.6509
5.41276 1.13809 6.34262
5.76259 3.36928 21.7272
12.0753 14.9614 16.7762
8.84239 14.8095 22.4315
3.40826 17.3838 133.199
9.38497 36.3807 41.0416
8.37915 29.0543 63.8618
6.30017 7.02577 23.9718
3.20383 3.78383 17.3755
2.9913 13.0176 103.625
19.9586 23.9373 19.054
3.80128 2.31718 2.56166
4.54478 6.32486 11.2212
3.9103 8.94277 53.7661
13.8084 14.7561 33.6126
8.61841 7.3738 9.99676
5.30271 5.85709 39.7843
7.44184 15.8429 30.0862
9.41704 18.0764 94.303
8.04676 18.4771 37.3911
7.07699 10.9152 74.793
24.2822 17.4277 21.1667
17.0852 39.0409 97.1839
20.0109 58.2613 123.96
6.57809 3.89631 10.4146
6.05646 4.41412 1.09085
5.67743 7.55417 13.0906
6.35838 25.9017 92.5432
5.95093 23.5341 62.618
13.0807 21.8791 62.612
5.48104 7.19626 20.5909
0.590959 2.34168 14.1019
6.47812 14.0473 30.1345
1.95005 10.329 39.1795
7.50002 3.06833 25.9943
5.51179 8.65919 9.317
1.86203 2.03679 15.6594
6.90243 22.8903 65.9841
6.91731 5.64559 11.3631
0.730482 7.96523 29.189
3.94741 15.4311 37.2957
6.05958 7.43825 33.0608
9.44265 12.3135 41.1921
8.23257 10.8098 18.1698
6.25594 5.323 15.0036
1.40475 5.09416 49.4232
6.79789 15.5429 23.5123
5.87343 6.94826 22.2955
7.5633 4.5106 1.90169
5.2005 19.315 94.6164
14.294 10.3942 11.9699
9.40145 15.046 29.621
14.4634 32.0629 100.608
11.9817 30.4562 40.2905
2.97019 15.4296 95.0563
10.73 21.0563 49.1718
8.67707 46.7205 134.163
4.37781 5.35029 45.5395
5.31352 7.62317 26.348
2.22745 7.36003 35.4647
2.06081 8.87268 28.7447
5.53213 10.8662 17.2896
6.1727 6.16133 17.508
5.32861 11.2583 37.7986
2.71502 18.8053 58.9695
9.22835 31.2367 77.9938
6.29758 24.8305 104.154
10.1315 31.2877 73.4416
12.1275 6.0044 11.6841
2.75113 4.16857 14.1977
4.1176 7.13324 48.8471
11.3915 5.93471 19.9727
8.29759 5.51792 17.464
4.28216 12.0549 36.6683
8.24593 16.7504 75.9434
9.90554 9.19069 27.1207
5.14052 19.8843 46.4933
7.73407 7.38553 39.7133
11.7341 10.2344 39.3086
10.9123 33.0941 44.127
5.15911 18.0342 76.4391
9.086 9.16064 42.0705
7.43593 20.4628 67.9064
3.06462 14.491 97.4874
7.1165 15.8279 0.227096
1.12796 17.7419 23.022
2.76955 14.7892 52.8089
5.41464 5.97621 22.697
5.64572 6.96862 29.5153
8.40374 13.6382 54.3145
10.3529 12.9071 19.2008
2.89134 11.0129 75.5026
9.10215 12.9845 70.0961
9.43217 29.0919 72.2127
15.7907 17.537 38.6666
6.34737 18.4284 51.8783
8.99172 4.77432 2.35267
2.5228 8.50643 69.6956
10.4006 25.9392 65.0844
8.55879 10.0162 14.6736
1.74656 30.0922 87.057
14.8276 15.2421 20.7236
1.67552 13.0528 69.9627
12.9493 26.0709 88.8761
7.04552 2.95441 44.185
9.08041 6.41037 58.8654
16.9257 18.7993 25.9699
3.91956 1.48839 16.1953
8.41897 9.84095 28.5257
4.60386 4.86033 16.3857
7.75394 13.5434 25.1358
2.58131 2.85117 28.6423
11.5785 16.0792 46.9151
10.1022 12.5209 13.2112
2.99539 0.949612 16.4644
11.5207 33.8581 105.803
4.84725 12.0197 18.5477
7.17394 8.0101 28.8791
0.743807 10.8825 43.2032
9.36293 6.84452 18.2957
9.26296 31.0566 105.858
12.9235 17.0564 18.2303
2.6819 11.2293 40.6386
9.87522 13.4637 41.6131
2.83671 8.24862 25.9307
8.90591 11.2992 25.4155
3.18054 1.46897 2.96107
3.16903 8.143 36.1131
6.51318 3.51821 26.3462
7.16737 4.27917 4.36388
6.43403 17.1185 47.0319
10.9655 21.1133 76.8408
6.56618 13.3853 34.9673
5.75381 23.72 87.2329
7.92765 22.9382 51.2612
2.12041 10.8229 44.0938
4.90257 4.58853 7.08401
3.62952 10.2913 42.8258
9.7352 10.7615 13.249
3.19765 6.40705 63.8379
11.6452 28.7578 57.0632
1.97989 9.74622 14.1248
3.39737 10.904 61.8831
7.11699 33.4926 176.378
9.25994 24.0177 99.4939
10.1683 28.0531 50.3084
10.7406 29.5072 56.1649
3.08284 2.70749 12.7797
0.739335 5.6797 18.5329
6.24411 3.93619 13.2501
3.20238 2.16956 2.2975
4.70621 14.7632 80.9933
9.9116 19.3914 51.8315
3.55235 3.03337 14.1659
3.40766 2.47683 15.1622
10.0059 38.1228 109.735
7.92365 10.2799 42.2942
5.53146 11.8119 32.7477
5.13974 1.96561 5.51408
7.68563 16.4802 43.0005
5.63814 18.0138 102.355
4.26534 9.93521 34.18
8.61282 17.4923 37.7278
0.605554 8.11036 29.5803
4.00748 15.1407 71.8863
6.84612 16.416 35.5129
3.88339 5.26249 28.3197
7.7501 20.3794 102.898
5.40303 29.5068 63.0255
6.59653 6.30848 35.009
2.47221 8.84409 13.4685
4.91077 2.63615 13.4873
3.8523 10.9353 25.8358
1.1703 5.50191 37.941
2.8343 9.05748 45.434
2.86403 5.31737 15.6909
1.79769 5.57623 19.7434
0.953887 22.334 59.5355
6.52142 9.8946 32.1367
5.11281 6.48828 9.96418
0.40375 15.5904 127.215
14.0382 35.7871 58.3719
7.48253 5.50755 18.9209
2.09923 2.92091 47.3657
8.63275 11.1601 6.03815
1.75201 2.66818 16.2238
5.46385 11.727 50.2724
6.00386 12.7612 16.5113
2.13392 1.40758 23.8308
4.42699 8.18975 34.1973
4.51822 3.8449 9.96255
4.34603 24.4762 65.0963
10.9774 13.3724 22.3079
0.423138 4.53426 13.7083
5.3657 25.8844 68.6448
4.85034 8.28226 49.9877
3.20082 4.92054 46.2887
6.92613 11.7725 43.9606
4.74841 21.6208 38.3885
6.32377 13.8235 33.3036
0.979491 27.9759 124.735
12.197 2.17784 74.5
13.1209 15.9895 19.5362
2.67576 11.873 21.4427
5.7988 12.5159 73.5099
14.2814 30.5306 47.9046
3.03567 12.7802 84.5397
1.77909 7.78002 8.05323
2.37548 5.95504 60.3962
10.1052 6.97932 10.7614
7.61754 16.7308 60.7168
4.16853 3.85181 8.07505
2.94316 4.40487 7.1819
4.61871 14.8538 46.4392
1.55039 6.72616 34.961
3.78745 6.93804 22.359
2.30456 1.37144 12.9459
5.3339 13.0407 8.00579
2.22636 16.058 62.6242
0.703732 9.11144 46.1509
3.58741 2.47799 24.4284
0.24702 2.80133 15.0355
1.4296 5.72642 18.4043
3.7721 6.16617 58.0207
2.08095 11.1899 39.6113
2.72482 10.4308 21.0608
2.55035 6.46708 13.7468
4.34186 8.58128 85.1083
7.6516 29.8237 83.6068
5.71897 6.27471 14.6161
5.45414 6.87127 8.60949
1.38067 7.7148 76.411
2.48227 18.5887 28.6286
2.04271 3.37916 25.7367
2.42331 6.60655 46.0253
9.51024 37.3445 123.837
5.69469 7.1457 8.83283
1.46045 8.44696 74.6453
7.86955 2.79522 10.7894
2.07576 4.30963 25.4794
2.76269 11.0333 81.9838
7.81155 5.43083 30.2042
7.16491 20.5169 17.3092
2.58682 11.63 15.892
2.03538 10.8701 29.9619
1.52996 5.53786 23.347
2.22523 3.51375 36.0569
6.81823 20.3354 36.5226
5.49085 7.78322 59.4532
5.67225 17.3738 107.343
7.66733 24.1478 34.1438
7.11369 4.13634 11.1938
5.90693 16.6799 85.4432
8.51176 22.5051 76.07
3.96504 19.8635 72.9143
7.12642 4.42089 6.93638
2.2922 9.38379 4.32344
1.8529 8.79034 27.486
2.35538 1.90656 16.0284
5.91106 8.5547 30.8767
0.870102 11.1463 47.9741
6.28218 22.237 136.009
8.63942 9.51057 21.2553
3.69105 23.0513 41.8211
5.59099 0.509131 5.56274
2.47585 3.41408 11.2902
2.8899 2.95956 18.274
3.21333 2.45567 0.94168
1.61117 8.59089 95.8927
11.949 18.9977 22.9705
5.63223 5.75161 16.5985
6.65145 27.3359 113.476
1.82895 5.97863 10.6518
2.19094 18.5157 55.1534
4.82529 1.16188 21.2183
1.55642 2.16509 24.1654
3.68329 4.56113 34.4396
3.03627 6.54493 9.33007
2.03644 17.8564 16.7046
2.34682 10.0024 84.0145
8.28945 14.7488 59.9823
3.43912 25.2297 87.7251
13.5512 19.3366 71.9465
6.68998 8.12158 6.36015
1.91536 6.55011 26.754
1.64692 2.77895 4.14569
1.20974 1.57899 2.80194
2.30678 3.62582 8.00722
1.45444 3.73376 28.0023
5.9549 4.71141 16.299
3.50494 11.8688 38.1001
0.709387 4.18064 76.381
2.9932 23.5557 67.3113
9.36456 10.5081 64.1031
3.20735 25.7159 39.3886
4.73936 2.01219 17.5143
1.0037 18.2264 63.1699
4.34675 11.1661 16.337
1.52393 11.6809 62.8918
9.81871 4.13229 5.35169
2.37563 1.95888 16.0332
2.46834 1.89058 38.8555
3.7442 16.5946 37.6887
3.98987 15.4912 74.5695
7.82989 10.3767 27.0157
3.63383 6.43116 11.3929
3.75339 11.9514 91.5954
8.46014 10.0706 22.91
5.82123 5.68713 15.1921
4.55882 10.9582 49.8051
1.24741 7.7553 56.5692
7.83725 19.1141 57.3872
1.80693 6.34206 3.45353
2.0424 0.806132 29.5113
4.01789 14.5216 51.5219
2.22522 7.36925 4.23563
2.57033 5.46732 35.0378
2.25132 11.51 18.839
4.05711 5.58435 56.4816
0.90318 13.1813 10.3819
1.60042 10.3681 18.1843
3.33296 6.69026 13.5004
1.60314 12.7661 80.1042
7.89114 12.9874 46.5248
8.42361 5.96575 28.4342
2.32777 5.63612 11.495
1.61658 4.27401 29.0385
6.42656 3.4626 8.29761
2.23045 2.44372 46.4963
3.31451 11.318 3.74956
1.99007 7.07379 26.6713
5.32123 0.86607 14.9306
4.55801 5.54659 92.2703
10.9346 14.12 4.97653
2.79191 4.7844 5.77176
2.16868 11.8789 30.8426
5.3177 12.1879 42.8715
3.29603 0.356348 39.3652
5.32938 34.2415 86.9801
11.4956 14.1368 35.2048
1.54368 6.92507 54.3064
7.39794 9.4391 43.2525
2.41274 8.99471 60.8501
9.19431 3.58679 14.9928
4.5882 16.2744 34.1893
5.96833 6.08104 11.0557
1.85945 1.50336 32.6349
3.7526 7.03263 2.58262
2.42543 3.88511 7.20588
1.60434 0.78356 16.9412
1.0675 17.5667 39.1312
4.82803 0.913321 28.4038
3.88797 7.04483 44.3316
6.06958 4.23129 12.2133
4.55381 7.73247 44.9882
9.68778 20.6905 56.0244
1.91288 0.677275 13.5963
3.09446 8.69333 22.7766
1.2325 10.4728 50.153
8.31429 3.4044 10.3644
4.85812 14.7404 58.286
5.51535 6.02771 17.1757
2.32043 14.4423 55.8267
2.39065 5.41805 22.1812
1.35633 6.88128 19.9961
2.28165 15.7829 24.4065
4.91162 17.2958 63.9481
8.18488 3.83406 126.551
18.5519 19.8518 43.576
7.22541 13.5515 64.2662
8.96099 34.2117 84.0473
2.30004 7.1 9.20677
1.60821 2.23397 36.1672
6.4585 21.6166 109.51
10.1231 15.6371 19.7694
0.198371 1.36846 4.0095
2.69742 3.38147 25.8465
2.04303 9.88358 53.9724
3.88103 6.91241 1.5395
2.19491 1.42852 4.11935
1.42442 3.75786 42.0069
3.65207 19.4178 55.1331
6.53419 18.7349 142.994
13.7705 14.6821 71.4367
7.41473 27.9859 66.5833
4.13301 18.5435 40.3294
5.4374 21.3173 69.962
5.66078 32.5814 87.8997
2.27162 3.83065 59.3531
4.21307 12.3981 99.4671
8.01836 14.6808 18.1982
5.13282 6.67794 61.746
4.02069 14.0351 58.6788
9.83125 18.3052 13.2978
3.16598 21.4929 66.5979
1.10351 6.29734 46.1261
1.44822 3.51208 12.9397
1.7126 4.99836 24.8493
6.32301 17.5326 111.18
3.42005 6.29276 12.4624
1.33819 10.5672 9.4567
2.3027 2.71252 18.7596
5.39878 1.19984 15.5745
3.52423 9.5953 28.5202
3.35076 12.3282 42.3004
2.89163 0.378948 27.9878
3.13164 15.8566 50.4858
4.91236 8.87899 32.9582
3.63874 21.6279 80.9399
6.51755 6.51356 52.8766
4.46542 21.0602 67.6718
6.34828 7.87606 86.1021
4.9634 19.8631 11.6397
4.03503 6.30432 9.47729
2.2726 10.4097 38.2333
0.176842 9.54844 90.7893
4.8848 8.10769 22.3314
2.43159 6.27501 4.89941
1.90877 7.29169 36.1243
3.55014 5.03538 3.68351
2.49525 0.931619 3.98722
2.78515 1.27756 18.5882
1.56707 2.38643 19.936
0.296059 18.9194 42.1982
7.38872 8.05879 41.053
5.57758 7.65252 40.6532
7.63596 13.3085 29.0895
2.31323 14.532 70.9928
7.59245 5.49779 35.4794
4.37648 5.98403 66.7918
3.66825 35.0199 74.6373
9.29127 9.31015 15.6281
1.16333 3.31687 53.9664
0.374383 11.8449 28.6024
2.55438 9.01066 76.4454
9.73918 12.9669 30.9288
2.07973 21.7159 85.6513
10.8153 8.3727 6.14895
2.01965 2.87254 19.4682
2.60423 2.26106 24.4454
2.2167 9.3836 25.3767
0.941166 6.29475 17.0156
2.1012 9.69538 71.2818
9.6779 7.71759 4.12588
1.08228 4.16878 23.3753
1.13595 11.524 102.614
14.1157 19.6439 23.2889
2.03015 1.45146 7.81444
2.14236 1.8962 5.12054
0.914908 0.658233 11.3862
1.91563 2.1934 9.02645
3.29407 5.45975 36.5075
4.45806 19.8227 38.4631
1.91322 8.49355 42.595
5.69611 11.3902 28.0784
2.22911 4.63417 28.1723
0.0330263 0.498133 9.47604
1.09736 9.76801 51.7519
1.00084 7.47775 30.2572
4.25054 3.96693 47.0366
4.84895 14.8987 94.1493
1.74235 10.3213 2.54246
0.841924 11.716 47.1541
5.89006 2.58537 28.046
3.71259 9.94013 37.406
3.65559 3.7742 10.7434
2.51439 6.26193 39.1465
2.68578 13.427 18.6243
1.64756 1.60353 34.8077
1.50636 7.17775 35.8264
2.22017 5.86538 19.5008
0.794058 18.0165 55.1293
3.62072 11.755 68.3897
7.45723 14.43 16.071
4.69085 2.29185 14.0334
2.09484 11.3894 23.1769
1.85647 12.2234 16.9742
4.90046 6.72213 41.4027
5.97196 5.57712 11.5112
1.8509 4.34997 16.0112
2.33276 3.51097 59.8324
6.91941 9.37593 32.6147
6.82308 11.458 24.185
1.62348 7.33537 24.9705
2.00728 9.25201 85.1423
7.7507 7.47087 60.9155
8.71926 23.9565 30.1821
3.76746 6.17047 41.4633
3.40391 10.5365 31.7268
1.08512 7.10562 12.3265
3.19303 3.68086 15.2463
1.10769 6.45862 34.3998
4.77868 5.50162 21.1716
5.44175 8.60576 31.8874
1.8115 11.1214 21.4601
1.80468 13.1138 31.9294
6.69447 0.75874 2.93276
2.32829 5.58534 47.155
6.58047 13.6699 35.4227
5.51349 0.593181 16.1239
3.94115 9.28292 62.9579
5.36046 1.43097 35.6532
5.25671 10.4 70.2649
6.25884 5.39264 47.1359
5.46638 17.8443 27.5996
3.06066 6.39576 60.8679
9.1773 21.7989 35.7041
1.67425 1.5106 25.3412
0.345571 2.8857 12.1297
1.66989 12.3272 44.1692
4.85169 4.74721 41.5781
7.5284 13.6642 19.9095
1.82519 8.48284 38.1763
3.75577 5.3111 52.8814
2.56878 17.454 23.8427
4.57972 12.2398 7.7965
2.48974 13.4301 91.1787
8.40949 32.0266 102.895
11.7305 1.7831 30.528
5.26871 6.1016 15.6617
0.769493 12.9718 79.4664
12.4278 0 0