# pn-170911/CsIIA-40-USNO-1280-1959.psd
# Power spectrum* (dif=0,1,2) (really just |FT|^2)
# NOTE: only the first half! (symmetric)
# weeks: 1280-1959
# 8 clock-days, 3 excluded
# PSD: 1441
63746.5 5.21653 0.0126992
2.02735e+06 33.357 0.0331712
1.26552e+07 262.645 0.0326431
939700 54.0354 0.0213431
1.34061e+06 78.3801 0.0118172
336694 30.1523 0.023853
291357 38.3552 0.0372974
298973 72.1066 0.045407
82320.3 20.2622 0.0289715
162702 53.1533 0.0449133
73826.1 31.4574 0.0534913
79142.4 43.4173 0.0479526
112214 45.0797 0.0398165
45250.1 37.3652 0.0357439
63603.4 36.5614 0.0629434
73422.2 57.8665 0.0587343
80735 84.0215 0.0898156
49904.6 51.3333 0.0829172
45341.5 56.7734 0.144293
38618.2 34.3114 0.0646517
34698.9 56.6664 0.097439
27799.7 52.2514 0.101335
18246.8 38.7617 0.0716901
18566.2 33.0285 0.108671
36063.9 72.5513 0.280801
22876.7 39.3982 0.115222
14316.6 49.5028 0.191377
8656.76 32.1395 0.134258
10316.7 34.504 0.154917
15800.2 48.6275 0.264851
7636.95 22.9084 0.119824
20397 76.8495 0.384222
9418.41 54.1521 0.26069
8759.78 26.3108 0.198819
17111.2 65.7208 0.29506
5487.46 39.6507 0.266356
9542.6 72.596 0.469296
8218.34 33.7778 0.136971
10054.7 55.4926 0.441464
8161.65 69.5826 0.488258
12961.7 57.5781 0.413439
7018.22 49.7204 0.455134
4413.24 31.7945 0.224071
7017.02 59.3373 0.639452
5422.6 22.4348 0.29708
5472.39 29.5982 0.322674
5969.96 40.5823 0.431732
5562.14 53.7322 0.576774
4871.41 47.7735 0.546067
5574.86 52.3937 0.500467
2553.69 45.0585 0.570903
4194.13 31.7315 0.434631
3134.08 30.4309 0.390438
6716.06 71.0612 0.993398
5390.53 59.9048 0.676827
2974.54 30.3219 0.389153
4714.21 62.9574 0.853311
3892.26 54.2878 0.981033
4669.31 50.912 0.882921
7166.42 86.7073 1.39949
4070.79 63.5887 1.22669
2692.56 50.8607 0.878616
6142.84 85.4491 1.40146
2716.35 40.5135 0.87602
3399.45 48.7608 0.968606
4295.76 65.2769 1.40651
1855.13 36.3273 0.78392
4068.5 58.6672 1.2137
1577.92 18.6293 0.424012
4860 64.7111 1.42357
2541.37 58.327 1.38257
2600.11 39.6179 0.930471
1339.93 53.5924 1.3796
2283.59 45.2663 1.10896
754.047 22.5931 0.664938
1892.29 39.777 0.999358
2665.17 60.3539 1.73362
2079.18 40.991 1.25121
4302.24 69.3519 1.96542
2171.42 44.0292 1.44003
2381.24 73.8101 2.16903
2625.43 60.9848 1.95658
979.783 31.9339 1.01932
1322.27 41.9971 1.39214
1976.38 48.8406 1.68276
1354.13 51.5158 1.79873
1139.34 37.6667 1.38344
1179.84 26.5248 1.00876
2339.08 41.3371 1.5981
1182.13 35.6941 1.44633
3150.08 74.736 2.85734
912.696 35.7479 1.48371
1235.23 31.228 1.33552
1980.55 61.1952 2.63637
949.581 62.5663 2.49775
1725.66 69.0888 3.1847
1596.42 54.5786 2.30322
1823.59 61.4218 2.88725
1632.94 67.5769 2.86342
1082.5 37.4298 1.91886
1249.92 53.445 2.78342
1645.73 49.7824 2.27937
1694.6 75.7671 3.91694
780.757 16.6572 0.720354
2046.98 62.0586 3.28237
836.464 36.4291 1.99462
1256.58 27.7024 1.38767
2348.7 80.219 4.04338
913.281 35.8156 2.00385
779.595 45.4519 2.66758
1383.84 65.7515 4.01546
933.83 28.1139 1.6695
1319.2 69.6532 4.49389
1385.36 72.0558 4.08827
1750.69 69.9314 4.29512
762.442 16.2098 0.941605
1346.68 44.3389 2.73272
884.282 46.4365 3.18846
773.052 50.8071 3.29696
914.949 30.9557 2.326
654.769 37.1554 2.48952
1260.32 56.573 3.77705
803.982 52.9694 4.05393
897.741 27.784 2.09566
686.823 33.8997 2.65163
807.333 55.6154 3.97116
478.673 38.0627 3.03175
787.283 47.7315 3.55373
1552.95 76.1236 6.01061
788.833 38.9512 3.62477
452.052 27.2851 1.8073
699.141 30.7901 2.31008
745.702 30.3426 2.47197
463.476 42.9064 3.56533
557.782 38.496 3.18968
518.469 45.4163 4.03229
1132.38 90.6884 7.76331
393.294 47.2885 4.22155
463.754 41.6101 3.73819
313.769 29.6252 3.00658
1287.46 54.3132 4.61405
679.433 31.2065 3.11957
842.253 47.7719 4.74335
306.799 21.5586 2.27356
564.463 43.3259 4.14714
1097.71 79.3335 7.74075
431.121 19.1496 1.74631
622.539 58.4454 5.92934
626.386 43.7984 5.06324
365.513 35.233 3.3951
452.038 44.9779 4.7189
569.012 45.7333 4.81103
420.883 41.4377 4.57814
341.438 29.2962 3.27246
615.709 58.5833 6.61013
357.246 43.9554 5.20371
559.819 24.6002 2.85726
502.381 32.5726 3.3232
245.341 39.2289 4.77383
451.927 36.8342 4.73136
543.092 59.1879 7.52518
369.638 22.8284 2.68093
611.073 81.8429 10.415
752.006 75.3175 10.1443
374.474 26.2667 3.76645
610.601 71.4571 8.85571
689.594 45.3242 5.69788
662.411 86.6193 10.6463
371.034 33.5081 4.27049
437.477 53.1426 7.42135
741.919 47.3792 5.82633
455.975 41.6818 5.38207
449.68 31.7342 4.81345
486.471 40.1051 5.50326
203.334 25.8945 4.06616
631.81 61.6865 9.27451
442.371 34.927 5.16866
346.45 29.9506 3.93919
251.057 40.4208 5.98147
364.019 28.9405 4.25992
588.076 62.0372 9.58005
406.09 53.2239 7.77198
319.454 34.2338 5.66408
407.79 39.2944 6.24204
304.298 18.7019 2.82402
673.443 83.2664 14.3194
611.955 50.4807 7.44695
236.344 16.6549 3.08395
230.113 37.2561 6.35848
512.895 40.2473 6.2714
381.139 34.9914 5.8961
561.411 65.8345 10.7042
307.741 29.9719 5.14934
168.185 30.9175 5.22903
150.285 34.7573 6.38588
516.722 60.1097 9.9759
293.392 44.7015 8.23232
329.254 38.8469 8.13722
486.595 39.6734 6.73432
211.684 30.3386 5.59866
264.306 19.9979 3.32049
418.743 36.641 6.92916
302.973 61.0284 10.4662
349.302 42.7161 8.42925
376.302 54.1719 10.3761
426.667 66.0678 13.6744
148.208 13.7007 3.08421
231.022 34.0574 6.84169
305.195 20.6565 4.18186
237.839 52.0186 10.1471
353.525 66.3074 13.4196
293.617 51.1808 10.277
254.475 31.6023 7.49387
384.881 47.4281 8.9272
371.827 53.2067 11.3754
95.9345 20.0278 4.70392
197.642 38.24 8.4445
428.458 48.9482 10.5575
220.239 42.0287 9.63907
239.157 33.9435 7.06508
299.828 45.6506 12.1572
113.59 30.4195 6.99555
433.554 53.9557 11.8626
412.68 53.1263 12.273
162.118 41.8183 9.48437
235.249 30.5493 8.36203
342.132 43.8427 9.87952
235.265 40.9052 10.6467
237.321 31.6649 7.67024
198.827 35.2633 9.56899
324.53 60.459 14.1258
183.523 24.2758 6.3819
184.961 32.324 8.04409
264.957 55.8562 15.1357
273.602 35.1944 9.38271
289.121 44.3757 10.7598
210.862 25.7661 6.56075
139.612 38.4362 10.0242
130.908 29.0644 9.09601
280.235 45.3976 11.8617
179.166 20.7078 5.82157
192.632 49.4494 13.1358
147.998 25.1399 6.63305
280.758 44.7182 13.5233
315.136 44.2536 11.6411
179.244 44.0227 12.754
85.0993 17.4078 4.29864
80.6834 16.2186 4.75463
248.638 41.9504 11.6691
206.805 41.924 13.6653
167.487 20.3238 5.63385
153.603 25.4845 6.86287
211.524 49.4349 12.7338
197.699 51.7915 16.2097
143.631 25.3089 7.48244
386.399 73.1478 22.5416
132.442 34.4704 11.0434
350.124 57.4974 17.4325
121.876 21.0328 5.30849
220.041 48.8067 14.0902
152.315 31.2378 10.306
141.226 19.4249 5.95542
195.837 29.8937 9.63698
143.055 36.2917 10.6869
116.1 30.687 11.3152
93.4483 35.37 11.6762
181.99 29.3773 9.88871
181.249 33.3295 11.2139
136.239 30.0645 10.3753
220.618 32.2924 10.0105
175.25 46.6425 17.6731
115.809 29.8982 7.71277
184.412 57.9089 19.3175
123.133 28.9868 10.0633
214.768 39.1422 14.1037
56.9602 31.2653 12.1396
165.474 29.7479 10.6941
151.066 33.4125 11.166
108.411 29.9182 9.2615
169.079 29.2735 11.8581
79.0976 30.2307 11.135
181.127 45.2859 17.1891
153.589 37.8046 15.0083
183.561 44.8489 17.4871
183.678 36.1165 10.9752
164.936 31.9938 11.3173
92.4064 28.1584 8.55271
43.5581 35.4854 15.8518
117.449 16.4043 6.93671
180.648 39.6407 15.2094
149.786 31.4023 12.2854
168.382 39.3647 14.353
117.962 18.5826 6.97418
59.1991 31.9426 12.9494
163.699 28.0007 11.347
217.751 63.0226 26.4178
213.954 48.0712 16.863
117.671 24.7086 10.1487
120.649 21.1695 9.23707
210.582 63.2611 28.1773
144.28 35.3298 11.6732
222.116 47.1168 17.6868
151.176 61.3697 29.7103
124.944 28.25 12.6403
290.569 64.8462 23.3452
124.76 31.4546 14.3301
134.069 30.2489 13.5304
259.144 80.2054 33.8509
39.9893 22.7566 10.6891
43.7924 29.4742 13.1736
99.2144 42.0834 19.5223
73.7528 9.87844 6.35216
137.271 28.4405 12.5437
89.5361 33.4834 13.0474
135.395 27.7892 12.9852
79 32.3006 13.9598
180.508 52.1759 23.6359
163.269 44.3546 21.2177
112.285 35.8426 14.9685
77.0817 23.5655 12.4515
81.7234 21.0226 9.56125
148.494 40.493 16.9468
75.1788 30.3563 16.711
95.79 42.0686 20.1496
58.5998 14.7331 7.0125
91.8194 17.0111 8.54634
89.8881 24.135 10.4794
87.9935 23.469 11.694
165.027 46.7291 21.6163
179.243 57.2601 29.9465
79.5763 25.7942 15.1232
60.3189 18.6302 7.49695
60.2594 25.4244 12.9312
146.916 41.3397 19.1005
162.664 74.8282 38.0986
96.1239 28.4448 13.3844
108.57 37.3961 20.5375
55.0808 13.6507 7.67661
68.4896 29.0957 16.2641
108.004 20.7557 9.18018
79.0053 26.864 16.0993
89.2595 20.3137 9.81516
124.509 30.7216 16.5896
83.325 16.1275 8.49146
94.1854 31.5614 15.4381
79.6281 27.9608 15.4232
59.4464 19.7989 9.90019
93.39 30.7749 16.9574
71.2641 17.5797 8.13718
110.763 38.066 18.8081
66.5739 27.3452 16.3319
71.9803 27.8996 16.9162
55.9103 25.1942 13.9519
74.9661 26.24 15.8391
49.9328 12.5642 6.68706
87.6995 21.8306 12.4968
73.9266 19.9305 11.8721
57.5919 26.0237 12.2369
83.2438 26.7841 16.8302
52.6262 21.2672 13.1458
97.3693 53.1428 29.2992
51.6942 22.8383 13.0702
122.86 35.5786 21.9711
68.7651 38.3363 21.5838
85.1269 36.7124 18.2245
61.3408 47.3938 29.7985
57.7766 24.3275 12.6668
58.653 34.1991 21.8296
80.0674 31.6499 18.9085
63.7092 33.7721 21.4893
102.715 29.6544 18.6996
98.8308 41.5105 23.2567
64.1395 18.4435 10.1033
94.8689 52.5348 31.3402
93.526 38.8138 26.6588
39.9845 9.61211 8.64491
67.2048 22.3071 13.0005
51.8346 14.4989 8.43851
83.0479 40.2485 25.5459
44.4479 12.6662 10.9974
32.3983 11.4055 7.39658
53.7378 26.4153 19.0209
91.0034 25.093 15.0941
39.8763 18.4787 9.77638
71.1558 34.145 23.1509
62.7383 17.1543 10.7342
65.048 24.0611 19.8615
76.7024 32.8853 20.9747
52.7012 31.2216 24.1501
59.4717 14.9668 7.64549
103.694 33.9099 19.9682
40.4082 20.0964 14.3926
56.3461 16.5935 11.6225
67.61 25.6607 18.0873
52.3335 24.6011 15.145
60.4141 28.1908 18.4919
79.9056 28.3951 20.5621
66.1836 35.7142 28.7213
39.849 25.0134 15.6759
32.8508 18.1375 14.202
53.0787 25.0414 14.4123
24.4609 20.8414 16.0458
30.0241 15.0796 13.1405
48.088 21.482 14.4094
65.4244 22.028 17.5173
69.4701 27.7294 17.1951
58.0189 25.2681 21.8041
71.6402 39.8422 33.3967
34.7432 20.9682 14.2408
57.1895 21.186 12.4799
74.093 46.0589 35.7714
69.3274 34.6138 24.0007
45.8896 22.7423 20.3993
34.5651 22.5293 17.0443
76.855 27.2273 20.4804
41.5213 15.0564 14.9797
100.878 59.2813 40.5302
52.7771 19.9816 17.2529
40.6814 30.58 22.6393
68.9319 38.7632 29.2947
60.5377 25.0777 16.2283
51.668 23.7739 20.1944
50.9571 18.4182 14.795
52.3554 31.9676 25.0746
34.8579 15.09 13.7122
52.6239 32.8454 36.8908
61.3092 35.6705 22.6071
78.5225 42.9099 30.1971
52.0277 22.9692 20.4533
60.0904 33.3 27.4462
52.2543 24.7544 15.3877
82.1204 48.3989 40.308
38.7041 14.352 16.6119
76.4238 35.487 28.3369
42.7881 23.3485 18.6324
65.6139 35.5795 29.2914
37.1004 20.9626 21.7301
52.7424 28.847 19.275
20.0175 17.8528 13.866
21.3063 17.382 15.9954
42.4793 31.1977 28.8963
54.1278 33.4606 36.1696
36.8055 22.4165 21.7986
70.9017 47.0903 33.5029
41.9048 18.7884 16.3676
50.1684 27.5741 19.7593
56.8557 20.6172 18.6381
55.98 20.9654 16.6188
32.6339 16.1043 13.4667
58.5641 24.2901 20.6556
30.3507 23.7066 20.4319
31.2925 13.1696 9.70109
27.0203 17.2602 15.9221
55.842 25.8424 20.8653
53.4491 35.9982 40.436
30.6235 20.9313 22.5434
76.5737 34.6343 28.2116
76.8719 36.4748 29.2295
34.2377 18.6508 19.6541
49.4585 30.0016 30.9854
52.2137 34.4526 29.153
60.9401 32.2737 25.0892
22.5964 12.8832 12.2986
37.8694 22.3997 22.7077
28.8918 15.7962 19.3289
43.4276 20.194 18.3131
53.14 24.0769 18.9234
19.9123 15.8134 18.4053
57.6626 23.4339 16.7225
50.3285 35.1744 39.9467
41.2491 18.2267 17.636
42.4797 16.8933 16.0489
34.382 27.6743 26.7758
19.4778 11.9828 10.4418
29.013 22.894 22.5399
49.8626 35.7775 30.4108
23.9688 10.2312 9.3031
78.8987 71.3523 70.0093
53.2486 40.6139 48.4563
36.834 17.848 15.0593
48.6628 34.5852 30.5929
24.3987 11.3484 15.8565
48.9427 20.7885 18.962
25.4613 25.6227 23.6254
26.3594 13.6906 19.4055
27.6856 24.1563 26.8984
45.088 28.5352 26.3771
41.7478 28.634 38.4606
48.3606 30.6042 23.3506
22.532 6.83962 8.52003
23.7372 11.9735 8.84321
31.9559 15.0794 17.4539
49.7965 28.7721 30.8897
33.8966 16.544 14.4831
25.1217 18.5501 21.5139
32.9021 13.8575 14.7427
20.1335 14.2026 15.1804
28.1484 21.1911 20.4573
15.8387 7.12668 6.89155
14.2534 13.7083 15.9013
29.4417 11.9328 12.848
43.1909 25.3516 27.7446
38.9761 26.2666 29.3616
33.9276 24.763 30.6537
54.9357 39.7756 34.6138
28.3819 23.5404 29.0878
40.6588 30.4308 34.2182
41.3495 21.4724 28.802
47.7976 16.4002 15.1259
14.9343 17.7953 23.4265
18.7634 13.8783 20.3309
46.6833 40.5541 36.7063
27.5041 13.8649 15.007
31.3933 26.0168 43.0139
55.9046 33.1609 27.8268
29.4867 12.5669 19.0513
39.4099 30.8491 29.0272
47.3501 23.3644 23.0914
33.8145 18.2632 24.8605
51.2373 32.5164 29.9115
21.9008 14.5196 14.5843
27.8857 26.6269 27.4294
37.1349 21.6716 35.2903
40.0644 24.3759 21.6369
29.5355 29.2945 26.4518
22.4607 12.9985 15.8667
38.5629 23.8161 26.668
41.678 35.1445 47.4023
25.9316 10.6923 10.6943
20.8102 15.6469 19.7463
23.1142 16.6703 31.9314
60.5283 31.7975 26.2734
27.8427 20.9895 33.803
34.7204 13.9923 23.0026
49.9388 20.9322 21.9958
25.7673 22.7767 25.4895
43.3969 33.8282 39.7308
32.0996 17.7459 20.4591
26.2954 15.2191 18.5708
26.8213 18.7408 23.6094
21.73 11.033 10.9081
24.3505 14.6657 23.9762
23.5492 21.856 21.4528
29.1587 10.3056 13.5096
36.6805 14.1431 11.5394
15.874 21.5817 24.602
27.1147 27.2981 48.8626
31.7962 23.1172 20.0847
24.0111 12.2005 18.7203
31.1324 18.662 18.5275
32.1858 28.1225 33.4311
29.0642 23.7037 35.062
28.5712 10.4966 16.213
29.912 17.2514 19.8319
19.8582 15.7658 21.7283
27.9572 6.65821 11.9939
26.0408 24.4692 36.5395
36.2801 23.6217 25.7526
32.8586 19.2797 21.5277
25.4126 9.03591 13.2479
17.7597 10.5584 15.9583
17.995 12.04 18.6915
28.9003 18.7309 30.8459
18.0214 16.285 18.911
28.7962 28.0198 40.1646
39.8855 21.7827 27.3594
30.7929 18.7497 23.568
23.6836 29.7492 42.582
13.1748 5.82213 6.33886
33.541 21.4035 25.6033
33.971 28.7439 43.3474
36.6712 20.1196 20.4558
13.934 13.3116 18.3653
24.6623 19.0669 34.7556
20.3068 21.7008 32.0175
35.1166 17.9069 15.875
32.152 23.947 36.7747
31.342 24.1045 41.869
44.6516 26.1197 31.2799
42.3973 19.3857 23.8804
35.7514 22.439 22.5469
20.257 13.9948 17.9826
15.5833 15.5463 23.0045
37.5225 15.1391 15.7441
12.3383 15.9796 29.975
35.9011 24.1959 40.8925
31.565 13.668 16.8359
17.6522 10.7934 17.2
33.9702 22.7243 29.2866
29.6836 20.2263 26.3786
28.6522 18.3673 29.3751
22.7957 19.7156 28.4055
30.0043 22.5393 28.4492
13.2106 5.33591 13.1917
23.8743 23.383 23.6012
28.1619 15.7946 21.8627
24.3577 18.5739 31.2702
30.8948 18.1264 26.013
30.1868 17.6337 21.5604
16.9774 18.825 32.429
13.4571 19.157 30.9531
37.2759 55.2799 79.241
31.3606 23.3885 34
25.207 17.3364 22.5866
21.9744 12.9456 18.5678
20.3887 22.591 32.1042
8.42242 11.3573 36.5378
34.3752 30.1816 40.6282
12.0403 10.5983 22.1319
31.4743 22.3466 25.2849
24.6506 21.2051 37.165
40.6051 32.082 36.3098
21.667 22.3056 33.9758
16.0133 10.2431 23.5939
24.6563 28.9122 37.1357
14.2966 14.4576 28.9037
19.5829 7.26429 12.3312
16.799 12.0531 22.2035
27.3696 20.4279 35.9997
20.0458 13.2812 15.7324
21.1675 14.6483 19.3326
34.7597 23.3204 44.0734
21.0375 18.052 21.8571
31.8882 14.5846 27.0401
16.4069 15.8463 20.8156
20.7608 16.8202 31.3194
36.1983 26.5341 38.8479
19.0895 9.57704 13.9224
18.3586 8.24772 17.7914
16.5352 11.183 27.9388
18.4801 18.3065 30.073
22.7682 30.1307 37.7473
23.6627 10.8604 22.7407
21.9288 18.2231 20.8116
16.6808 17.9541 45.3997
35.8921 24.2253 38.1259
22.0589 21.9796 27.7188
22.3683 14.1251 21.3566
21.3595 8.46058 17.326
16.8554 26.4216 49.7211
32.2236 27.1126 40.1554
25.3995 18.8721 24.4915
39.2076 18.3009 29.7217
18.8743 23.3615 39.8146
26.1957 33.8586 44.1986
11.5467 22.5494 40.3743
14.6291 9.70675 26.8627
31.2179 17.5619 24.7134
15.768 10.4773 15.9695
17.0693 18.4591 34.8166
19.8207 13.3768 26.6508
18.9548 15.9452 21.423
14.9732 27.4917 42.0453
14.4043 19.3221 49.4738
26.8943 11.8939 27.3355
9.52548 18.2208 20.034
24.7784 14.4296 28.3745
21.5961 17.3527 30.0245
29.6709 26.2891 38.7419
20.4564 19.5591 33.0171
23.0923 15.3022 22.826
19.1322 11.8124 25.3474
22.6373 27.3036 48.8104
17.7906 16.7138 28.412
12.8803 13.1708 22.1844
17.9661 29.363 44.748
10.1842 15.9992 35.7099
19.9591 11.0766 22.802
21.6308 10.3002 25.9822
28.8324 19.2342 27.0282
29.7961 13.6642 18.3736
11.7776 12.828 28.7503
11.073 11.353 14.1868
27.0492 23.3193 41.3722
24.8691 25.6211 39.4212
25.1609 15.3362 24.8008
19.4267 25.7558 49.5957
18.9703 14.7348 38.0923
18.3061 19.736 28.4739
17.3394 32.9524 62.9438
29.7691 24.7081 45.5461
12.2767 8.58253 16.8245
10.3507 11.6362 29.8405
9.81916 6.57437 15.3657
17.9283 10.5521 12.9498
13.741 6.43352 17.021
17.8384 8.5534 12.7561
19.531 24.5674 40.8559
11.1885 11.6228 19.9013
22.3907 26.7656 67.4219
25.3914 21.519 26.8941
19.5604 17.3492 25.0752
12.0365 9.68884 13.6836
6.39419 9.09815 19.7173
19.9583 20.2494 58.4431
25.8436 19.0208 22.1607
16.1593 13.2456 24.5801
11.7938 12.3984 29.972
20.7579 8.90955 12.2994
17.4989 15.4561 19.5013
14.7852 23.9913 53.2254
30.9809 18.7378 28.99
13.2564 13.3109 20.1533
9.52346 18.7792 47.7885
13.6186 11.1567 20.4331
18.6073 10.2551 18.1901
17.1628 14.3622 30.5313
10.7979 11.2132 16.8779
16.9669 10.8756 29.8216
10.7333 13.9763 33.0934
19.6102 15.5218 37.9167
29.317 18.2991 22.4855
12.1182 19.0277 38.197
17.9497 11.5255 17.85
7.4773 9.87306 24.3212
14.2496 7.00298 24.1009
18.6746 12.8878 15.2601
19.6932 24.342 66.7052
20.596 12.3532 11.1887
12.4654 9.90164 21.4905
19.802 17.158 23.3295
14.3596 14.9639 36.7686
12.8105 17.1377 43.9021
27.8746 29.6801 49.7534
20.6496 10.0417 20.1925
21.0261 11.7921 16.953
9.22754 19.4731 39.9455
11.6867 18.877 29.2249
13.9316 12.8398 29.8612
17.012 6.10124 14.628
12.175 21.0017 37.3577
20.6467 7.54827 13.1653
11.9465 8.36166 21.0515
16.9281 20.3735 36.3564
14.7054 7.6663 10.0623
6.41101 5.46078 17.4242
16.0158 13.7405 14.615
7.62334 15.2636 34.1886
15.0532 9.47166 21.7256
18.7919 26.5996 58.2636
13.4015 13.3033 32.0033
12.6472 16.1942 25.5964
10.3265 7.44077 25.1191
14.5622 15.4983 43.1518
14.3073 25.1601 60.8646
14.9134 11.6129 18.1632
11.3202 9.63816 16.9884
11.8129 7.80506 17.4914
15.3019 13.8085 32.823
10.4823 7.28927 22.5412
15.2865 15.9268 24.4421
4.53466 16.0199 41.5597
16.5366 18.1095 37.9077
27.4397 28.5837 62.0764
10.5747 8.08707 11.9419
14.9529 12.0569 36.6093
15.3321 13.0867 32.4866
19.3675 27.5714 38.3753
10.8766 7.32552 18.9003
14.1055 10.187 27.9296
14.6393 14.9288 25.6871
9.03488 10.9375 29.797
21.9472 23.7358 54.288
13.0968 15.5633 46.594
21.412 26.9912 43.642
10.2945 18.522 48.1359
12.5356 10.8656 18.1939
10.9519 11.9924 22.8423
6.14813 8.90889 34.7338
11.9156 10.5656 18.7947
8.15027 11.3127 27.926
19.8275 16.4855 41.0563
13.6373 15.3076 32.9522
13.9411 13.8749 22.8595
19.909 36.5668 62.2636
6.53286 16.6436 59.3502
7.62765 14.2332 52.3506
9.57629 12.9068 17.4004
11.5094 19.4703 32.1477
10.5806 13.4941 23.5107
11.1209 14.8179 25.4208
9.22135 8.16366 26.1039
12.6084 19.7214 30.6312
6.9343 8.52332 23.2366
8.50437 7.89571 16.7673
7.18761 18.2834 37.3263
16.5432 14.6847 44.2286
13.3494 16.0303 34.1845
10.9477 14.4465 45.4424
17.6882 12.8358 23.2666
9.73985 15.1446 43.9666
9.09116 8.47642 9.83451
8.24525 14.2931 43.2942
15.6332 7.01179 15.14
10.1573 9.90241 12.3517
7.05233 9.51733 28.927
10.5355 10.4892 16.0324
10.6788 9.41586 28.312
9.45516 14.2688 40.7473
13.7028 26.3355 50.5101
16.3699 15.3098 36.2069
10.6146 7.05294 19.394
10.9945 6.32512 22.0198
6.61641 20.7497 40.4117
15.9825 18.9639 50.6196
14.938 14.5636 30.9969
10.9074 18.4638 44.6621
12.74 12.2055 28.2008
8.57589 9.0183 18.2106
19.0338 23.236 63.1383
13.4722 15.2694 38.1736
13.0257 16.3108 38.7755
12.598 15.97 36.0163
5.67598 11.4614 16.5987
9.01815 9.16036 23.742
10.9337 12.6985 30.0719
7.89864 9.46318 17.2762
10.3017 8.4467 21.6808
9.03086 8.25712 29.0205
11.3485 11.2063 16.0322
8.5764 13.4892 43.2556
12.2476 9.73786 28.6314
15.0091 15.7561 38.592
16.9348 16.9742 34.005
8.58049 8.13706 17.2052
9.4803 11.8093 33.4157
11.0748 8.2683 17.7836
4.22784 4.82654 11.8995
9.46446 5.43338 11.6389
5.90941 7.3975 10.5559
4.81517 9.69054 35.688
16.0025 19.2944 43.6552
9.17096 5.82138 19.6607
13.2535 9.8974 21.8295
13.3719 8.25638 16.398
8.67277 11.5553 40.715
11.6008 10.8629 22.2563
7.27083 6.9054 18.4731
11.0479 5.27648 7.89169
9.61264 9.14825 21.8738
7.44695 3.54022 12.7605
5.20366 5.90255 13.9902
9.97115 13.3031 38.3419
8.58673 15.2689 33.0229
9.04566 13.6375 28.9287
6.52581 5.5597 17.5738
9.54276 5.80139 13.1988
6.15479 9.7846 33.1575
10.9977 15.3981 43.7122
12.4549 22.205 37.1355
5.70951 9.05743 31.0212
9.88484 7.62292 21.0245
11.1111 7.88238 39.751
15.0112 15.2665 13.5956
8.19343 14.2404 34.0992
10.0832 8.74239 36.4864
9.31135 8.07096 23.898
12.1952 14.9802 36.3415
10.8843 13.8655 34.5037
7.49049 11.7518 29.0822
11.235 11.5766 30.6538
6.83798 5.96644 11.9461
5.19985 15.394 42.1477
8.67722 8.11053 17.8216
8.46405 8.98196 35.9977
9.27174 11.6004 24.253
8.44015 23.4619 58.4353
10.4358 18.5195 61.2875
12.999 9.93255 27.0326
11.6024 12.9041 25.3173
8.63554 9.32934 32.1359
9.14818 9.69399 20.941
11.315 17.755 41.6255
6.96303 4.85412 16.9546
9.66954 12.2753 48.7729
14.3991 24.4837 53.5301
9.03341 3.38849 10.0437
8.2214 8.80513 28.5896
11.4957 11.5227 31.5574
12.1491 9.26742 26.5158
13.0964 16.6937 43.6498
14.858 13.7674 32.4701
10.5853 6.43428 15.6973
5.68573 6.64125 25.9996
10.8238 6.67599 25.2034
8.03107 8.68234 14.1702
6.28057 18.2401 48.7671
12.0493 6.99504 21.3358
13.3329 10.3338 22.645
8.71246 8.09142 23.8308
10.2046 7.77339 16.9522
11.0108 10.0065 27.2222
13.4819 7.61132 31.2251
12.6236 14.393 34.1177
7.75987 7.00015 32.5998
14.2754 13.6219 16.0571
10.715 8.27686 20.9193
7.99244 7.42631 24.7931
7.15445 11.5119 41.298
14.5466 16.0334 47.0795
17.1098 16.1406 37.5618
9.73792 10.3552 23.5152
12.6755 13.8465 28.0536
6.64762 9.25205 26.8413
10.5269 10.0114 26.3769
10.6761 18.0868 53.2136
9.62473 7.31555 36.1316
11.7262 11.5642 22.819
10.3291 13.0759 30.9468
8.69247 6.00773 18.6222
7.10094 8.21556 22.3723
9.53285 5.6054 14.507
6.40527 7.7353 23.8657
7.66952 8.35261 23.6288
8.86861 6.31111 19.653
10.5731 12.6173 23.5195
12.5798 5.62116 18.8095
7.96935 7.82548 24.3734
6.16327 3.36199 22.3574
16.0272 14.5721 32.7828
6.70867 12.2216 28.3783
11.5728 5.24343 21.8685
8.09089 10.2938 24.0938
8.86462 4.16247 11.7987
8.29205 5.84411 16.1904
9.25583 11.3121 38.9422
10.3061 21.4962 57.7514
7.79039 8.28964 29.8257
7.54516 4.26872 18.2356
7.5279 6.51969 30.7477
12.2769 19.4874 40.1992
10.3659 14.344 26.6037
9.19618 8.24151 33.0006
11.843 6.53148 15.2561
7.23418 10.8304 32.9405
11.3795 11.1764 23.0087
7.21259 13.0667 28.5024
12.5456 16.87 55.3391
9.79155 17.2822 55.0072
11.0484 5.75723 13.3073
7.91457 5.0214 20.2896
8.7605 11.7485 26.9755
8.07385 11.7736 57.9299
13.8701 15.7727 26.9371
10.6869 9.448 30.288
5.62278 9.23088 45.4878
8.53389 13.1722 29.4632
12.1803 10.7989 38.1583
8.38306 7.48696 10.8827
13.6371 12.6574 26.0925
11.4043 10.5183 23.2242
6.61962 5.11441 25.7625
11.214 12.9304 38.4219
8.4632 14.686 38.6256
12.4356 8.60309 23.2742
5.84755 6.35354 32.8337
14.1659 11.3989 19.069
5.54759 14.6123 61.8933
18.3245 11.6416 32.8445
12.7866 11.1265 26.7417
7.82385 5.37029 14.8916
10.8366 4.6864 20.4494
9.08075 10.7719 33.6661
9.39232 11.7404 48.622
15.023 12.2122 23.0068
7.66165 7.60841 25.2849
15.0048 17.3533 36.1512
7.66313 8.68655 26.4601
7.88731 6.89717 20.1251
7.46431 4.5686 14.7657
6.09504 10.9552 28.3967
6.43504 4.13622 10.5329
8.94884 8.50955 32.8229
7.3979 8.23022 23.6579
7.80281 9.52079 33.6992
13.2153 15.0322 62.1217
14.5337 13.6395 19.1851
10.1089 10.6876 28.0525
8.86741 7.87364 35.3371
8.5988 11.399 27.0324
7.0929 12.2622 40.5616
8.47812 5.9074 41.7628
16.217 16.279 42.557
11.7504 11.0491 15.7188
8.86446 4.41747 17.9996
7.59635 3.60257 12.469
7.79537 5.26587 16.4025
8.98089 6.97408 32.2939
9.61617 12.4334 29.2209
11.1375 6.81788 25.8442
6.91893 7.66523 16.5357
9.24035 8.13262 33.2481
7.99993 8.40998 28.0536
8.87884 7.01613 22.7983
9.22612 15.5731 42.6865
6.00255 5.06141 37.9411
16.163 18.4301 32.4085
6.68543 8.69665 20.5135
9.25611 9.06205 21.6683
8.08248 9.9751 36.8278
5.40199 5.70919 17.9974
12.8978 8.45822 27.7264
6.14376 6.60523 17.397
10.7428 7.81463 24.2355
5.53922 4.95937 20.9616
9.44567 8.22136 18.217
8.95951 6.00786 27.7841
8.23258 7.41119 16.1503
8.31382 4.46618 23.6045
8.48512 4.87014 17.9492
14.0956 18.1566 40.2481
11.2386 14.8463 75.6223
11.5364 7.59326 21.1438
6.37712 10.6089 52.3028
10.5157 18.4475 44.4146
12.5556 5.73928 13.4824
6.80543 4.8909 26.8718
6.46906 13.932 47.479
10.0985 8.18727 15.6293
4.84318 7.72677 26.1229
8.19163 7.4811 24.0761
5.97853 9.57647 34.6818
9.11784 4.43459 16.8114
3.87619 7.99175 38.8555
10.8926 5.37372 26.5474
10.3096 14.1457 30.6811
7.88786 13.927 41.7576
12.484 5.02425 12.087
8.23503 8.41895 15.7647
8.23689 7.45366 25.5578
6.19761 5.32166 30.0598
5.69126 6.00999 16.6932
9.30068 14.7005 56.9722
12.3603 11.6278 24.6948
10.4641 3.18154 25.9973
9.68368 17.8897 40.3922
8.48809 13.5791 57.1249
12.59 9.48672 23.3491
5.53536 4.18741 29.8201
9.87862 11.303 18.7859
6.03737 7.20406 35.4906
14.4182 6.63834 20.5706
9.50831 10.1157 20.0478
8.71979 6.31755 31.9233
5.08505 5.16298 18.0694
8.56359 9.88846 31.7405
11.5189 7.56167 24.4509
5.561 4.9027 25.0218
13.1623 11.3476 41.0152
9.55107 10.6086 28.2426
8.8382 12.3946 21.4749
4.8936 4.99447 27.9042
5.45316 5.13443 11.4549
9.18796 5.35853 18.0356
6.01569 3.78563 24.8311
9.8491 13.8136 53.9275
11.8152 16.8161 49.0451
10.756 11.0119 26.5415
7.44111 6.01054 23.2496
13.0063 15.7128 56.6539
9.39721 6.78598 15.8363
7.60998 12.6311 52.1004
8.17692 7.83501 16.0868
6.6846 13.1977 42.3152
7.46023 5.3461 14.6034
4.45947 6.37999 22.0521
4.94203 2.75599 17.7449
11.9109 10.4949 33.7813
5.7816 11.5262 55.5363
9.1852 22.2135 60.9062
11.5048 7.07786 17.6124
10.2735 5.98423 25.6984
7.99428 8.84594 41.9478
5.98087 11.9744 30.9168
12.9887 15.1872 46.0165
4.4898 5.02808 23.1505
8.64563 9.33341 77.8659
13.4356 35.4346 70.3181
10.6806 5.19216 14.7891
8.65222 6.00442 20.2627
5.29135 8.72787 44.4487
12.7583 9.11443 27.0551
8.52636 6.74296 19.6716
5.82756 4.75628 8.62446
6.65552 6.15152 30.579
9.6974 15.4787 34.1294
9.54254 3.76808 14.4493
6.8122 11.9707 30.998
7.40684 3.05105 10.3226
6.71546 8.35401 23.1751
6.39013 5.43725 27.0632
7.90351 4.09965 43.6596
9.99581 13.5775 29.7933
6.51852 11.1965 31.3183
5.69778 2.68849 9.42977
9.81727 10.5228 59.8469
10.2548 10.6801 26.2904
6.72597 4.33158 21.9457
6.139 3.17599 10.5321
3.94661 4.13622 7.59569
6.61701 6.86631 34.6569
7.70943 9.4668 33.3115
9.08987 15.0229 33.2049
7.65365 2.07472 12.7706
6.82891 3.55614 16.8315
9.86849 7.88815 28.5367
6.99351 10.0952 25.1978
7.7429 6.08786 26.3866
4.66881 5.80878 16.5425
8.4935 3.8447 10.8735
5.0001 5.05848 18.1511
6.34065 3.91611 18.4788
7.76273 3.65931 23.7914
6.53411 12.8441 28.9672
9.61146 3.78567 12.6101
4.07096 7.04021 28.4652
4.85726 9.64388 44.157
7.39267 9.7081 26.369
9.13684 2.25539 11.0908
6.65234 6.58597 16.6479
6.22547 8.10014 23.2354
6.08887 11.7314 65.3902
11.0004 8.31458 19.5866
8.94841 6.49574 22.3422
8.03012 5.87405 12.4177
6.20038 6.89125 27.4464
7.62701 2.69417 9.30798
4.6299 6.16028 40.1498
9.07369 7.58309 25.9326
9.30497 10.8934 29.691
6.787 8.67225 20.5461
9.51477 4.5101 15.0507
4.25297 9.01352 51.2349
11.1839 7.90421 18.7905
5.89466 4.29872 38.9001
7.91334 12.8946 19.1643
7.74575 8.46667 24.3183
5.81862 5.09182 16.2153
4.68339 2.4002 16.1173
5.41793 4.77223 22.2462
6.81682 12.7231 34.2575
5.48434 5.24813 17.1429
6.20221 1.89118 15.8242
5.7427 10.0705 33.472
8.12222 6.47831 23.7165
4.98415 6.68603 37.096
7.8141 6.75359 9.6355
5.84777 7.94631 43.0046
6.36615 7.09588 25.8137
5.95257 6.18518 17.015
6.30398 5.15309 36.0175
5.14586 10.8118 42.445
8.0976 21.972 54.3982
7.19766 2.39324 26.6622
10.6965 5.26246 10.3492
5.23102 5.34471 15.698
5.35287 13.1099 42.4089
7.92159 3.15051 23.2806
7.13096 5.60001 31.3091
7.86505 10.4683 15.997
4.83588 4.70592 23.9656
8.54683 9.61197 30.6513
6.71753 6.43603 17.1907
5.4749 7.31981 41.7961
6.3957 10.4398 24.7677
4.29327 5.18702 21.2555
6.85731 3.07113 15.9533
3.53086 7.92567 18.0311
5.89953 6.70796 28.8215
5.09251 5.48987 14.7547
5.51259 8.33208 42.7969
9.67017 5.66032 30.1593
7.10778 9.14618 14.6096
6.71494 3.3255 22.651
6.3594 7.95047 18.3322
7.22441 6.73561 22.3443
5.06711 5.81443 18.9938
4.77018 5.70648 26.2285
5.3195 3.46443 18.6925
4.96063 2.73448 17.7933
7.91805 10.5453 23.1603
5.18971 12.5821 30.0473
5.69484 3.61947 37.6438
6.72456 9.52027 35.8027
4.92597 8.06943 51.4855
9.85082 9.47959 40.5954
9.15553 16.1997 25.1974
5.51217 5.58024 35.8804
6.50576 5.4761 27.0004
6.05035 7.38543 13.8576
5.20393 5.27572 26.774
8.34889 8.61423 33.4628
9.33093 7.05631 24.3159
4.21169 9.62789 40.2224
7.79416 15.6041 43.0898
7.50258 8.63872 37.0886
4.75353 6.09412 47.0713
10.3039 22.2121 42.3113
7.10794 7.48727 39.9311
8.0721 3.2933 20.6781
5.5814 8.44256 39.8044
4.54927 7.72496 8.19793
5.03783 11.517 40.394
6.97257 7.15362 40.1467
4.55228 2.34022 15.3578
5.06703 5.49324 8.27381
3.38132 5.92591 23.1584
6.77569 5.98478 17.1569
4.88461 4.14459 18.5647
5.5147 1.87012 12.4525
5.42921 4.49847 32.4022
7.45453 8.58637 12.1677
3.86367 6.17244 15.0983
4.49849 5.68221 41.5591
8.61918 13.2931 30.0348
5.26153 6.88263 20.1813
5.82483 4.25928 17.3347
5.43176 6.43097 33.4439
8.20566 7.28382 24.2068
5.63306 8.90109 29.4118
7.1181 6.22183 27.2844
6.98559 14.0017 53.7956
6.48711 4.53409 23.358
6.50398 7.4732 13.2392
5.66735 6.33019 30.9465
7.0571 3.99421 7.63217
5.29316 6.69238 30.0907
6.41264 11.924 61.7049
8.80704 7.83497 10.2694
3.21875 2.92764 11.3827
4.3748 4.17645 18.9477
4.04677 5.02714 23.2799
4.69668 12.4211 34.5811
6.12154 8.47411 21.528
5.9144 4.78624 17.4362
5.54418 3.77364 13.9083
4.57229 7.97942 21.2888
5.3678 10.0845 59.1681
8.56143 6.04565 12.4478
3.56663 5.76185 34.3444
7.80388 5.43508 22.4291
4.67012 4.60065 21.4629
6.17155 5.25957 26.3231
7.47065 9.27593 22.5122
6.7607 4.41449 30.3594
4.76541 5.32835 19.4266
4.06208 6.60915 28.7984
6.17356 8.40807 41.6747
7.43435 11.3098 29.229
5.11845 2.36301 9.31914
5.43462 7.24786 51.201
8.17659 9.56914 32.3879
4.53369 13.9182 49.2495
5.9875 18.0868 54.3436
8.73827 4.4493 23.3069
6.55738 14.6377 45.0999
8.69336 6.43962 17.2488
4.50306 1.62709 6.03703
5.14559 4.76822 23.1246
6.90424 4.89162 28.2863
7.46007 8.56165 66.0925
7.4839 10.2064 26.9373
5.88534 8.76036 12.4753
5.99175 14.5952 40.5696
5.23107 4.74123 35.8216
6.01467 6.97552 19.518
5.32189 6.7924 18.9006
5.5643 4.68747 10.4269
5.25231 4.22876 18.3405
4.37773 3.89912 11.1447
3.71492 4.10159 23.985
6.35472 5.61564 27.8574
3.03871 2.26064 32.3272
8.00386 12.5101 27.5885
5.71748 8.54571 31.1824
6.25757 6.68584 29.0178
5.79133 6.8439 24.0627
5.90044 8.37161 25.4313
4.48707 2.98777 16.481
5.75035 8.5819 35.8741
8.70793 6.16558 24.2916
4.95982 2.1263 10.2721
7.13156 7.57913 40.7933
6.16593 3.4202 20.287
5.84536 4.92841 36.257
8.08933 13.6584 29.4186
6.38018 7.19997 22.2774
4.17222 4.74747 14.9357
5.2 5.57065 23.076
6.09103 7.24164 40.3485
5.35869 8.31642 22.4504
5.13268 8.24539 12.3827
5.64665 2.62267 17.6452
3.04241 10.4956 19.5149
6.17818 7.41037 24.4897
4.94855 2.53519 20.3926
3.74705 4.19095 19.24
5.44637 3.62839 8.18807
4.84444 9.28477 23.1021
4.88985 3.88998 18.1685
6.15339 1.5555 9.44806
6.99804 3.02304 9.34564
3.36239 7.05528 25.5962
4.31495 13.5445 39.6143
4.80693 6.98208 34.9219
6.06884 4.20608 46.7608
7.17945 6.55303 32.2303
6.92356 5.27007 10.9265
7.57036 3.75057 13.418
4.35946 5.26515 14.6735
5.24506 8.79228 50.7595
5.23159 7.06548 14.6063
3.26518 5.41376 21.6155
5.4648 4.19835 16.602
3.71583 3.80394 20.0817
5.19136 5.17515 21.85
4.7904 5.91574 57.0409
9.90983 9.8605 14.5744
3.96521 6.22792 25.0414
4.61209 7.07052 24.122
5.81507 2.88729 23.9207
4.84325 9.64617 26.7224
8.35584 2.73283 19.3173
4.34725 4.27214 28.0204
5.60559 5.59143 21.1025
5.32421 3.17976 14.6495
6.42878 14.7038 43.8938
6.47703 3.61054 9.67908
5.45677 6.59587 31.5414
7.40944 4.96631 8.79287
4.37863 4.25298 19.8885
6.47301 7.18031 52.9213
7.63339 7.19218 12.7014
5.2123 6.84287 13.9952
7.53649 12.036 54.975
8.54707 4.33743 32.6684
7.09602 8.46759 9.73472
6.22156 12.2345 35.2768
4.42779 7.15622 30.9251
6.8402 5.25444 30.5244
4.96317 3.97082 21.0781
6.08582 10.9724 39.6478
7.11309 3.80116 17.7276
6.78674 6.28982 22.4066
7.6169 3.36932 9.77966
5.21274 4.20799 14.5539
6.18409 2.58556 18.528
5.34798 5.72508 11.8005
6.00977 2.3593 19.8199
6.02753 4.07881 21.1716
5.79188 6.70463 23.978
8.71949 5.0047 13.6693
4.15781 5.27019 18.9051
7.23219 9.08124 26.0615
5.01108 5.3287 17.0474
6.5403 3.74724 28.9651
5.41682 5.05057 11.71
4.00563 7.84807 50.3218
6.66057 10.4635 31.8554
3.42454 7.66717 35.6755
11.4862 4.75292 17.5741
4.86058 4.65022 14.458
6.03359 5.4869 25.0409
7.50898 6.05007 28.4989
5.52368 6.36566 15.5682
4.64193 2.45547 6.97582
3.89936 3.86693 17.8328
7.57794 5.10919 24.9781
4.94408 5.39898 14.2527
6.53535 3.42614 11.0539
3.71124 7.38878 13.9544
5.03741 5.30929 31.6484
6.95723 9.83906 38.7257
5.04583 5.64234 19.2322
6.53171 5.25299 35.5443
5.61397 8.14216 36.3494
7.14761 5.86026 46.608
4.94294 12.3987 22.5695
5.83 3.64478 13.9526
7.03302 7.54715 33.6189
6.19074 7.37617 27.7824
6.97633 5.26536 22.7285
4.73043 5.18301 13.7216
7.22918 4.96668 17.9311
5.60842 4.90878 20.0012
5.85979 3.80558 14.8657
6.33023 3.93295 26.7341
4.84056 11.7055 41.0568
6.69512 10.4165 30.8187
6.79301 3.43993 14.9307
7.14348 4.26349 20.4724
4.83038 6.47502 54.1158
7.62373 9.7972 8.08757
6.76062 5.33747 19.3912
3.84278 4.68075 29.9763
9.31576 4.73485 15.9234
7.10809 3.36816 11.6362
6.11252 8.84377 20.012
3.67411 6.3997 20.9565
5.12127 8.56563 37.5298
12.5169 5.83996 33.7151
6.15295 6.0199 55.637
11.739 11.8835 31.5337
6.29429 5.92659 14.9175
5.18661 2.92496 27.7673
7.04989 8.43021 12.9311
4.22994 4.33903 25.4222
3.94302 5.99905 31.8603
5.32857 5.00719 23.8703
6.68013 8.71295 31.693
9.51894 9.13929 23.2063
5.65733 4.09736 20.1784
8.81791 4.58215 14.8539
4.93981 6.7007 15.5194
8.29128 4.79809 20.313
4.92475 4.23386 30.0593
7.65364 10.2462 19.0336
6.21188 5.33781 22.4542
3.97822 3.57274 10.8211
4.74371 5.39364 25.9474
4.97313 5.6072 47.2252
7.67747 6.30063 23.3943
5.05223 4.50206 17.0987
6.97635 4.46686 8.95751
6.0288 5.4837 15.8678
4.21612 4.67207 40.4169
8.18926 6.68541 40.0274
4.93429 10.1654 31.7429
5.90165 7.78915 16.7669
3.54067 6.1365 17.0684
4.99951 2.86212 20.9802
8.71901 2.87572 17.6308
5.27808 1.47373 27.3396
7.05409 5.26602 16.2819
4.60551 7.06554 26.2243
5.83322 7.62379 15.0318
5.08467 2.43342 16.9689
5.85799 6.32947 17.3525
6.99174 3.60767 19.1832
4.20001 4.83536 10.7717
7.49706 0 0