# pn-170911/CsIIA-av-CsIIA-1280-1959.psd
# Power spectrum* (dif=0,1,2) (really just |FT|^2)
# NOTE: only the first half! (symmetric)
# weeks: 1280-1959
# 14428 clock-days, 5878 excluded
# PSD: 1441
77141.5 2.47268 0.0615199
4.30886e+06 59.3102 0.0394938
2.5551e+07 551.615 0.0502253
3.21157e+06 116.766 0.0439448
3.6612e+06 261.25 0.0588963
1.19528e+06 115.891 0.0528355
862260 119.563 0.060136
601278 114.176 0.0654476
478137 118.671 0.0751764
365604 113.615 0.0820978
303503 114.994 0.0937015
245904 113.47 0.104175
209119 115.173 0.115986
177596 114.103 0.131537
154807 116.62 0.148454
134960 115.804 0.163387
117862 115.464 0.179721
102724 112.418 0.193847
93869.4 115.047 0.214932
82810.8 114.033 0.233216
74492 114.172 0.254471
67331.8 112.83 0.274813
63013.5 116.03 0.305349
56445 113.708 0.324117
51832.1 113.446 0.347692
46978.6 111.515 0.366861
44061.2 112.848 0.399732
42122.5 116.152 0.439734
37831.2 111.301 0.453496
35432.2 114.133 0.493035
33050.5 113.348 0.521369
30874.2 114.012 0.557689
29236.9 114.065 0.592281
27820.8 115.14 0.635319
25911.3 113.189 0.653271
24549.5 114.235 0.703218
22782.4 111.878 0.730921
21885.2 113.946 0.779882
20460.9 112.337 0.809186
19656.7 113.524 0.860489
18966 115.245 0.914881
17598.6 112.683 0.938158
16948.1 113.857 0.997213
16027.7 113.328 1.03231
15459 111.765 1.06327
14698.1 113.249 1.12837
13992.9 113.65 1.18311
13433.6 112.546 1.22064
12911.4 113.519 1.28438
12426.6 112.661 1.32262
11874.7 113.952 1.3918
11373.4 112.14 1.42419
10859.1 110.835 1.46257
10501.9 113.026 1.54161
10166.6 113.457 1.61201
9715.94 111.399 1.6365
9416.17 111.26 1.69358
9058.6 111.848 1.75937
8937.65 113.825 1.86122
8338.32 110.57 1.86638
8111.67 110.55 1.93197
7824.27 111.35 2.00686
7730.86 111.352 2.06993
7394.56 111.403 2.13637
7220.55 111.228 2.20918
6971.57 112.644 2.30226
6715 110.234 2.31445
6548.94 109.94 2.3825
6340.88 110.493 2.47603
6131.71 109.814 2.51453
5897.92 110.062 2.59678
5762.82 109.423 2.66191
5684.21 109.801 2.74592
5422.88 108.752 2.78588
5239.15 109.319 2.8813
5172.27 108.899 2.95279
5102.4 111.825 3.09812
4852.3 108.386 3.09327
4797.33 109.835 3.20654
4596.43 107.615 3.21265
4555.66 109.231 3.34603
4402.26 109.241 3.45101
4327.94 110.088 3.54498
4171.7 107.308 3.53724
4111.13 107.44 3.63255
3963.07 109.361 3.78712
3854.56 107.512 3.7981
3783.22 106.573 3.84462
3688.58 106.312 3.95494
3673.08 108.401 4.09229
3559.89 107.39 4.15239
3428.77 106.917 4.24219
3438.12 108.074 4.36681
3349.67 107.669 4.44994
3243.35 105.848 4.47276
3177.13 106.967 4.62225
3105.08 107.797 4.73678
3090.82 108.791 4.87659
3036.84 108.209 4.97934
2901.32 106.092 4.96286
2860.06 106.091 5.06112
2726.83 104.247 5.07373
2731.21 104.618 5.18997
2679.63 105.607 5.34369
2672.91 104.987 5.41705
2574.27 104.782 5.49375
2469.58 104.114 5.56266
2498.97 106.692 5.81744
2385.92 103.325 5.74059
2373.45 104.181 5.91138
2321.87 104.705 6.0268
2277.7 104.15 6.11172
2214.41 103.279 6.17167
2214.46 104.571 6.37493
2172.29 103.472 6.3754
2135 104.433 6.56808
2056.99 101.591 6.51143
2001.72 101.717 6.61132
1980.92 102.425 6.79477
1963.59 103.547 6.96813
1928.38 102.752 7.0315
1912.7 101.809 7.09835
1842.7 101.564 7.17907
1805.48 100.699 7.22267
1765.76 101.004 7.37916
1739.51 99.8645 7.41119
1733.88 102.002 7.68594
1717.96 101.507 7.78769
1694.82 102.2 7.95219
1642.61 101.146 7.98116
1659.7 102.003 8.18812
1638.84 102.972 8.39018
1579.72 100.517 8.3111
1553.41 101.692 8.51708
1509.49 100.148 8.55502
1500.3 100.309 8.6668
1458.52 98.6667 8.65239
1452.76 100.17 8.89036
1416.05 98.4263 8.89833
1402.8 99.0926 9.0668
1385.73 98.7282 9.15576
1372.88 101.162 9.53667
1371.56 101.258 9.66837
1331.51 99.477 9.62552
1300.17 100.603 9.85421
1281.95 99.2265 9.88105
1269.62 98.3275 9.90374
1232.72 97.6534 9.99448
1228.48 98.5127 10.2092
1223.22 99.4874 10.453
1176.94 96.0188 10.1981
1161.34 96.6744 10.4396
1149.04 96.4539 10.5376
1133.96 95.9963 10.6371
1114.66 94.8042 10.5987
1085.7 94.671 10.7793
1096.63 96.7976 11.1168
1069.75 94.9632 11.0769
1045.83 95.149 11.2102
1044.34 94.4084 11.2764
1043.69 96.1554 11.5989
1036.7 97.7138 11.9273
1022.62 97.7565 12.1015
993.084 95.1734 11.9548
997.145 97.0961 12.3144
957.626 95.2838 12.2677
955.929 94.5835 12.3043
931.256 94.1949 12.3818
940.15 96.3011 12.7874
918.385 95.0045 12.8244
913.376 95.2915 12.971
887.295 94.2811 12.9818
888.148 95.6527 13.3321
867.211 94.6108 13.3244
865.22 94.1229 13.4022
847.143 93.6436 13.5168
841.758 93.2227 13.6067
836.473 94.5252 13.9705
813.164 92.3987 13.7984
812.503 93.1812 14.0031
786.51 91.3513 13.9666
779.763 92.4497 14.2386
784.56 93.5653 14.5685
775.652 93.0176 14.6476
759.196 91.6681 14.564
752.905 92.2395 14.8842
748.159 92.864 15.0765
738.378 92.5242 15.2803
735.018 93.138 15.3849
727.081 91.5235 15.3846
704.825 89.5258 15.1737
692.446 89.5451 15.4448
702.759 91.5179 15.8424
683.076 90.119 15.7502
669.522 91.2895 16.1218
672.443 90.5727 16.1472
649.899 88.3618 15.909
644.771 89.354 16.2777
646.304 89.4808 16.4886
642.865 89.3819 16.6317
619.364 87.5971 16.4223
630.942 90.1322 17.0182
614.6 88.8585 16.9817
602.389 86.5278 16.7355
595.629 87.4341 17.1025
592.457 88.58 17.3985
584.112 88.2737 17.54
576.088 87.1128 17.5051
577.668 87.1892 17.6789
575.685 89.183 18.1857
564.705 88.5672 18.2921
569.834 88.1888 18.3409
550.452 87.3741 18.3393
551.912 88.1859 18.8003
543 88.1931 18.9566
527.876 85.9682 18.6123
523.424 85.1552 18.6276
529.065 87.1074 19.1305
526.085 86.503 19.2715
514.26 86.0081 19.243
517.598 87.8976 19.829
504.856 87.1268 19.8628
498.755 85.9345 19.8577
499.127 86.7209 20.1328
495.101 85.436 20.001
483.482 84.9257 20.0276
475.337 85.0207 20.3661
471.606 85.5394 20.5562
461.712 83.4342 20.3727
462.025 85.0089 20.7825
461.936 83.3234 20.6304
454.274 83.2185 20.6925
445.097 84.0515 21.1613
444.822 84.3909 21.2675
436.408 83.2396 21.2898
436.263 82.9625 21.3296
442.854 84.9075 22.0349
431.651 83.7141 21.9203
427.711 83.2974 22.0721
428.814 84.3998 22.4063
420.05 83.3858 22.3694
411.903 82.4213 22.1681
410.428 83.1427 22.6521
407.696 83.2136 22.9674
406.498 84.9374 23.5686
402.033 82.6497 23.0258
395.661 82.8491 23.2533
397.428 83.7496 23.7361
394.909 83.2168 23.8237
384.525 82.1289 23.6947
375.954 79.6469 23.1332
372.872 80.6512 23.6773
373.45 80.8197 23.736
365.247 80.2581 23.8768
362.856 80.0405 24.0246
364.665 81.0553 24.4568
356.21 80.0075 24.334
356.607 80.3676 24.629
355.04 80.2135 24.7189
349.345 82.0366 25.5758
349.924 80.5284 25.3598
344.563 80.1777 25.2823
342.213 79.2121 25.1577
342.01 81.6675 26.2723
338.442 78.7756 25.3982
333 79.4984 25.96
331.15 80.3062 26.155
331.865 79.644 26.2779
327.969 79.5193 26.4416
320.196 78.8832 26.3011
318.98 78.0497 26.4829
317.846 79.1977 26.7976
314.523 79.0565 26.9973
312.963 78.519 27.1359
306.01 78.2186 27.0822
306.219 78.174 27.4667
303.916 77.0771 27.1024
304.296 77.8816 27.522
301.337 76.5926 27.4167
293.544 76.6948 27.7465
293.887 78.0328 28.1158
292.209 77.591 28.3229
290.096 77.5941 28.4515
279.674 74.78 27.7069
286.535 77.7312 28.6009
277.496 76.7837 28.9132
278.342 76.7368 28.8847
276.547 76.79 29.1657
275.551 76.0036 28.9831
271.038 76.4875 29.4324
271.746 76.4652 29.7247
272.715 77.5293 30.2439
264.373 74.6811 29.3293
269.9 78.0369 31.0299
260.04 74.0345 29.4714
258.47 75.1142 30.0477
264.614 76.4004 30.637
257.079 74.8698 30.3238
255.453 74.867 30.504
254.351 74.7446 30.8041
255.293 75.896 31.3233
251.087 75.4113 31.3227
244.489 73.064 30.5246
244.032 74.232 31.2204
240.853 73.0989 30.8563
235.366 72.091 30.8537
236.449 73.5432 31.6265
233.166 71.9913 31.2081
234.113 73.6768 32.1574
233.91 72.6125 31.6886
232.675 72.8332 32.0543
229.004 72.396 32.1294
225.205 72.2393 32.2637
225.661 71.879 32.2544
227.911 72.5794 32.812
224.071 72.5986 32.8847
221.664 72.662 33.1042
219.745 70.9866 32.6498
220.353 72.4356 33.542
214.793 70.6648 32.7381
214.05 70.6602 32.9889
210.734 71.1704 33.7674
215.576 72.6654 34.2735
211.063 71.4563 34.0681
213.659 73.1339 34.9377
204.69 70.3293 34.0491
208.046 70.6694 34.0925
203.589 70.261 34.3775
204.126 71.1886 35.0793
198.531 69.5701 34.4119
200.187 70.2557 34.7601
195.556 70.2048 35.1489
195.513 68.9021 34.5967
196.29 69.6595 34.9478
196.183 70.5168 35.75
191.211 69.5378 35.6263
188.473 68.6874 35.4463
189.29 69.0331 35.725
187.194 69.2169 36.0774
186.428 69.133 36.1263
186.498 67.4348 35.2557
185.402 69.0166 36.7337
182.898 69.0235 36.6611
181.648 68.6476 36.5769
183.059 69.9353 37.5317
178.714 67.9483 36.5948
175.606 66.7282 36.6
179.912 69.209 37.8467
176.464 66.927 36.7685
175.343 68.3524 37.9562
175.687 67.1403 36.8985
173.928 67.3532 37.8297
175.402 67.8698 38.0148
173.123 68.0745 38.3511
168.447 66.6474 37.725
167.872 67.274 38.3625
168.292 66.9629 38.3829
164.846 67.0004 38.7236
163.575 66.9132 38.8906
164.702 66.5778 38.5533
165.213 67.3218 39.4096
160.232 65.7651 38.8409
161.718 66.0888 38.7855
159.551 66.7339 39.9914
162.954 65.8316 39.1037
155.827 64.716 39.1636
156.128 65.5837 39.6688
153.184 65.4101 39.9544
153.997 65.6273 39.9678
154.709 65.4461 40.0473
151.166 64.9494 40.1445
152.8 64.8523 40.0016
150.528 64.929 40.5399
149.31 64.886 40.6554
148.231 64.2161 40.7746
147.533 63.928 40.3803
146.88 64.2163 40.6978
145.149 64.1902 40.9005
141.151 62.6284 40.5224
142.817 62.4816 40.435
140.754 63.0963 40.9131
139.415 62.4683 41.0606
140.488 62.7282 41.0398
138.563 62.3918 40.9984
137.317 61.7312 40.8262
135.816 61.4251 40.9433
136.197 62.4597 41.7253
136.588 61.6704 41.2703
135.275 61.6556 41.6006
132.207 62.2152 42.463
134.46 62.8127 42.7113
135.06 62.5045 42.8787
136.118 62.7429 43.0818
132.468 61.524 42.496
132.143 61.5743 42.321
127.816 62.2292 43.6987
130.679 63.4322 44.6811
130.206 62.4828 43.9942
129.067 61.4231 43.4559
127.443 61.6689 43.392
124.894 60.6762 43.5018
126.865 61.2008 43.864
124.332 61.2358 44.3068
123.489 59.391 42.9853
122.923 61.1694 44.788
124.322 60.3368 43.9406
119.007 59.2791 43.3876
121.21 61.1142 45.5339
119.388 59.7784 44.4938
121.029 59.5183 44.1739
122.76 61.1226 45.6249
118.564 59.6877 44.666
116.459 58.5354 44.4878
116.55 59.3421 44.948
116.823 60.0767 45.631
115.103 58.9241 45.0894
112.528 58.5779 44.9347
114.159 59.2236 46.029
112.788 58.2936 45.2819
113.948 58.9932 45.9517
112.767 58.368 45.5492
112.012 59.1757 46.3592
110.377 58.9441 46.7908
109.594 57.4087 45.3267
109.734 58.7204 46.3688
109.512 58.9954 47.4174
110.588 58.3608 46.7827
108.537 58.1029 46.9697
108.094 58.7879 47.9896
108.193 58.8957 47.9647
104.681 56.5848 46.3116
105.631 56.9276 46.6613
104.07 57.3323 47.1958
104.364 57.4674 47.6222
102.89 56.7363 47.093
103.184 57.5258 48.3725
104.481 57.5406 48.0599
101.257 56.6475 47.5655
100.027 56.7128 47.758
99.1946 56.5686 48.3847
100.207 56.2628 48.0782
100.828 57.689 49.2429
100.721 56.6132 48.5802
96.975 55.0651 47.9171
99.3548 56.0915 48.5993
97.2657 56.2151 48.7801
96.7711 55.7367 48.448
97.5204 55.8428 49.0389
93.8557 55.2708 48.9163
94.003 54.5178 48.5825
94.8224 56.2556 49.7368
92.707 55.0098 48.8879
94.7697 55.9879 50.4983
94.1031 54.6569 49.0886
93.7708 55.2246 50.1339
92.9597 55.4158 50.4749
91.2461 53.9472 49.0031
90.9846 54.6975 50.116
91.3408 53.9897 49.8408
93.32 55.5132 50.2956
89.2769 55.6782 51.9201
89.7672 54.415 50.5514
88.833 53.6682 50.1041
87.8172 53.3079 49.7652
89.6298 54.7633 51.6921
87.4373 53.5776 50.6755
88.1098 53.6785 50.4996
86.2571 53.0163 50.5934
86.8579 52.8239 50.5454
84.3952 52.5705 50.8991
85.8825 53.428 51.6316
85.7083 54.2381 52.2204
85.165 52.6333 50.5991
83.8807 51.8677 50.1056
82.7868 51.9891 51.0518
84.0817 53.1772 51.5227
82.7493 52.9575 52.1641
81.5637 51.867 51.422
81.979 52.4888 52.2282
82.2068 52.7898 52.8075
83.9469 53.7137 53.4466
80.947 51.8524 52.2154
80.935 52.0499 52.5994
79.933 51.6056 52.2516
79.1219 51.5748 52.3049
80.1101 51.8171 52.4309
77.444 50.8775 52.0432
78.2324 51.3171 52.6453
77.8783 51.3783 53.0975
77.8716 50.8471 52.3743
76.9216 51.6095 53.9338
77.5207 50.0385 51.8861
76.254 50.345 52.8745
76.1512 51.0306 53.2582
75.8096 50.666 53.3215
75.0047 49.6417 52.4571
73.9618 49.9809 53.0112
75.0531 49.8098 53.0268
74.2356 50.4726 53.8725
72.7781 49.0516 52.7408
74.3998 50.8358 54.4736
71.9854 49.1167 53.1422
73.2256 49.9911 54.0384
72.5615 49.2099 53.9291
73.4909 50.4083 54.1547
72.3315 50.5546 55.1996
71.6207 49.4176 54.5986
70.6666 49.712 55.2487
70.5509 48.8631 53.7715
69.7495 48.2445 53.9954
70.5181 49.334 55.1642
70.2282 49.6912 55.2782
69.0424 48.3728 54.4509
69.2248 49.4411 55.6907
67.9906 48.3823 54.8264
67.1422 47.8398 54.3756
68.4529 49.1965 56.1789
67.6805 47.9784 54.7664
67.4269 47.8329 55.4029
67.6396 48.4618 55.1286
66.4759 47.59 54.9008
65.5969 47.7572 55.4761
66.6199 48.7 56.9829
66.8486 48.7119 56.414
64.375 46.7742 54.8339
65.5723 48.1025 56.5573
64.5599 47.2559 55.9091
65.093 47.8354 55.9663
64.1584 46.9249 55.9664
64.8772 48.5044 57.681
63.4867 47.0529 56.4623
64.1548 46.976 55.9464
64.8101 48.1934 57.3548
62.2222 46.456 56.4352
63.2132 46.5989 55.8493
61.7803 46.6948 56.7512
61.6786 46.1501 56.8707
61.5047 47.1293 57.9207
61.6856 47.2334 57.6968
60.5768 45.865 56.6395
60.5307 46.8715 57.4656
60.8558 46.8469 58.0888
59.3119 44.9004 56.0129
59.3599 45.2803 56.0521
59.3548 45.7919 57.3659
59.4826 45.9562 57.7005
59.2871 45.5177 57.0985
58.9287 45.8247 57.8913
58.962 45.6587 57.6514
57.5783 44.9494 57.7469
58.76 45.3874 57.8225
59.1634 46.6951 59.3432
57.3256 44.425 57.8615
57.5084 44.5848 56.945
57.1374 45.0571 57.9223
56.3745 44.7625 57.9789
56.307 45.0793 58.4763
57.228 44.6562 57.8226
56.0174 44.6412 58.7882
55.7479 44.3596 57.9928
56.3024 44.8 59.1102
55.1423 43.4494 57.9022
55.5828 44.0044 58.0397
55.1627 44.3741 59.3781
55.8523 44.7925 59.7765
54.7598 44.2237 58.8968
55.1402 44.1986 59.2986
54.1711 44.2489 59.7426
54.171 43.3303 57.5727
53.7021 43.9479 59.5156
53.6047 43.9404 59.3956
53.7077 43.1516 59.0806
53.9444 43.9104 59.244
52.3872 43.5837 60.1202
52.541 43.1326 59.7076
52.7921 43.3104 59.7517
52.0012 42.73 59.418
51.2811 42.2417 58.2018
51.4016 42.7963 59.7421
53.2013 44.6767 61.3582
51.2214 42.3914 59.4315
50.6525 42.5362 59.9347
52.0869 43.4096 60.2808
50.5629 43.5267 61.1864
50.7817 41.9742 59.9143
50.6606 42.6791 60.8589
50.0477 41.818 59.4694
50.5416 42.3026 60.2993
50.1831 42.1961 60.2677
48.5912 41.132 59.0043
49.2498 42.1516 60.4283
48.24 40.9852 59.6693
49.6238 41.8497 60.6901
49.7209 42.7381 61.9237
49.3717 41.7256 60.7882
48.3036 41.5668 60.3859
47.7966 41.3464 60.9148
47.32 41.1642 61.31
48.0404 41.2542 61.4065
48.4381 41.4087 60.645
46.7603 40.1422 59.7943
47.6463 40.698 59.4576
46.8923 40.6719 60.8102
46.7075 40.5031 60.8004
47.0216 40.652 60.0751
45.6849 39.7682 60.2795
46.2086 40.7488 61.7556
46.2447 39.5488 59.8123
45.1215 40.4321 61.785
45.0769 39.5317 60.0804
46.575 40.8804 61.1735
45.3565 40.3334 61.9672
45.0295 40.247 61.6613
45.5038 39.7889 60.9977
45.3528 40.6023 62.3641
45.0715 40.5495 62.9349
45.0847 39.4799 60.5108
43.6782 39.2445 61.2546
44.0554 39.4969 61.5
44.5791 40.0551 61.5491
44.1054 39.7382 62.4389
43.6999 39.811 63.0046
42.595 38.5047 61.0939
43.316 39.6065 62.8214
42.5016 38.7866 60.8378
42.5382 38.383 61.7868
43.8449 40.128 63.249
42.6449 38.2315 60.8604
42.3923 39.1837 63.1416
42.4344 39.5337 63.6357
42.6624 39.0964 62.6677
42.1834 38.8081 62.6357
42.3206 40.0783 64.8124
41.7629 38.1631 62.2457
41.724 37.845 61.4391
41.8695 38.5061 62.9031
40.6943 37.3647 61.1057
41.2313 37.9362 62.1036
41.4814 38.5258 62.7667
41.0424 37.6592 62.5172
41.2459 38.1744 62.8757
41.0358 38.3094 63.7085
40.0908 36.9869 61.672
40.6638 38.9071 64.3161
39.9569 37.2886 62.484
39.958 38.0678 64.125
40.6894 38.0835 63.7906
40.7171 38.1812 64.1742
40.1973 38.0164 63.814
39.0036 37.5984 64.0889
39.5489 37.3457 62.5907
38.9023 37.3897 64.362
39.287 37.3704 63.0119
38.9366 37.1385 63.3144
39.0597 37.7495 65.0052
38.4644 37.0018 63.8858
39.1099 37.9342 64.5588
38.1172 36.6114 63.1782
37.7113 36.8108 64.0133
38.1843 36.5681 63.651
37.9551 37.1034 63.3885
37.3959 36.5286 63.8467
37.0139 36.0285 63.5049
37.3253 36.6271 64.2186
37.4353 36.237 63.3539
37.6382 36.8363 64.6826
37.3063 37.0354 65.0936
37.187 36.4748 64.9407
36.8462 36.3594 64.6124
36.8393 36.0168 64.2824
36.7714 35.7704 63.5146
37.044 37.0561 65.611
36.2374 35.9609 64.8692
36.4194 35.8143 63.196
35.4224 35.7543 64.2647
35.9084 35.8164 65.1099
35.9808 35.3692 64.2812
36.1187 36.2937 65.7935
35.229 35.8146 65.2175
35.6127 35.6384 64.9911
35.0855 34.8365 64.2366
35.3622 35.1546 64.6482
35.492 35.8884 65.7617
35.3727 35.5661 64.678
34.404 34.5704 64.1667
34.8646 34.8479 64.3695
35.002 35.0792 64.4565
34.4768 34.8388 64.6206
34.4265 34.8225 64.5487
33.59 34.5197 64.666
34.5228 34.4375 63.8531
33.6472 34.3512 64.3097
33.8725 34.2006 64.0554
33.7718 35.1634 66.2711
34.0238 34.894 65.7092
33.5805 33.5247 64.1449
33.2761 34.1215 64.8185
33.1394 33.1078 63.0687
33.2369 34.4043 65.2767
33.1879 34.1516 65.011
32.7518 33.7371 64.4206
32.3971 33.6333 64.1488
32.635 33.8974 64.9703
32.373 33.0267 65.24
33.0174 34.2156 65.5947
32.6833 33.1265 63.0755
32.5292 34.3797 67.2181
32.8725 34.2704 65.99
32.0975 33.3356 65.2263
31.7754 33.0944 64.3164
32.1937 33.165 64.6573
31.4135 33.0219 65.3432
32.268 33.8909 66.1246
31.6948 33.3603 66.4119
31.3971 33.6607 65.6925
32.1229 32.7953 64.7107
31.7513 33.1861 65.3683
31.5095 32.7819 65.7139
31.6322 32.9412 65.1098
31.2968 32.5465 64.8442
31.1024 32.3922 65.9419
30.9357 32.3165 64.6411
30.8951 32.5312 64.4993
30.6337 32.3888 65.7602
30.2522 32.3873 65.5976
30.7237 32.7486 65.3233
30.0479 32.1203 64.9905
30.0774 32.1119 65.14
30.3655 31.8956 64.6521
30.6328 32.3025 66.6578
30.1322 32.0708 65.5247
30.3417 31.6291 64.7236
30.7009 32.8529 66.062
29.567 31.9688 65.514
29.9502 32.7636 66.5844
28.9566 31.2116 65.7477
29.9718 32.0647 66.5516
30.0427 31.4824 63.9458
29.2252 31.9921 66.856
29.6897 32.0838 66.6992
29.0331 31.9687 66.2761
29.2292 31.9849 67.4866
28.8945 31.1298 64.6876
28.5603 31.2225 66.2092
28.6225 31.8687 66.5177
29.0668 30.8123 65.2487
28.6431 31.3117 65.545
28.3063 30.72 65.4889
28.3937 30.96 65.4569
28.2836 30.7198 65.6842
28.6831 31.5035 66.4815
27.7483 30.6769 66.2403
28.3207 31.3627 66.5605
27.9863 30.9008 66.1244
28.2218 31.5022 67.6312
28.3338 31.2993 65.9077
27.301 30.518 68.1993
28.1261 31.403 67.8465
27.8164 30.4386 65.3792
27.235 29.9155 64.9896
27.4141 30.1322 65.5961
27.9082 30.537 66.1449
27.1329 29.8251 65.1868
27.6305 30.5907 65.5893
27.1765 30.1792 66.9321
26.867 30.1851 66.1225
26.9148 29.9617 65.9886
26.7774 30.1566 67.0993
26.7552 29.7223 66.1354
27.0703 29.6395 66.0317
26.7737 29.0129 64.312
26.6483 29.2074 65.4188
27.2226 30.5309 67.2869
26.5971 30.0763 66.9573
26.2263 29.2142 65.5638
26.3069 29.4506 65.4056
26.251 29.9989 67.0817
26.2975 30.0141 68.0544
26.1517 29.7831 66.6651
25.7663 30.1195 67.5751
25.5711 29.4586 66.5653
26.1574 29.328 66.3002
25.9794 29.382 66.7778
25.7477 28.7689 65.0928
25.6392 29.1972 67.3157
25.92 28.562 65.0877
25.594 29.2388 67.0007
26.0442 29.4555 67.0173
25.2988 28.4876 65.7645
25.5593 29.9083 68.6321
25.4848 28.7704 66.4249
25.5371 29.5751 67.5724
25.0767 28.1027 64.747
24.7604 28.5324 65.8055
24.6489 28.5938 66.7731
25.0999 29.0683 67.1565
24.6487 28.4198 66.881
24.8373 28.6014 66.3154
24.9394 28.2482 66.1389
24.6019 28.1579 66.4129
24.7744 28.4981 66.9424
24.9372 28.2694 66.06
24.7928 28.7319 67.3518
24.0145 28.2143 67.0259
24.1435 28.4031 66.6509
24.5873 28.1851 66.3681
24.2216 28.432 67.5728
24.1244 27.9506 67.1421
24.5364 28.67 68.7766
24.7385 28.3897 66.6547
23.9736 27.6326 64.6669
23.7488 27.8374 67.4965
24.1832 27.7363 66.6831
24.1854 27.8176 67.5188
23.99 27.7055 66.4282
23.8145 27.147 65.9764
23.6991 27.1665 65.8161
23.3526 27.0454 65.7376
23.7153 27.316 66.4848
23.7976 27.4281 65.6706
23.3842 27.817 67.9649
23.3318 27.5281 67.0414
23.7912 27.6455 66.8169
22.7826 27.031 66.8532
22.866 26.898 65.6138
23.2487 26.761 65.7128
22.9607 27.0659 66.818
23.126 27.6585 67.5795
23.0567 27.1763 67.0297
22.7527 26.9752 66.5631
22.5827 26.5955 66.294
22.6893 26.6667 66.421
22.5763 26.892 65.9139
22.7234 26.261 65.6097
22.6004 26.7062 65.6932
22.0935 26.6146 67.5316
22.6263 26.5884 66.4802
23.1154 27.897 68.3021
22.31 26.7554 67.4865
22.4555 26.7012 66.6072
22.1586 26.7916 67.7688
21.7687 26.0661 65.484
21.4197 26.3323 66.5598
22.0989 26.7887 68.1035
22.4458 26.7801 67.4664
22.1488 26.6855 67.3116
21.6077 25.566 65.9125
21.8321 26.2056 66.0672
21.7575 26.3715 68.3785
21.9478 26.216 67.1067
21.8108 26.4138 67.6575
21.6102 25.8873 66.5719
21.6373 26.2627 67.4681
21.6636 25.8809 66.262
21.6966 26.4358 67.5332
21.6099 26.6495 68.063
21.2714 25.539 67.1631
21.5086 25.8682 66.8537
21.3949 25.756 65.5686
21.1514 25.3263 66.3384
21.1723 25.5281 65.663
20.8745 25.9102 69.0268
21.448 26.0098 66.5967
21.0271 25.9345 66.966
20.9025 25.6565 68.4526
21.1387 25.5748 66.6659
21.2229 25.3104 66.1966
21.086 25.18 65.5128
20.7365 25.545 67.5289
20.8654 25.7394 67.8323
20.8258 24.8339 65.452
20.5055 24.8108 65.1909
20.7372 25.2891 66.9353
20.5184 24.972 65.3821
20.1782 24.5134 66.013
20.3481 24.8471 64.716
20.3418 24.8917 68.1711
20.4979 25.2983 67.2623
20.262 24.4124 65.4521
19.8119 24.1087 64.7994
19.9072 24.3466 65.6798
20.2955 24.316 65.4442
20.4134 24.8378 66.8737
20.1286 24.6703 65.1759
19.9799 24.6328 66.9719
19.74 24.4078 65.1603
19.7574 23.9834 64.9735
19.8571 24.3296 65.8492
19.8811 23.9977 65.1122
19.7156 24.0007 65.357
19.5721 24.0136 66.0743
19.554 24.0325 65.3947
19.6574 23.5415 64.9511
19.7244 24.1952 65.9285
19.6711 24.1751 64.7072
19.4113 23.4976 64.5495
19.4766 24.2246 66.5541
19.1151 23.3084 65.0649
19.3566 23.5436 64.8619
19.3677 23.9484 66.001
19.3109 23.6964 65.7497
19.34 24.2991 66.8044
19.1234 24.1359 67.1889
19.1003 23.949 66.7757
19.3613 23.9389 65.6485
18.9131 23.6753 65.8494
19.1209 23.3784 65.4592
18.9204 23.2844 65.1321
18.7492 23.1481 65.0344
18.9653 24.192 67.182
18.7987 22.7794 63.7832
18.8882 23.5229 65.4012
18.541 23.2265 66.0917
18.7468 23.4383 64.702
18.6229 23.1142 65.0238
18.5158 23.1845 64.7855
18.311 23.0201 65.6449
18.4545 23.3076 66.6755
18.7506 23.0435 65.527
18.3499 23.1938 64.969
18.2313 22.6912 65.1324
18.2731 22.9345 65.196
18.6238 23.0681 65.8397
18.4904 22.747 63.8531
17.8546 22.581 64.799
17.8495 23.2986 66.6966
18.0293 22.6554 65.0688
18.1072 22.2936 64.1509
18.0098 22.6586 64.677
18.1957 22.919 65.3598
17.523 22.6228 64.909
17.876 22.237 64.6666
17.6084 22.6695 66.6292
18.1562 22.3883 65.06
17.8612 22.1568 64.9302
17.954 22.3275 64.9061
18.2546 23.0098 65.0223
17.4213 22.4652 66.0692
17.6931 21.9111 64.564
17.8185 22.4252 65.1126
17.6905 21.9604 62.9624
17.4361 22.0937 65.699
17.9353 22.048 63.8901
17.1292 22.4177 65.5098
17.2216 21.3888 65.19
17.6796 22.6688 65.3634
17.2437 21.9586 64.9523
17.7596 22.0637 64.4391
17.5589 22.2414 65.2613
17.2705 21.8508 65.1305
17.2888 21.9759 65.0237
17.3953 21.4058 64.9716
17.5166 21.9858 64.4231
17.2869 21.7486 64.0786
17.633 22.0062 64.1668
17.2134 21.5765 64.3836
16.7543 21.6285 65.4159
17.0928 21.6406 64.7664
16.7558 21.4865 65.8519
16.9111 21.3051 63.8711
17.0703 21.3922 63.6532
17.0431 21.7331 65.8201
17.0629 21.4773 64.0509
16.8727 20.9846 63.4443
17.0456 21.5815 64.5446
16.7687 21.1279 62.9085
16.6319 21.8053 65.4301
16.5952 21.3156 64.9427
16.7501 21.1595 64.2488
16.8192 21.4585 63.8407
16.3915 20.9227 64.3207
16.5732 21.4062 65.1015
16.8066 21.0417 63.816
16.5716 20.7421 63.6613
16.4315 20.7593 64.0103
16.7443 21.4281 64.2327
16.4654 21.1764 64.4543
16.6143 21.2539 65.076
16.4115 20.8016 63.9106
16.4698 21.2197 64.7645
16.5137 20.9057 63.2406
16.5397 21.1399 65.453
16.4373 20.9407 64.629
16.4688 20.3836 63.9553
16.2861 21.0134 64.1292
16.0752 20.5247 63.3653
16.2525 20.4772 63.1128
15.735 20.3054 62.9846
16.1551 20.3095 61.9887
15.8379 20.3809 63.9051
16.0367 20.644 64.7666
16.1867 20.5321 64.2705
16.191 20.8949 64.6356
15.9438 20.4531 64.1633
15.6489 20.1103 63.9874
16.1128 20.9758 63.7733
15.7449 20.1091 62.5315
15.8169 20.5274 65.1142
16.1248 20.577 64.0528
15.9468 20.119 63.0341
15.8522 20.1588 63.9435
15.9359 20.4061 64.084
15.7705 20.269 64.9526
15.8348 20.2771 63.6881
15.5477 20.3079 64.0346
15.6377 20.0774 63.3356
15.743 19.9654 62.9456
15.6976 19.9354 63.3512
15.446 19.6933 62.4136
15.4334 20.0506 63.8555
15.5644 19.8612 62.7582
15.4161 19.5594 63.1719
15.5887 20.0627 64.1258
15.3382 19.5286 62.6692
15.3516 19.811 62.558
15.3297 19.9973 64.0751
15.5574 19.9949 63.5668
15.2167 19.3711 62.3608
15.4365 19.9794 63.2399
14.9847 19.7199 62.8272
15.2512 19.4099 62.6066
15.1385 19.3302 63.1767
15.292 20.0896 64.5419
15.1135 19.4052 62.5101
14.9978 20.2985 65.9147
15.2736 19.7043 62.655
14.9349 19.114 62.836
15.1089 19.4146 62.0242
15.0283 19.5158 63.5299
15.1472 19.8104 64.1665
15.0815 19.0934 62.6154
14.8922 19.0348 61.7997
14.8493 19.4501 62.8747
15.0283 18.9556 61.9897
14.8755 19.0939 61.4274
14.4924 19.2417 63.5168
14.8308 19.0007 62.2946
14.857 19.1821 63.0573
14.8747 18.8574 61.4704
14.8144 19.0232 62.8278
14.7457 19.1536 63.0436
14.7691 19.07 61.5773
14.523 19.0982 61.7891
14.6547 18.7194 63.0578
14.6841 19.4328 62.6983
14.4731 19.0174 63.6594
14.6038 18.7293 61.8388
14.462 18.9395 62.5796
14.4714 18.7512 61.7101
14.5368 18.6392 61.2967
14.374 19.0986 64.6779
14.5627 18.8948 61.8999
14.5584 18.555 61.3796
14.5396 18.5079 61.0075
14.3224 18.6007 62.2389
14.3213 18.5003 61.8146
14.2981 18.6904 62.2539
14.3145 18.6461 61.6445
14.3279 18.4628 62.3422
14.4426 18.5463 61.6046
14.4195 18.244 61.8556
14.1422 18.5635 61.6519
14.4442 18.3842 61.246
14.2795 18.83 62.5247
14.0432 18.3587 61.6684
14.2169 17.8819 60.7492
14.0944 18.5908 62.9559
14.2684 18.5352 62.7546
14.1457 18.345 61.897
14.1438 18.2615 62.1715
14.2532 18.4754 63.1708
14.1001 18.3523 62.3972
14.4355 18.3539 60.6364
13.9771 17.7247 60.062
14.0475 18.5152 62.9789
14.162 18.2304 61.5891
14.0938 18.1666 62.2504
14.008 18.309 62.1452
14.0847 18.0825 60.614
13.8116 18.1301 62.2557
13.8119 18.211 61.2387
13.7285 17.79 62.2302
13.9496 17.9727 60.9067
13.7768 18.4879 62.0737
13.7438 17.5336 61.0908
13.8099 17.9309 61.8176
13.8133 17.6464 59.9246
13.733 17.8879 60.9349
13.7816 17.8118 61.8554
13.7517 18.2051 61.1172
13.6682 17.6831 60.9068
13.6182 18.2664 62.747
13.554 17.4325 60.4096
13.5331 17.5361 61.0251
13.5763 17.6616 60.911
13.6841 17.6475 61.0538
13.6442 17.5215 61.0062
13.525 17.6664 61.5755
13.6113 17.5486 59.8994
13.4221 17.4458 60.3484
13.3911 17.4992 61.192
13.5115 17.4429 59.7005
13.503 17.5443 60.4467
13.4043 17.5109 61.7293
13.5927 17.4423 61.1414
13.5198 17.429 59.5535
13.4669 16.9737 59.2293
13.2467 17.2921 61.2204
13.469 17.3575 59.9144
13.2538 17.0958 59.5124
13.2161 17.4007 61.6966
13.3448 17.5451 61.7578
13.4448 17.4951 60.6143
13.2377 17.2947 60.2179
13.1876 17.0732 60.5501
13.13 17.2935 60.1293
13.0331 17.0397 61.3756
13.2378 17.2977 60.6459
13.2571 17.0674 60.2267
13.095 17.2343 60.6393
13.0941 17.2593 60.6297
13.2804 17.0584 60.2942
13.2315 17.1699 60.9909
13.1892 17.553 60.3127
13.0109 16.6814 60.303
12.9807 17.2001 60.661
12.9551 17.0698 60.238
12.9057 16.7414 61.1115
13.174 17.2477 59.4838
12.8623 16.8061 60.68
13.08 17.4393 61.8532
13.2692 17.0993 60.986
12.922 17.2131 60.6357
12.9704 16.8645 60.1993
12.8306 17.2302 61.5103
13.1075 16.8399 60.3069
12.7702 17.0688 60.009
13.0248 17.0574 59.6207
12.8909 16.78 61.0038
12.7964 16.4593 60.0103
12.9191 16.777 60.5556
12.9046 16.6655 58.924
12.7678 16.8966 60.1847
12.833 16.5632 60.1823
12.9587 16.9348 61.2346
13.0209 17.2047 61.7189
12.9549 17.0717 62.0523
12.9076 16.9655 60.8081
12.7477 16.8447 61.5285
13.0119 17.109 62.0213
12.8168 17.1961 63.1579
12.8529 17.4962 62.0715
12.854 16.8598 62.3334
13.0074 17.471 63.1774
13.1576 17.479 61.1192
12.5648 17.0374 61.2543
12.7783 16.5982 60.6609
12.9623 16.6465 61.7818
12.8778 17.0668 60.7808
12.7454 17.0144 61.5861
12.7054 16.8465 61.9719
12.7543 16.5347 59.7747
12.5755 16.2108 58.8147
12.6143 16.5726 60.0514
12.6582 16.2318 60.071
12.5493 16.4936 60.1362
12.5419 16.776 60.4414
12.3056 16.2758 59.1468
12.3685 16.5169 60.5933
12.3475 16.3153 59.5116
12.5053 16.4275 60.1313
12.4381 16.2401 59.4731
12.4294 16.3843 59.3642
12.3947 16.108 59.3725
12.5064 16.1256 58.4759
12.3061 16.1556 59.7009
12.3898 15.7993 58.8653
12.4376 16.1475 58.973
12.2768 15.7475 58.9056
12.3985 16.3876 59.7612
12.4016 15.9658 58.4482
12.0702 15.8947 58.595
12.231 15.6642 58.7063
12.2993 16.2769 58.6999
12.3157 15.8256 59.4886
12.0858 16.155 59.154
12.2467 16.1614 61.0728
12.4459 16.4722 60.3811
12.1624 15.7789 57.9187
12.2387 15.7148 58.0668
12.3186 15.7932 59.1236
12.3039 15.7203 57.5808
12.1809 15.7841 58.7611
12.1961 15.8413 57.5305
12.1135 15.7621 58.7385
12.2434 15.9327 59.9177
12.3136 15.677 57.4209
11.8839 15.5366 58.1959
12.2306 15.7987 59.3735
12.0566 15.5057 57.54
12.0972 15.613 58.0947
12.017 15.6459 58.6936
12.1178 15.969 58.4106
11.9596 15.704 58.3581
12.0922 15.8598 59.4224
11.9181 15.3104 58.0141
12.1515 15.8711 58.079
11.9556 15.5389 59.1537
12.0011 15.5237 57.7242
11.9354 15.0031 56.4409
11.8391 15.1551 58.083
11.7676 15.7689 57.9235
11.8596 15.5456 59.0623
12.0846 15.4605 57.377
11.9663 15.5471 58.7715
11.8866 15.7354 58.8851
11.9344 14.9843 57.5727
11.8529 15.2946 56.4247
11.7886 15.4552 57.5813
11.7877 15.0998 57.893
12.0528 15.5136 57.4477
11.6458 15.4416 58.8116
11.8248 15.6761 58.9093
11.9767 15.2787 57.8822
11.9391 15.2039 57.4425
11.7756 15.3441 57.2974
11.8676 15.3299 57.8932
11.6644 15.1102 58.6624
11.9831 15.6918 59.2691
11.8286 15.2959 56.9245
11.7537 15.075 57.9838
11.7456 15.4131 57.0275
11.8456 15.3134 57.9972
11.6823 14.9535 56.8652
11.6358 15.0875 57.3727
11.649 15.0856 57.4235
11.735 15.3467 58.533
11.7708 15.4965 58.4742
11.9318 15.3377 57.7009
11.6215 15.1927 58.4501
11.6735 15.2067 57.228
11.4575 14.6356 57.3992
11.675 15.6279 58.8411
11.7573 14.8465 57.0866
11.6888 15.0254 56.614
11.6465 15.1238 59.0674
11.6852 15.0774 57.6226
11.7289 15.1952 56.5609
11.4612 15.0384 56.8627
11.5426 14.9083 57.3701
11.6465 14.8416 57.9481
11.7573 15.2225 58.6607
11.4973 14.9267 57.9577
11.523 15.2019 56.7845
11.6206 14.9254 56.3402
11.5093 15.365 58.9804
11.6153 15.0987 57.603
11.5664 14.8686 58.8071
11.6228 15.3991 58.3802
11.726 14.8405 56.7518
11.6401 14.6867 56.5612
11.449 14.9751 57.6043
11.6234 14.9819 58.2498
11.5602 15.0846 56.7485
11.6286 14.914 57.9038
11.5644 14.9268 57.9877
11.7026 14.8909 56.2158
11.4483 15.0256 58.276
11.5763 14.933 57.5923
11.4876 14.8913 57.9466
11.5776 15.1815 57.188
11.3572 14.847 56.6152
11.2876 14.4123 57.6621
11.4324 15.0156 57.3532
11.378 14.7847 56.2018
11.2955 14.7151 57.1294
11.4268 14.9789 58.4322
11.3774 14.85 56.923
11.3192 14.403 56.1455
11.3462 14.9574 57.968
11.4723 14.8983 57.7674
11.4021 14.3634 55.8008
11.3193 15.137 58.4937
11.4097 14.9481 56.6986
11.378 14.5228 58.0083
11.364 14.8118 57.5659
11.3546 14.6506 57.1895
11.138 14.2474 55.2539
11.143 14.854 57.6896
11.3618 14.3971 55.4515
11.215 14.2367 54.8343
11.0881 14.1616 55.4962
11.3215 14.7257 56.4765
11.2294 14.5047 57.1385
11.3166 14.6338 55.1359
11.1493 14.2373 57.2597
11.3833 14.3756 56.0598
11.2403 14.8856 57.6575
11.2662 14.3616 54.8627
11.1321 14.3686 58.0329
11.2481 14.4913 54.9039
11.0647 14.6525 56.7129
11.1752 14.0571 54.888
11.2602 14.4045 57.7969
11.1894 14.7644 56.5884
11.1699 14.4442 56.3881
11.0651 14.5663 56.8741
11.0898 14.5969 57.7037
11.2994 14.6839 57.308
11.1213 14.8124 57.3418
11.4683 14.2538 55.5465
11.1082 14.1984 57.4977
11.3687 14.5045 55.8977
11.0171 14.2755 57.1844
11.3438 14.4181 55.7091
11.0212 14.3327 56.6782
11.1005 14.579 56.4033
10.9901 14.0728 55.7299
10.9588 14.222 55.9291
11.024 14.2601 55.564
10.979 14.1194 56.238
11.0538 14.3307 55.4911
11.1589 14.6714 56.7838
11.0759 14.1984 56.0621
11.0234 14.0657 55.1003
10.9105 14.132 55.3307
11.1701 14.0039 55.6676
11.0458 14.2219 56.3978
11.1658 14.4857 56.7473
11.03 14.2919 55.5214
11.0265 14.111 56.1089
10.9338 13.8499 56.0955
11.0802 14.1514 56.1578
11.0425 14.5925 57.0968
11.0034 14.3767 56.1499
11.0908 14.345 57.1367
11.0534 14.2766 56.1855
11.0647 14.5587 56.275
11.0199 13.9514 55.1588
10.9451 13.989 55.8541
10.9494 14.0691 55.0029
10.8544 14.2153 56.1288
10.9501 14.2152 55.8761
10.8849 14.1822 57.3036
11.0639 14.1014 56.1116
11.0743 14.3912 56.2975
10.9656 14.6338 56.9974
11.0589 14.0443 54.6788
10.9074 14.1333 56.688
10.974 13.9933 56.4277
11.0496 14.1786 56.0489
10.9332 13.9866 55.0728
11.0226 13.9105 55.5635
10.9999 14.2606 56.3095
11.0006 14.0959 55.1168
10.8769 13.7008 56.5849
10.8564 14.2737 55.6732
11.0582 14.2086 56.0939
11.037 14.2491 56.0863
10.9464 14.2976 56.2537
10.9379 14.0945 57.7371
11.0184 14.1402 55.1788
10.8976 14.1995 54.843
10.8523 13.9662 55.387
10.7582 13.905 55.2641
10.9511 14.2402 56.9793
10.9753 14.0746 55.2936
10.923 13.8736 54.3081
10.8324 13.8945 56.0288
10.8478 14.2128 54.6607
10.7698 13.7596 56.117
10.9049 13.8271 54.7399
10.8052 13.9298 56.0777
10.8679 14.2158 56.425
10.8803 13.9546 55.0247
10.8909 13.804 54.6505
10.8665 13.9046 56.3369
10.8123 14.0893 56.0133
10.7906 14.1534 55.5774
10.9603 13.9633 55.9638
10.6618 13.9287 55.4982
10.8234 14.0534 56.5636
10.9577 14.3347 55.2461
10.8322 13.7401 55.8573
10.8914 13.8678 55.2856
10.7624 14.0059 56.1536
11.0114 14.0906 56.2849
10.9311 14.0861 55.0252
10.8585 14.0812 56.8389
11.0518 14.1535 55.3174
10.7286 13.8157 55.1613
10.767 13.909 56.8012
10.9311 14.2014 56.2817
10.8955 14.2482 56.3572
10.8892 13.73 55.1662
10.824 13.6812 53.9711
10.7353 13.7445 55.0179
10.8575 13.9459 56.5884
10.9585 14.4778 55.7404
10.8789 13.8096 54.4734
10.8433 13.9986 55.0999
10.8074 13.6959 55.2918
10.8054 13.769 54.6632
10.6413 14.1711 56.9138
10.9211 13.9261 55.3198
10.7832 13.8149 54.5415
10.6107 13.8666 56.8832
10.9067 14.186 55.8967
10.9511 13.6116 55.4905
10.7786 14.0111 55.0868
10.6641 14.0457 55.5789
10.8614 13.7168 55.0038
10.9021 13.7678 55.1587
10.7821 14.0156 56.0945
10.9389 13.9262 56.6763
11.0023 14.3952 56.2459
10.7388 13.901 56.6511
10.8993 14.0917 57.0922
10.7892 14.1675 54.9996
10.7638 13.8613 56.4194
10.853 14.1878 55.5487
10.7922 14.0499 56.6061
10.942 14.309 57.0335
10.8695 13.7211 53.6257
10.7243 13.9853 56.3649
10.913 14.087 57.0491
10.9061 14.1509 55.2109
10.7646 13.9234 56.8471
10.9049 14.5105 57.4002
10.8791 14.0253 56.2813
10.796 14.2684 57.8119
10.996 14.0396 56.3487
10.982 14.5234 56.2952
10.8332 14.1273 56.4183
10.8196 13.9365 56.7488
10.9422 14.4407 57.3621
10.9136 14.1322 56.4044
10.7978 14.5653 58.6238
10.9627 14.8196 59.1072
10.9262 14.4327 59.3391
10.9931 0 0