# pn-170911/CsIIA-24-CsIIA-1280-1959.psd
# Power spectrum* (dif=0,1,2) (really just |FT|^2)
# NOTE: only the first half! (symmetric)
# weeks: 1280-1959
# 2078 clock-days, 482 excluded
# PSD: 1441
96558.4 2.34021 0.0554864
3.69307e+06 55.1835 0.0286739
2.03687e+07 435.212 0.0364433
2.95035e+06 109.313 0.0330905
2.39722e+06 167.519 0.0409464
1.11985e+06 108.017 0.0412761
797524 112.279 0.0480303
574104 109.745 0.0531081
441005 111.498 0.06013
346076 108.165 0.0685471
286489 109.103 0.0789525
223408 105.132 0.0890246
194428 108.191 0.0986689
166217 107.588 0.116407
139169 107.069 0.128825
123785 107.114 0.141519
111594 109.019 0.161084
94637.5 103.414 0.171614
88592.6 107.595 0.191214
78248.7 107.944 0.210888
70110.2 106.336 0.228105
64092 107.61 0.251893
59358.2 111.133 0.280956
53195.3 108.542 0.302648
48480.6 107.614 0.319833
43741.5 103.674 0.334133
40236.8 105.229 0.364549
39863.3 110.49 0.411239
35811.1 105.392 0.422457
31645.9 101.878 0.43111
30403.5 105.084 0.477263
28846.4 108.893 0.520753
27053.2 106.022 0.540426
26176.1 107.623 0.594921
24210.3 106.891 0.616917
22522.4 106.158 0.642553
21347.3 104.953 0.672201
20532.2 109.279 0.731004
18761.3 104.166 0.746964
17988.6 108.623 0.814805
17576.7 106.161 0.836352
16480.2 106.691 0.878546
15558.3 105.649 0.921975
14448.4 103.065 0.935629
14403.4 103.981 0.987839
13447.6 105.779 1.03886
13064.8 109.277 1.13118
12522.5 106.041 1.14936
11711.6 105.264 1.18747
11830.3 107.278 1.24438
10946.1 107.157 1.29362
11028.8 108.808 1.37623
9851.38 100.698 1.32371
9718.03 105.663 1.43976
9409.97 103.998 1.47769
8801.05 102.786 1.49436
8930.82 104.941 1.59579
8536.91 105.726 1.65243
8266.11 107.373 1.7485
7877.08 105.618 1.7764
7436.49 105.933 1.84574
7443.46 105.883 1.90659
7324.62 105.415 1.95799
7105.26 105.989 2.01766
6677.31 103.789 2.05909
6448.22 106.184 2.16642
6087.97 102.198 2.13729
6031.37 105.459 2.27422
6025.96 106 2.36908
5745.06 104.306 2.3829
5564.34 104.049 2.45954
5393.92 104.416 2.5395
5392.69 104.568 2.61229
4952.15 99.7877 2.54159
4876.68 102.792 2.69366
4863.63 103.482 2.81335
4710.43 104.124 2.88362
4469.34 101.86 2.89923
4545.48 105.719 3.088
4270.58 99.6099 2.95602
4230.99 104.188 3.19278
4195.71 105.337 3.30438
4041.34 103.876 3.34611
3973.13 103.819 3.39628
3823.92 100.247 3.38584
3747.2 105.106 3.63249
3651.72 104.034 3.68351
3447.11 99.3064 3.589
3389.11 100.479 3.74465
3528.49 102.588 3.86013
3269.75 100.602 3.88953
3224.5 101.606 4.0326
3229.99 103.123 4.15292
3136.5 104.226 4.32112
3032.86 100.955 4.25609
2957.57 100.841 4.34518
2924.29 101.531 4.47321
2916.6 104.321 4.66418
2808.6 101.117 4.64611
2679 97.4244 4.55535
2787.7 103.047 4.92343
2635.18 101.109 4.90114
2608.15 102.632 5.1074
2518.49 101.392 5.12265
2550.26 102.164 5.27653
2453.39 104.251 5.45914
2418.24 101.216 5.37442
2447.64 104.379 5.71747
2259.82 98.1076 5.44461
2270.27 100.349 5.70458
2171.61 98.267 5.66138
2164.19 100.73 5.90678
2003.16 94.3699 5.65751
2128.77 101.624 6.18255
2006.72 98.7113 6.07847
2014.45 100.379 6.29256
1982.45 99.176 6.32938
1920 97.1266 6.3009
1902.51 98.5071 6.54887
1945.89 104.072 7.00435
1795.86 98.5201 6.73585
1801.52 97.5124 6.78697
1740.69 96.0618 6.79978
1669.26 93.9171 6.75188
1682.65 98.1851 7.1544
1660.04 96.6588 7.16133
1648.41 99.1061 7.47008
1625.14 95.5347 7.3267
1582.37 97.1623 7.54183
1603.08 99.8017 7.90116
1613.72 101.176 8.11244
1560.09 99.5916 8.09814
1509.46 97.8068 8.12703
1508.8 98.9255 8.29132
1447.31 96.2597 8.24623
1402.02 94.2277 8.11231
1384.63 95.9356 8.38646
1343.47 93.785 8.3435
1369.26 96.9661 8.79298
1390.56 99.7512 9.11674
1293.59 93.955 8.70665
1335.26 100.068 9.42716
1302.52 99.1826 9.46615
1247.94 94.3561 9.118
1201.59 96.2226 9.44459
1224.09 95.7993 9.51773
1189.32 96.1577 9.74763
1209.64 93.945 9.5719
1173.77 95.4307 9.84845
1169.23 98.038 10.3296
1162.02 96.0525 10.2326
1148.24 96.6745 10.4328
1067.44 90.719 9.95781
1085.81 93.5193 10.3682
1059.69 90.2553 10.0841
1047.21 91.4534 10.4295
1027.74 91.7907 10.5228
1031.8 94.0554 10.9399
989.273 91.9034 10.8466
987.534 91.1948 10.919
975.186 92.4139 11.1127
990.343 94.2469 11.4436
969.089 96.0773 11.9586
938.551 92.7379 11.6332
960.076 95.0594 12.0467
889.142 90.6908 11.7051
961.971 96.8674 12.5815
912.387 93.5088 12.1906
906.831 93.5402 12.4749
904.926 94.1655 12.7428
869.896 92.4252 12.6005
873.446 92.6661 12.7261
832.938 91.7288 12.7921
846.964 94.2678 13.2454
836.777 90.8438 12.8984
804.244 92.2036 13.2975
784.393 89.3687 12.978
800.036 92.3881 13.6734
760.168 88.5219 13.2861
780.169 89.937 13.4686
765.51 92.6442 14.1735
736.253 88.0732 13.5587
740.47 90.6821 14.186
759.021 91.9549 14.4568
731.957 90.0603 14.2905
709.568 87.082 14.0577
718.242 91.735 14.9009
708.189 90.8051 15.0389
721.863 94.6196 15.5679
686.769 90.2862 15.2258
662.526 84.9213 14.4098
666.424 87.3907 15.0444
640.12 84.7769 14.7324
652.934 90.6391 15.944
634.076 86.8827 15.2894
630.264 86.7569 15.5144
627.379 86.7015 15.5925
623.668 85.58 15.6128
631.584 90.324 16.5302
625.358 90.5493 16.8385
590.985 85.6547 16.1271
609.453 86.674 16.3606
579.585 86.3558 16.5022
568.156 84.8602 16.4009
579.567 86.089 16.8397
580.92 88.1101 17.3033
541.094 83.6404 16.6629
546.223 84.0177 16.8595
534.11 83.6224 16.9862
538.119 84.7612 17.1761
535.006 84.4524 17.4723
532.541 83.8428 17.4375
536.1 87.5256 18.3117
522.57 84.869 18.131
520.427 85.8458 18.4666
503.164 83.2901 18.0611
491.08 82.5494 18.0919
503.97 84.13 18.5762
492.477 81.8048 18.2071
487.07 82.6188 18.4097
497.004 87.5152 19.8902
474.686 84.3858 19.2791
473.021 82.6818 19.0116
473.47 83.2887 19.3638
452.491 81.6778 19.1141
454.165 80.5955 19.0296
456.787 84.4969 20.1527
456.076 84.7036 20.3311
429.739 81.2808 19.8253
430.797 81.9981 20.0411
433.008 80.5632 20.0578
437.298 80.4056 19.9968
429.775 82.8328 20.9991
434.521 82.6508 20.7809
417.531 81.5404 20.7705
406.165 78.6478 20.2696
411.478 80.6132 20.8912
397.257 78.2032 20.5296
394.443 80.2523 21.1818
396.371 79.695 21.0945
406.267 83.0902 22.2307
396.041 79.7615 21.397
385.061 78.9154 21.4607
369.488 77.9787 21.4952
384.614 82.177 22.8672
386.865 79.8875 22.3059
380.659 80.0637 22.4682
389.591 83.9311 23.7954
371.57 78.3166 22.4245
371.654 79.464 22.808
358.192 77.3079 22.4093
353.507 77.5511 22.8201
352.973 78.765 23.1564
345.909 78.167 23.3044
351.994 78.5286 23.6529
339.93 77.8039 23.3057
342.908 78.3178 23.768
342.207 79.3893 24.2099
338.252 77.7653 24.2104
319.684 76.3148 23.8524
328.318 75.7594 23.9725
328.675 78.0969 24.4919
318.72 75.7854 24.19
327.783 79.3596 25.4639
307.309 71.6839 23.282
323.094 76.8572 25.0681
317.458 78.2034 25.7926
306.761 75.4091 24.8457
307.378 75.268 24.9202
301.754 74.8226 25.0367
301.38 74.6245 25.3921
304.684 77.7743 26.2866
297.323 76.3559 26.1899
292.861 74.6418 25.7473
284.796 75.0327 25.7829
291.736 76.1447 26.733
286.071 73.2999 25.7717
282.548 74.1712 26.2156
278.843 71.2192 25.4212
273.994 72.9594 26.4526
268.357 74.8875 26.7621
271.657 73.3183 26.8294
271.527 75.5037 27.4173
262.729 70.4584 26.2195
271.073 74.1089 27.2306
260.944 74.5348 28.109
270.149 76.2196 28.63
259.853 75.7208 28.6575
259.597 74.4367 28.7602
255.987 73.6954 28.4542
257.449 73.2891 28.3558
256.108 72.963 28.5049
246.082 73.1638 28.7516
252.433 74.2424 29.7146
241.742 69.8606 27.628
241.082 72.5129 29.1059
250.279 72.9898 29.3371
238.532 70.1172 28.2134
240.814 71.0815 29.158
240.567 71.5761 29.5325
241.216 71.0648 29.3113
235.496 72.0441 29.9136
229.216 69.4626 29.0305
234.599 71.3489 30.0121
223.224 70.0514 29.5872
223.152 70.5262 30.307
221.54 70.5741 30.3242
220.518 69.2556 30.0262
218.481 70.663 30.755
215.99 68.0497 29.5295
209.669 67.9115 30.1971
216.526 71.1841 31.4029
214.897 71.5672 31.9621
211.421 68.8499 30.8674
217.339 71.5184 32.7253
208.542 69.1792 31.211
204.276 68.267 31.3617
203.698 66.3986 30.3131
200.731 66.329 30.8613
202.674 68.3068 31.5106
197.708 66.1499 31.0305
200.244 69.7864 32.9032
199.747 70.0122 32.9061
191.807 66.708 31.8872
203.173 70.5006 33.8028
192.924 67.1084 32.4245
192.209 66.9188 32.2403
191.227 66.2919 32.2871
183.979 66.0264 32.6906
179.073 63.1311 31.2678
186.517 67.5104 33.3869
180.332 65.6286 32.703
186.818 67.5153 33.9051
184.681 65.5764 33.109
185.036 67.817 34.4999
178.397 65.753 33.7544
178.927 64.7815 33.2618
176.487 64.6173 33.4792
173.005 65.1145 33.7377
178.351 66.0629 34.1842
177.503 65.2786 34.4254
176.037 67.7675 35.9133
171.612 65.6402 35.0327
170.493 65.7237 34.9781
173.075 66.233 35.876
167.705 63.4671 34.1238
164.851 62.8371 34.6878
173.556 68.1348 37.1866
164.586 65.0218 35.6376
158.673 62.9074 34.932
161.072 63.6432 35.1024
160.781 65.1037 36.2735
164.533 63.9609 35.8027
162.419 65.7199 36.9206
155.359 62.6232 35.3914
156.388 64.0145 36.4009
157.34 63.962 37.2483
158.954 63.8638 36.6742
153.528 63.2777 36.9626
153.576 63.5145 36.5162
147.185 61.5463 35.8508
145.399 61.449 36.5475
153.417 62.7446 36.4899
146.611 61.4127 36.7544
148.627 61.2566 36.5415
144.697 60.5684 36.5108
143.355 60.5142 36.6399
142.049 60.9955 37.6322
142.28 61.4636 37.5173
140.45 61.5499 37.6385
138.096 62.1305 38.6344
142.659 60.6655 37.059
143.245 61.5882 38.5831
139.618 62.0575 38.8745
133.8 58.3574 37.0059
137.926 60.2842 38.0141
140.948 61.9111 39.2038
131.092 60.2161 38.2895
129.368 59.1929 38.6762
133.939 60.961 39.286
130.859 58.5409 37.9805
129.873 58.753 38.8385
133.413 60.7293 39.4707
123.115 56.6867 37.2884
124.814 57.1075 37.8661
125.472 57.2313 38.2205
126.785 58.5635 39.1931
127.386 59.4237 39.8746
128.557 58.6173 39.4168
122.989 57.9031 38.9039
121.127 59.2488 40.6988
125.967 59.9169 40.533
125.564 58.6279 40.323
120.668 57.3241 39.3192
119.563 56.8141 39.2591
115.826 56.9474 39.9746
119.846 60.0549 42.5201
119.104 58.3579 41.2232
122.016 59.0624 41.7724
117.655 57.5476 40.1658
112.248 57.3109 41.6769
118.972 58.0707 41.6209
116.66 58.1286 41.6661
114.013 56.3487 41.027
113.389 56.6571 40.9583
111.257 54.7352 40.2805
107.723 55.4496 40.7268
113.202 56.6021 42.1022
108.572 55.8221 41.8197
110.49 55.1496 41.3101
114.419 58.7562 43.7873
110.222 55.5327 41.4048
105.95 53.7778 41.119
106.366 55.6264 42.2324
110.492 57.7512 43.873
108.061 56.8542 43.1466
101.128 53.6741 41.0956
105.069 55.579 43.2598
104.716 54.6 42.2543
105.088 54.9171 42.571
100.636 53.4769 41.5742
102.922 55.1441 43.4728
102.037 56.0688 44.6553
100.654 53.6432 42.6791
101.726 54.3229 42.8369
100.614 55.0202 44.3639
104.836 55.5241 44.2353
100.08 54.5623 43.9378
98.9203 53.3261 43.4599
100.047 56.2311 45.8709
94.7527 51.2125 42.1577
96.6413 54.005 43.8149
95.3152 52.784 43.8145
98.7848 54.1361 44.5125
94.9147 52.9657 43.8916
92.3273 51.0879 43.194
94.0574 53.3393 44.5946
90.9397 51.9795 43.2684
92.832 52.1834 43.6936
90.65 52.7283 45.3197
89.1083 51.1952 43.8255
91.8396 53.9586 46.337
91.9537 51.486 44.5476
86.8092 50.6129 43.7854
92.7102 52.6352 45.0591
88.3946 53.1552 46.3214
86.8926 50.9125 44.4721
88.6061 52.723 46.4198
86.3524 49.2454 43.2902
86.8314 50.4196 44.8474
89.0761 53.1035 47.389
83.9615 51.8065 45.8882
86.2227 51.3116 45.758
85.1987 51.1007 45.6657
85.3584 51.3719 46.7474
80.9448 48.7437 44.5575
80.2737 48.3596 43.8685
80.9424 49.4521 45.3662
83.3172 50.0351 46.3237
83.2006 49.8874 45.5843
82.3543 50.8411 47.1546
81.2184 51.1554 47.8547
81.3369 50.1077 46.2122
81.0292 51.075 47.8569
81.3977 50.2894 47.3685
79.5086 49.0835 46.0964
78.6171 48.4158 45.8739
79.1648 49.4779 46.9791
80.3434 47.5254 45.6017
77.1574 48.2619 46.8798
78.4049 49.5662 48.2288
74.7 48.4817 46.9614
77.9636 49.1075 47.164
76.1355 48.4703 46.2192
76.7506 49.616 48.8573
78.2891 49.8682 47.9353
76.7853 50.0865 48.9549
72.1768 47.4867 47.95
75.099 48.0019 47.6904
77.7652 48.9361 48.9898
76.4632 50.1682 49.6336
73.6594 48.7365 49.1138
73.4786 49.1414 49.43
69.5582 45.32 45.9483
71.8886 47.3336 47.7551
73.5991 48.5251 49.5527
72.4542 46.631 47.7638
71.7004 46.6752 47.8806
70.5683 48.1723 49.6506
71.7009 45.9719 47.3724
70.2787 47.6613 49.9323
69.7425 44.8249 46.3414
67.8758 45.2767 48.4171
69.6309 47.1809 49.1275
71.6141 47.7571 49.8169
68.1882 45.649 48.4037
66.1581 45.8089 48.5838
66.9703 45.6691 48.6391
66.0552 46.5497 49.4836
65.5884 44.9131 47.6846
66.311 46.3978 50.1621
65.7645 44.8539 48.798
68.4794 47.3538 50.9131
66.1724 45.6409 49.8525
67.2281 46.0617 50.4729
66.6742 47.4773 51.0545
64.1517 43.8024 48.4955
63.9844 45.5158 50.3871
63.8053 45.315 50.2357
62.7864 44.7145 49.584
64.6716 45.3211 50.393
63.0249 45.357 50.6859
64.3884 45.7505 51.5111
62.8408 44.8967 50.0454
61.0683 43.4643 49.3978
60.7803 44.4731 50.3377
61.7438 45.5718 52.1607
59.9238 44.0804 51.2441
62.8992 45.2147 52.3287
61.6817 45.3389 50.8755
59.0984 43.6897 50.5952
59.6142 43.3596 50.1332
59.948 44.2841 52.3381
60.6644 43.2901 49.6754
57.6255 42.9572 50.9893
57.25 42.9304 50.1786
58.7398 43.8565 52.2427
59.2133 43.4557 50.2576
56.1399 41.4182 50.4458
57.8871 43.833 52.4353
58.4463 43.5145 51.7554
57.2683 42.8925 51.3905
59.7864 44.0695 51.4408
56.6428 42.2165 51.6504
57.3906 41.9448 49.8995
56.0186 43.538 52.8747
53.5285 41.555 51.7716
55.243 42.5335 52.2551
57.3884 43.6333 52.9363
54.983 41.5501 51.0737
52.4201 41.6064 51.1417
55.5617 42.349 52.8312
52.8226 41.183 51.4894
53.3592 40.0121 49.662
52.9653 41.2671 51.3259
52.8835 41.5706 52.4004
52.9374 41.6265 52.4122
53.1847 42.1038 53.6069
53.4786 41.8159 52.2449
49.7946 39.0924 50.6673
52.1285 40.4611 51.4809
53.4561 42.8788 54.2114
51.4538 40.1342 52.5524
52.6916 41.5713 52.5037
51.1075 40.7045 52.8736
51.3511 40.581 52.2631
50.2423 39.5333 51.6609
50.5969 40.5643 53.1254
49.9387 41.5112 54.0934
49.6922 38.9982 51.1479
49.5732 39.9969 52.7449
47.9274 38.0911 51.3943
49.7042 38.2233 50.1995
47.4756 39.6768 52.6153
49.5759 41.1228 55.0754
48.7387 39.8214 53.2266
48.429 40.014 53.4101
49.4083 39.9273 52.7551
47.1644 37.9563 51.5067
48.1765 38.6498 51.7098
47.9709 39.8521 54.4811
48.0348 39.0029 53.3307
47.9613 39.4023 53.4716
46.9388 40.0502 55.3154
47.5879 39.3931 54.691
47.9556 39.04 54.433
46.7694 38.0471 53.1783
46.2248 37.6702 52.2262
46.6255 39.5453 54.8327
49.0495 41.6268 56.8201
45.5009 36.4406 50.969
46.8233 39.6973 56.0031
46.7936 39.7379 54.2242
44.497 38.2908 53.3361
44.737 36.7676 52.8218
45.3568 39.1552 54.6536
44.0271 37.4975 53.8813
44.5458 38.2173 54.7071
44.3027 37.4467 53.4949
42.8772 36.0733 52.6896
45.9425 38.1046 54.0979
42.6267 36.2505 52.883
45.1259 38.8345 54.8239
44.6091 37.9264 55.0317
43.7531 38.0033 56.0239
42.0251 36.8783 53.3475
42.1502 36.3727 53.6321
40.9014 37.0104 55.3002
42.7121 37.6237 56.4115
43.8135 38.133 55.4003
41.7323 36.2631 54.7954
41.1486 35.9846 52.1646
40.9563 35.6943 54.0117
41.2089 35.8363 54.4617
42.0937 35.5332 52.5455
39.753 35.7835 53.8205
40.3253 35.8558 54.7317
41.9663 35.3782 52.851
40.5443 37.066 56.6158
42.1779 35.9705 54.9808
42.6597 36.5396 54.3955
41.7085 37.126 57.4695
41.4301 36.1012 53.9512
40.1942 35.7963 54.7764
39.4964 36.4549 56.1431
40.236 35.9854 56.0902
40.1728 35.5339 54.3725
39.3289 35.0518 54.5964
40.0526 35.127 54.9066
39.2049 35.6731 55.2528
39.5327 35.3158 55.7488
39.3744 35.8905 56.5666
35.9248 33.1066 52.9323
39.2397 35.3599 56.0396
38.7964 35.1843 54.2541
37.0638 34.0337 54.8047
39.0327 36.5392 57.5663
37.2676 32.9229 52.5753
38.174 34.7644 55.3806
37.8472 35.9855 57.4712
38.0973 34.1584 55.1225
36.9706 34.9406 56.9053
37.6268 35.3778 57.2498
36.269 33.1092 54.0579
36.7686 32.4297 53.8769
36.2733 33.4761 54.1997
35.1513 33.4018 55.8277
37.2905 34.6508 56.5313
37.4077 35.4682 56.676
36.3252 33.7883 56.3033
36.4539 32.4835 53.2351
36.9948 33.7803 56.5545
36.167 32.5743 53.4589
35.1738 33.8897 56.3385
35.7636 33.5456 56.3081
35.8605 34.4439 57.1134
35.9981 33.4979 55.3099
35.9318 33.3512 57.2514
36.1427 34.4074 57.3835
34.6145 33.1204 56.0681
33.9393 33.543 56.8895
34.6692 32.8251 57.1206
33.5839 32.7745 54.1889
34.3813 33.0106 56.4523
33.887 34.1528 59.4235
35.2721 34.0286 57.7614
35.0489 34.1738 58.6648
34.3813 33.1235 56.8118
32.6381 32.7676 57.8848
34.1792 32.5872 57.0647
34.5018 33.4696 56.9683
33.1419 32.6591 57.2534
33.4074 32.07 55.9562
32.1999 31.7798 56.0962
32.959 31.9443 55.7266
32.9344 32.1585 56.0943
32.2878 32.0722 56.3147
31.9608 32.5198 57.9857
32.5306 31.5956 57.0038
33.2852 32.021 56.0314
32.4164 31.7222 57.3093
33.5297 33.3095 58.0239
32.4368 32.6043 59.0127
31.4634 31.29 55.6874
32.0851 32.3421 58.5285
31.4379 31.6008 57.3223
31.7757 30.8134 56.4978
32.4051 32.2327 57.7924
31.5321 31.9492 57.1782
30.9317 31.3358 57.431
30.5412 30.1254 56.2863
31.4366 30.9368 57.1437
31.6888 31.5941 57.8995
30.2626 31.2316 56.3
29.8394 30.7934 58.0331
30.6 30.0349 55.1742
30.8774 31.0819 56.9338
30.386 30.6202 56.0639
30.1904 30.9147 57.3999
29.256 30.2659 56.7487
29.9646 30.3379 56.2508
29.6643 30.2336 57.9879
29.5825 30.0745 55.6613
30.9088 31.1284 58.1153
30.0177 30.7279 58.0438
29.5279 28.901 55.8685
29.7613 30.2291 56.9497
28.467 28.0498 53.5923
29.6133 30.4737 58.0057
29.2536 29.8284 56.414
28.6475 29.4996 56.3019
27.9291 29.9273 56.9298
29.5285 31.1023 58.3314
28.6823 28.422 58.1557
28.9701 30.3063 58.7439
29.1701 29.4672 54.6274
28.1205 29.0313 57.6066
29.2633 30.6652 58.804
28.6924 28.3255 55.4579
28.0186 29.1193 56.1811
28.0641 28.7764 55.9827
26.9211 27.9084 55.0428
27.8674 29.4751 57.6932
27.5885 28.8569 57.7177
27.5978 29.4665 57.3086
28.4708 29.267 57.7784
28.8315 29.7747 57.5633
27.5765 29.5835 59.5592
26.3198 27.9239 56.0186
27.3167 28.8868 57.3051
27.0619 27.8337 56.7469
27.0615 28.1235 56.4749
27.1474 28.8888 56.5537
26.3905 28.3533 57.6696
26.1281 27.9893 57.5318
26.736 27.7947 55.6945
26.554 29.0559 58.6178
26.6209 28.7223 58.4566
26.7775 27.5368 56.011
26.3141 28.1366 56.9725
26.2756 28.57 58.8858
26.285 27.6282 56.3141
26.4431 28.2949 57.5037
26.3565 28.4559 58.1353
26.3693 28.4312 57.5675
24.1707 26.3638 55.8568
26.137 28.1317 58.189
25.0984 27.4644 54.9591
25.7682 28.4016 59.9805
26.2232 28.0005 59.1012
24.9092 28.0396 59.2338
25.735 27.8813 58.6273
25.8547 28.0466 58.1679
25.1783 27.475 59.0624
25.8325 27.9808 56.9454
24.9759 26.4146 56.299
25.7822 28.145 57.6887
24.3784 26.0292 56.8067
24.9648 26.4045 55.1904
24.0634 26.5296 56.8824
25.2764 26.7042 56.8751
24.329 26.4056 56.4631
24.7569 27.5726 58.6233
24.4647 26.2145 55.2587
24.4746 27.9843 59.8717
24.3963 26.9144 57.0849
24.4666 26.9677 60.132
24.3025 27.3144 58.554
24.3657 26.3807 57.2061
23.7287 26.1651 56.2634
23.8971 25.8793 57.6037
24.7212 26.4524 56.1775
23.6821 25.4713 56.3575
25.0352 27.1573 57.5633
23.7938 26.8598 59.3719
23.8114 26.0953 56.7205
22.8241 25.5646 56.4034
22.8939 25.7199 58.7814
23.6113 25.573 56.9755
23.3228 25.3747 55.6533
23.2178 25.2972 55.3509
22.6178 25.6001 58.2714
23.6919 26.0526 57.5551
23.2157 26.701 58.5515
23.0854 24.4608 56.1078
22.4785 24.7143 55.0291
22.6873 26.8806 60.7113
23.1892 26.2627 59.0716
23.1382 25.6864 56.7499
22.3211 26.2159 58.6639
21.7511 24.6566 55.9461
21.6905 24.5571 56.0549
22.118 25.2603 57.9751
22.7652 24.9918 56.1941
22.7047 24.7835 56.7447
22.3903 24.6133 55.5938
21.9484 24.9943 57.813
22.7687 25.6399 58.3012
22.4091 24.4076 57.2979
22.1864 25.9996 59.8499
22.9732 25.6617 57.2338
22.4213 25.2361 57.9828
21.4061 23.5052 53.8023
20.9895 24.0729 56.3809
21.477 25.0389 58.6129
22.7683 25.6193 58.7036
21.8284 24.8721 57.3763
21.7862 24.6903 56.9944
21.4897 23.9465 56.4795
21.3337 24.5492 58.2476
22.2799 24.7931 57.3863
21.3782 24.1585 56.5985
21.5711 25.0142 58.7027
20.6714 24.4693 58.6503
21.0038 24.5397 57.1336
21.167 23.5062 56.0235
20.9098 24.5416 58.7009
21.456 24.4604 58.899
20.8411 24.778 58.8105
21.6012 25.0508 59.0742
20.9591 23.64 53.9069
20.2441 24.0796 59.4678
21.0697 23.6166 56.9663
20.8613 23.6239 57.3051
20.739 23.1609 55.5479
20.4899 23.0545 57.0821
20.427 22.985 55.1638
20.6157 23.7832 57.2713
20.2775 22.8869 56.1751
20.4843 23.21 55.0304
19.7202 23.1672 57.6596
19.8471 23.478 56.6124
20.551 24.173 57.6245
19.0444 22.3801 57.2397
20.3988 23.2839 56.0366
19.9136 22.9449 54.2541
19.4239 22.6483 57.3756
19.5115 23.2566 57.7659
20.371 23.8225 58.3793
19.3518 22.7406 56.2142
20.1148 23.0362 57.8588
19.8452 23.2582 57.6622
19.4336 23.3596 55.8005
19.4543 22.7499 57.9936
19.9115 23.1141 56.8081
18.6401 22.8167 58.078
19.9184 22.7037 58.4498
20.5433 24.7982 58.6164
19.6186 23.4337 59.8021
19.5054 23.14 56.6514
18.9705 22.4221 57.2984
18.4625 22.0872 55.3607
18.674 22.8452 56.7853
19.0605 22.8136 58.6856
19.3043 22.239 56.7424
18.8961 22.2461 56.0034
18.959 22.1153 57.2083
18.4711 22.433 56.7835
19.4526 23.3158 60.2438
19.1743 21.994 56.4593
19.1954 22.9423 57.326
18.5513 21.5707 56.8903
18.7021 22.4989 57.7684
18.6892 22.469 57.0035
18.288 22.088 57.073
18.4691 22.2815 57.085
18.2098 21.7216 56.0958
18.8417 21.8187 56.6734
18.5171 21.4805 54.8755
18.2329 21.5548 57.102
18.4169 21.4212 54.5854
18.0996 22.3745 59.2616
18.56 23.0453 58.5109
17.9353 22.2909 57.6497
18.448 22.3574 59.3061
18.6104 22.4849 59.2155
18.4384 21.9959 57.1291
18.3596 21.7894 56.135
18.1452 21.9972 57.8721
17.6599 21.4 58.4124
18.5288 21.4282 55.2818
17.8658 21.3837 55.7738
18.3072 21.8087 57.4154
17.3515 20.9383 54.8458
17.4351 20.1539 55.633
17.9847 21.4098 55.0833
17.575 21.4559 57.7811
17.5647 21.1211 55.8664
17.2476 21.0126 56.2729
17.083 20.8983 55.7673
17.0868 20.5656 55.7086
17.374 20.4727 56.0607
17.628 20.8081 56.8101
17.4943 21.5831 55.7672
17.4071 21.406 59.3908
17.7572 21.8051 57.4897
17.2147 20.9296 54.7251
16.5723 20.7759 56.853
17.061 20.575 57.2932
17.312 19.9864 55.2361
16.7003 20.061 55.1706
16.9176 20.5631 56.0513
17.3214 20.3364 54.9241
16.454 20.2379 55.5849
16.9517 20.2521 54.1518
17.0303 19.7095 54.0034
16.8873 20.5898 55.7052
16.4009 19.8896 56.5061
16.7703 19.4614 54.0556
16.8815 21.0209 57.3611
16.7114 20.723 57.1224
17.0683 20.6791 56.4905
16.6069 20.1086 56.2347
16.2782 20.2056 56.5937
16.532 19.9248 54.8391
16.3946 20.6326 57.4083
16.6068 19.784 54.5277
15.9089 19.3536 54.5721
15.9805 19.4038 55.1521
16.6219 20.8567 57.6396
16.0582 19.224 54.2339
16.3684 20.2232 55.0765
15.6297 19.6342 56.4438
16.3794 20.2603 54.5897
15.4756 19.451 55.1547
15.9271 19.4269 54.8934
15.3648 19.1687 55.3781
15.7469 19.9405 57.0265
16.3613 19.3345 54.7798
15.3387 19.1587 53.8188
15.4362 19.3481 55.1562
15.431 19.5215 55.7316
16.1899 19.24 56.0735
16.0197 19.7876 54.4195
14.9561 18.6093 54.1986
15.1521 19.9108 57.2547
15.6653 19.2904 54.7003
15.7865 19.0132 53.694
15.5825 19.1231 54.103
15.5799 19.4809 55.9956
15.029 19.2857 54.7468
15.0346 18.8674 54.7603
15.33 18.7767 55.1972
15.3955 18.5807 55.8074
15.4937 18.8666 55.0195
15.7764 18.9926 54.4026
15.4943 19.3995 54.632
14.5996 19.302 57.3795
15.3341 18.3277 53.4282
15.1582 18.739 54.4052
15.1437 18.4188 53.5624
15.1077 18.6456 54.9719
15.4244 18.5182 52.8977
14.5207 19.5018 56.7846
14.7156 18.0111 54.5718
14.8671 18.9168 55.4768
14.611 18.6792 55.8831
15.3901 18.8205 54.7045
15.2399 19.1535 55.9847
14.9823 18.3408 55.1775
15.229 18.7186 54.9629
14.8877 17.4853 53.6108
15.1909 18.168 51.9455
14.7203 18.0909 53.0985
15.1146 18.3056 54.1072
15.1946 17.9172 53.3011
14.4997 18.2949 55.13
14.7788 18.303 54.7899
14.4337 18.0971 56.2071
15.1122 18.0903 52.769
15.0354 18.2764 52.861
14.7282 18.5322 56.3878
14.5462 17.7437 53.6762
14.9143 17.8216 55.048
14.7561 18.3936 53.7468
13.7488 17.4103 52.0744
14.1598 18.3038 54.2306
14.5258 17.9168 56.1216
14.6104 17.9187 54.3253
14.47 17.9071 52.8482
14.0942 16.9852 51.2481
14.1897 17.9875 55.1068
14.6428 17.5058 53.936
14.5029 17.7457 54.3389
14.0528 17.503 52.6093
14.1872 17.3405 53.3833
14.5559 18.0412 54.5024
14.3292 18.1255 57.2575
14.4112 17.2649 54.4529
14.3261 17.8418 53.0059
14.5392 17.5927 52.443
14.4059 18.0524 53.9557
13.9171 16.7188 52.8097
13.9295 16.9439 53.9706
13.7439 17.3953 52.9559
13.4854 17.2068 51.7123
13.659 17.0377 52.9559
13.3387 17.3337 54.7009
14.2619 17.2453 51.9003
13.6586 16.9589 53.6202
13.9761 17.2232 55.1207
14.1487 17.2336 51.8678
13.3824 16.4975 52.8937
13.4689 16.9089 53.1927
13.6243 16.8197 54.4159
14.0075 17.8495 52.7811
13.5291 16.7556 52.6971
13.7226 16.8617 53.3502
13.9477 17.6108 55.248
13.8915 17.0531 53.6411
13.565 17.3698 55.6502
14.0119 17.2436 53.237
13.2257 16.8374 55.546
13.5812 16.645 53.3775
13.252 17.3242 52.763
13.6632 17.5366 54.5682
13.2578 16.5425 52.0904
13.5138 16.7638 53.5294
13.6204 16.8866 54.6901
13.3638 16.8812 53.3306
13.1461 16.81 52.2206
13.3685 16.7685 53.6386
13.4196 16.3955 54.3298
13.1529 16.7099 53.8123
13.5348 16.7507 51.688
13.3078 16.5347 52.6647
13.005 16.8008 53.3747
12.9327 16.1428 52.3619
13.0929 16.7284 52.8526
12.6925 16.3219 52.5914
13.3307 16.9444 53.6441
12.6449 15.6647 52.8243
13.2641 16.9152 54.8599
12.8647 16.5451 51.71
12.9366 17.1642 56.0194
13.1746 16.5563 52.6733
12.9455 16.3905 53.5111
12.9497 16.1177 51.7369
12.8683 15.8583 51.2657
13.0328 16.6368 53.6695
13.0265 15.865 53.4868
12.9845 16.0482 52.3639
12.6183 15.5871 49.9862
12.8336 15.3316 50.3907
12.8937 16.2349 50.8525
12.3278 16.0775 53.5775
12.535 15.7628 51.1311
12.6935 16.3752 54.8245
12.6109 16.069 51.9846
12.8944 15.9048 52.0245
12.5916 16.2469 54.1603
12.4949 15.9994 51.5126
12.9074 15.8163 50.5171
12.7961 15.3339 52.2374
12.6528 15.9362 50.9055
12.1076 16.1551 54.6393
12.664 15.819 51.3151
12.2672 15.7728 50.6662
12.2217 15.7317 52.8992
12.3915 15.2991 49.7
12.1159 15.8651 54.5556
12.6734 16 52.2043
12.5105 15.4161 52.2003
12.5893 15.2546 50.1381
12.5578 15.7484 51.4705
12.2098 15.0786 51.0085
12.3261 15.6237 51.9519
12.4068 15.7377 51.3758
12.4068 15.1242 52.1906
12.5107 15.6956 51.3689
12.3113 14.879 51.5784
12.0925 15.6186 52.5788
12.778 15.4722 49.8911
12.3988 15.6595 52.323
12.1491 15.2845 51.1849
12.2386 14.9588 49.5873
12.1873 15.4111 53.1236
12.3907 15.6888 52.5757
12.0912 15.4387 51.8048
12.1855 15.4064 52.0495
12.2326 14.756 51.9497
12.0465 15.4165 52.057
12.4093 14.6871 48.0548
12.1435 14.8589 50.1602
12.4693 16.0222 53.9045
12.1455 14.7785 50.6352
12.201 15.4257 52.267
12.0446 15.3424 52.7312
12.1725 15.2797 51.9763
12.0967 15.4311 51.587
11.5596 14.9019 50.5728
11.9627 14.6441 51.2312
11.7849 14.5468 50.3647
11.9499 15.4037 50.306
11.6581 14.6376 50.844
11.7784 14.6897 51.1715
12.0827 14.7534 50.0836
11.5178 14.5497 50.6819
12.0006 15.2631 52.0517
11.7269 14.763 49.7905
11.7802 14.6992 50.5965
11.6392 14.9999 51.5559
11.6627 14.2422 49.1644
11.6048 14.4331 50.1921
11.4941 14.4898 50.3286
11.7268 14.2792 49.4008
11.7845 14.3619 50.365
11.5419 14.6326 52.2263
11.7413 15.1677 51.5377
11.551 14.3145 49.6512
11.6216 14.9492 51.9065
11.6426 14.522 48.2347
11.3004 14.4263 49.0421
11.4472 14.2645 52.2924
11.8593 14.4733 49.5443
11.4237 14.644 50.1378
11.6626 14.3261 50.6897
11.648 14.418 50.4363
11.8564 14.1663 49.6458
11.3959 14.0854 48.8404
11.6466 14.6751 50.0197
11.307 14.1374 50.835
11.2809 14.3198 50.8467
11.4392 14.3255 49.9608
11.53 14.2423 50.449
11.2671 14.5052 50.3562
11.6903 13.9326 50.3358
11.3433 14.3996 50.623
11.3074 13.7709 49.2075
10.9561 13.6718 48.0098
11.0687 14.4296 49.7153
11.4134 13.8886 48.4314
11.3604 14.08 49.9196
11.1211 14.4565 49.9903
11.23 13.7474 50.0292
11.1952 14.3261 49.9379
11.1375 13.9788 49.8684
10.9088 14.2588 52.391
11.3988 14.231 48.2094
10.9144 14.0928 50.9397
11.4054 14.5252 51.4467
11.4512 14.1644 49.3804
11.2239 14.1129 49.669
10.9094 14.4285 51.3291
10.9258 14.2942 51.0519
11.1078 14.0337 50.3672
11.0907 13.8295 49.1218
11.2677 14.0827 49.2126
10.9597 14.1939 51.8078
11.1538 14.0557 50.6781
11.2711 13.9516 51.0246
11.0314 13.4326 47.5233
11.0557 13.9426 48.8059
10.6268 13.2962 49.7706
11.1786 14.5104 50.6298
11.145 14.3768 53.3348
11.4069 14.5732 51.7432
11.1596 13.9483 49.8999
10.8481 13.5812 51.1672
11.125 13.9794 49.641
10.9201 14.0523 53.1173
11.2078 14.158 50.3235
11.2147 14.4588 52.9312
11.2556 14.37 51.6172
11.0446 14.6416 50.8081
10.7831 13.6356 49.7983
10.8766 13.4761 48.8715
10.8593 14.0743 51.3604
11.0829 14.0093 50.2073
11.0149 14.211 52.0915
11.0409 13.9717 50.7194
10.7724 13.4781 49.8928
10.7073 13.3223 48.1663
10.6936 13.6944 50.046
10.8452 13.4857 49.4817
10.7043 13.632 49.4516
10.7685 13.6565 50.3478
10.7695 13.9464 50.1344
10.41 14.0111 50.0211
10.6207 13.5803 49.1255
10.7771 13.5479 49.7498
10.4075 13.2575 49.212
10.8737 13.2714 47.8732
10.7659 13.0187 48.6064
10.724 13.4333 49.0649
10.644 13.0137 48.4829
10.6359 12.8968 48.7559
10.7426 13.0089 48.1783
10.8329 13.2995 49.1007
10.6047 13.6754 49.4507
10.7017 12.9135 47.6012
10.1543 13.4903 48.0175
10.8593 13.2693 49.2886
10.4619 13.0392 47.3135
10.572 13.0872 48.8337
10.3106 13.6027 51.1949
10.6994 13.5683 50.6641
10.6634 13.7269 50.0967
10.5923 13.119 49.3355
10.7381 13.3477 47.9059
10.5931 12.9207 48.511
10.6055 13.0429 48.3061
10.3025 12.8428 47.6704
10.3428 13.476 47.7587
10.4667 13.2183 50.2117
10.5461 12.9899 49.2625
10.3142 12.902 46.0258
10.0274 12.601 47.7163
10.3168 12.9068 49.255
10.2344 12.8188 47.0411
10.5737 12.9387 48.2734
10.0374 12.8882 47.8428
10.4815 12.6731 46.0666
10.1847 12.5748 47.7622
10.323 13.0667 48.4953
10.1439 12.2935 47.6274
10.7355 13.715 48.6095
10.3237 12.7958 48.8072
10.1506 12.9076 47.5605
10.2442 12.1533 45.4689
9.78966 12.228 48.1984
10.1901 13.1156 48.7348
10.1015 12.9278 48.9927
10.4373 12.6021 46.162
10.1983 13.0244 50.1113
10.3729 13.1307 46.9764
10.0182 12.0247 47.3827
10.3572 12.7862 44.9479
9.987 12.4923 46.2874
10.1152 11.7731 46.6073
10.3367 12.7074 47.0079
9.81794 12.6145 47.3286
10.2453 12.3228 47.8102
10.1322 12.57 46.8446
10.4595 12.3189 45.4801
10.2263 12.7474 47.7752
10.0106 12.6451 49.3353
10.2128 12.7728 49.1107
10.2837 12.5813 47.8628
10.1586 12.4848 45.9704
10.3719 12.0026 46.998
9.92851 12.6289 46.0983
10.1053 12.1616 46.9511
9.98687 12.3396 47.1993
10.2616 12.4299 47.1559
9.81913 12.3432 46.472
10.0801 12.4403 46.2085
9.98007 12.5865 48.295
10.3379 12.3418 46.8705
9.93371 12.8585 48.6742
9.9301 12.2711 47.0467
9.97389 11.8034 47.2933
10.062 12.7325 46.3388
9.63007 12.0357 46.1918
9.99826 12.1046 46.6104
9.92153 12.6992 49.043
10.0159 12.2831 47.9073
9.90433 12.6162 46.7842
9.80522 12.6847 48.8699
10.3342 12.5854 47.6495
9.99573 12.3421 47.697
9.98582 12.0945 46.8307
9.69967 12.0856 47.4837
9.87359 12.3946 45.258
9.83274 12.1273 46.576
9.85443 12.2683 46.7772
9.87592 12.4217 46.2102
9.60169 11.9994 47.5157
9.80291 12.3495 47.3808
10.1784 12.0131 45.1322
9.6775 12.1822 46.2342
9.60254 12.4504 49.1362
10.2392 11.9294 49.0846
10.0089 12.7442 45.7729
10.0091 12.4217 48.4148
10.0219 12.2802 47.2136
10.0544 12.1892 47.073
9.96104 12.3758 49.1466
10.0866 12.3749 47.2995
9.80137 12.1516 46.6732
9.72275 12.2454 46.2015
9.51602 12.213 47.0054
9.72767 11.6459 48.1662
9.73367 12.0045 44.8746
9.7005 11.7919 43.9721
9.44872 11.9067 46.803
9.75099 12.6204 49.3023
9.76839 12.399 45.865
9.61432 11.6783 45.3897
9.6798 12.0523 46.3921
9.67778 12.1029 48.0175
10.1129 12.1408 47.314
9.92058 12.397 48.4499
9.75236 12.2595 46.4021
9.63676 11.9278 47.6876
9.96466 12.2597 47.3225
9.55873 12.004 46.3435
9.35523 11.599 45.5198
9.57772 11.8873 46.5579
9.62068 12.0173 46.0908
9.90114 11.7022 44.2086
9.29615 11.22 45.2386
9.82243 12.2076 45.8469
9.42672 11.5381 46.0351
9.61628 12.057 45.4097
9.60051 11.9356 46.6714
9.57911 11.5274 45.5217
9.69683 11.8007 45.3536
9.57936 11.6354 44.8042
9.59486 11.6886 46.5129
9.52886 11.4952 43.254
9.27044 12.051 47.4381
9.78625 11.4097 44.1321
9.80303 11.8996 47.5983
9.35676 11.9565 46.3251
9.76336 11.9731 47.3147
9.56914 11.9868 47.1076
9.50595 11.9294 47.9661
9.70519 12.5643 47.0245
9.5203 12.0355 48.346
9.98605 11.6332 44.7672
9.67186 11.6257 47.573
10.0225 11.702 44.736
9.30138 11.8215 46.1573
9.6836 11.9431 46.5795
9.60352 11.7808 47.0513
9.52112 11.9116 46.6865
9.71666 11.6801 47.2241
9.54839 11.7452 45.1067
9.43784 11.6357 44.8685
9.29969 11.5235 46.6009
9.5029 11.5188 43.3567
9.38473 11.7878 46.3317
9.41633 11.8927 46.6588
9.55815 11.5159 44.3204
9.46509 11.5064 44.959
9.41371 11.2204 45.2526
9.44934 11.339 45.2563
9.51896 11.6076 46.2853
9.39965 11.7343 45.0616
9.4811 11.5021 46.1044
9.52679 11.1693 44.1452
9.49683 11.0623 44.4053
9.49008 11.9349 47.2731
9.41668 11.6876 45.7597
9.54743 11.5482 46.8347
9.37109 11.3553 45.3457
9.57589 12.0588 47.0068
9.57682 11.9081 45.3166
9.49587 11.2002 45.3715
9.49435 11.5178 44.7737
9.28517 11.8542 46.5609
9.32311 11.3316 45.2465
9.34402 11.655 44.9899
9.41727 11.3819 45.6445
9.32206 11.849 47.0328
9.28267 12.1917 47.8095
9.44401 11.7444 44.2738
9.16667 11.1899 44.7755
9.44331 11.0144 47.7443
9.87848 11.6122 44.0298
9.14705 11.3397 43.904
9.48684 11.3692 46.0647
9.62526 11.9977 47.0924
9.44607 11.5089 45.2872
9.33485 11.2465 47.5214
9.48305 11.8377 45.8467
9.54445 11.5885 44.546
9.40695 11.6577 46.675
9.67187 11.532 45.9791
9.63577 11.2996 46.8977
9.42856 11.5854 44.5549
9.38896 11.5939 43.9362
9.13511 11.2155 45.6268
9.46268 11.8043 44.796
9.43762 11.5911 46.7385
9.2882 11.7417 45.3281
9.45103 11.0675 43.4624
9.32537 11.5788 46.6542
9.42608 11.2832 43.4756
9.23887 10.9312 45.0607
9.14788 11.4169 46.0122
9.2194 11.351 45.1491
9.20842 11.5038 44.7681
9.32547 11.2687 44.688
9.38859 10.9487 44.3865
9.32767 11.556 47.1201
9.21717 11.4492 46.1034
9.50765 11.6492 46.4654
9.67183 11.4371 45.3362
9.03113 11.256 44.6593
9.27353 11.6628 46.5213
9.40324 12.127 45.2764
9.33843 11.0829 45.2584
9.47234 11.3767 45.0305
9.1693 11.1135 44.6767
9.25272 11.1319 45.8856
9.54103 11.5154 43.2026
9.25216 11.1561 46.6249
9.54163 11.3153 45.2052
9.26355 11.2371 44.6957
9.35435 11.155 45.2802
9.17821 11.6523 46.407
9.37128 11.7743 45.7109
9.4049 11.4538 43.9131
9.27191 10.5423 43.3521
9.1082 10.7801 44.1395
9.15967 11.1213 46.5148
9.41457 11.6987 45.3113
9.26411 11.5189 42.7398
9.19 11.0877 44.9244
9.1629 11.334 45.088
9.43783 10.8091 43.4682
9.02223 11.4082 46.158
9.23402 11.4568 46.3248
9.31097 11.7693 45.144
9.14 11.2629 45.0482
9.13728 11.4209 45.7113
9.59607 11.0553 44.6571
9.30399 11.2725 45.0397
9.01812 11.6434 46.8054
9.23014 11.2582 44.1988
9.48452 11.4496 43.345
9.11768 11.095 46.2158
9.68906 11.515 47.459
9.75059 11.8985 47.5505
9.59155 11.4923 46.3058
9.30447 11.5867 46.7961
9.25141 11.5699 44.6082
9.13981 11.2593 45.4712
9.30428 11.4831 44.4259
9.16507 11.2023 46.6208
9.28811 11.4977 46.8963
9.3331 11.4399 44.169
9.25915 11.7378 47.5442
9.59623 11.7954 46.5777
9.1761 11.6258 45.9992
9.24654 11.3978 47.0417
9.54179 12.0901 46.42
9.16889 11.4979 46.5775
8.97524 11.3268 46.9988
9.16411 11.6596 45.6959
9.43425 11.7072 45.1944
9.21128 11.1604 45.8259
9.29871 11.4286 46.3031
9.46016 11.8901 47.7788
9.59527 11.6965 46.1131
9.15222 12.2145 49.3593
9.551 12.4476 49.3426
9.34968 11.9624 48.981
9.67207 0 0