# pn-170911/CsIIA-38-CsIIA-1280-1959.psd
# Power spectrum* (dif=0,1,2) (really just |FT|^2)
# NOTE: only the first half! (symmetric)
# weeks: 1280-1959
# 2574 clock-days, 1244 excluded
# PSD: 1441
41877.9 1.61329 0.0667818
2.92465e+06 56.5893 0.0598133
1.32576e+07 262.184 0.0674312
2.97804e+06 113.717 0.0627036
2.88769e+06 203.249 0.0741272
1.07372e+06 108.593 0.0724024
786842 113.814 0.0808333
568652 111.146 0.086587
458156 115.943 0.0967693
350056 111.182 0.0991066
287249 110.788 0.110323
234964 109.917 0.123798
198021 111.146 0.133337
167084 109.619 0.151059
150230 116.25 0.169347
128906 114.699 0.183746
112343 114.501 0.196418
95658.1 108.188 0.205229
91142.3 115.303 0.237093
77233.3 109.332 0.243836
69702.4 111.98 0.270403
64696.2 110.923 0.293091
59996.1 113.91 0.312673
52371.4 107.505 0.334211
48876.6 107.534 0.353409
43960.6 108.754 0.376265
41566.5 108.601 0.41015
40172.9 113.417 0.442701
35488.5 109.663 0.463396
33893.4 112.434 0.512779
31490.5 112.851 0.540531
28342.6 109.826 0.563676
27389.8 110.028 0.593535
26658.9 114.447 0.653017
23623.7 108.486 0.639697
23099 111.09 0.702776
21933.8 109.536 0.739523
20890.6 113.489 0.803483
19522.8 111.704 0.832666
18416.7 108.623 0.856471
17858.8 112.245 0.915643
16361.9 107.466 0.919913
16249.1 112.078 1.00725
14862.5 107.734 1.00431
14405.5 109.101 1.05621
13736.7 111.008 1.12302
13282.4 111.709 1.18816
12849.4 111.697 1.24333
12617.3 113.079 1.30846
11865.9 110.232 1.3102
11012.7 108.172 1.33695
10851.5 110.844 1.41607
10429.5 110.609 1.4904
10084.1 112.524 1.55814
9691.93 111.289 1.60119
9256.77 111.481 1.66886
8915.75 110.884 1.71422
8541.07 109.708 1.74745
8458.08 111.428 1.84805
7906.93 108.183 1.84255
7603.54 108.146 1.90379
7742.54 113.738 2.06057
7291.37 108.522 2.04326
7033.16 110.208 2.13415
7114.59 114.955 2.31433
6706.2 111.391 2.3038
6323.13 106.353 2.25503
6108.48 105.639 2.33111
5881.06 107.794 2.44546
5804.91 107.754 2.48776
5618.96 108.869 2.58599
5702.86 111.612 2.72141
5501 109.693 2.76759
5172.41 108.284 2.79665
4972.53 107.818 2.8691
4809.91 105.677 2.89302
4959.25 113.025 3.14126
4717.56 106.795 3.08488
4719.83 111.671 3.27752
4376.03 108.153 3.25586
4365.03 106.538 3.2996
4280.02 110.256 3.5089
4197.03 110.296 3.5854
3990.91 105.481 3.5142
3891.19 107.183 3.64442
3847.1 108.209 3.77262
3777.42 110.098 3.89882
3702.84 107.974 3.9112
3548.5 104.923 3.90491
3498.37 109.332 4.15922
3529.7 111.261 4.32067
3300.55 106.243 4.23606
3265.38 109.043 4.43973
3296.06 110.666 4.59817
3092.91 104.971 4.47841
3101.25 108.828 4.73711
2960.44 106.841 4.69255
3013.04 108.264 4.86533
2957.39 108.941 5.05386
2817.7 108.639 5.12538
2734.15 106.475 5.11678
2614.46 104.049 5.07249
2679.77 106.661 5.34108
2648.05 109.25 5.52131
2588.01 106.816 5.50163
2577.17 108.228 5.71304
2451.44 105.788 5.67768
2381.51 107.256 5.87893
2339.82 104.55 5.81086
2281.56 104.084 5.91476
2320.48 109.254 6.32959
2183.17 105.363 6.1921
2205.52 105.567 6.32908
2137.35 105.89 6.48334
2114.81 104.377 6.48111
2079.78 105.811 6.64186
2013.67 104.973 6.70175
1989.52 106.313 6.89897
1902.77 105.47 7.02188
1921.97 104.452 7.00861
1970.32 108.391 7.41813
1882.04 104.807 7.34109
1825.21 106.397 7.5496
1786.99 103.113 7.3857
1749.34 103.013 7.53229
1662.7 100.102 7.45096
1732.76 108.484 8.1668
1632.85 99.91 7.67643
1680.09 105.866 8.2487
1632.35 106.074 8.40305
1628.97 104.866 8.41938
1580.97 104.534 8.51604
1617.9 108.09 8.96645
1578.11 108.928 9.14659
1504.22 103.884 8.90011
1513.11 104.576 9.01493
1431.82 99.892 8.77437
1411.97 103.538 9.20237
1401.34 102.613 9.26292
1402.25 104.421 9.57573
1415.4 105.522 9.81282
1318.65 101.091 9.52399
1362.77 104.735 9.95712
1319.02 104.224 10.1246
1304 105.886 10.4021
1255.03 102.299 10.2301
1266.29 102.768 10.3191
1221.23 100.38 10.289
1245.58 105.354 10.9221
1222.34 103.628 10.8912
1152.91 99.0924 10.5393
1152.59 100.577 10.8807
1133.88 98.6073 10.7738
1099.43 99.1766 10.9607
1117.22 101.292 11.3854
1071.28 98.4398 11.1874
1104.85 101.926 11.7495
1073.23 100.246 11.6604
1043.54 100.712 11.8026
1040.79 99.0316 11.8553
1054.77 102.354 12.3607
1027.12 102.428 12.5244
1018.32 103.252 12.7943
996.073 100.283 12.5788
953.178 98.0798 12.4952
975.046 101.877 13.1317
950.395 98.7484 12.8348
913.332 97.6138 12.8945
934.559 100.415 13.2952
927.7 101.32 13.597
940.322 103.16 14.125
891.125 99.7025 13.7617
901.683 101.615 14.1375
854.561 96.7943 13.623
847.138 98.0052 13.989
871.5 101.232 14.5847
837.397 97.5094 14.1944
848.182 101.623 15.0614
840.495 99.9929 14.9294
809.448 98.2386 14.7514
783.262 95.342 14.5432
795.094 98.7594 15.278
778.833 97.8605 15.2682
781.264 98.9507 15.5673
753.58 96.1778 15.2488
762.352 98.2896 15.8188
755.048 98.9683 16.1077
767.416 99.8671 16.3873
737.607 98.2554 16.2456
732.928 97.7659 16.4881
707.902 96.2624 16.3192
718.473 97.7096 16.7961
710.447 97.9519 17.0183
683.021 96.2115 16.7647
679.629 98.3043 17.3558
666.155 95.6264 17.0592
641.053 93.7488 16.874
653.879 96.5155 17.5661
648.063 95.6202 17.6259
643.822 94.8033 17.7104
605.914 92.3121 17.3527
623.046 94.2251 17.752
622.257 96.4656 18.4301
586.251 91.18 17.6263
589.178 93.0735 18.1706
605.631 94.8235 18.605
608.369 97.2273 19.2738
573.335 92.7346 18.6062
580.199 92.9306 18.8916
571.699 94.3108 19.2929
568.051 95.571 19.6929
565.889 93.881 19.5289
558.507 91.7585 19.3027
559.426 93.9822 19.9847
555.567 95.5719 20.6111
527.328 89.7514 19.47
525.807 90.6862 19.8246
518.441 91.872 20.184
533.342 92.1789 20.3891
508.377 90.4382 20.2775
513.518 93.426 21.0728
517.922 94.383 21.357
502.064 91.9473 21.2806
506.988 94.509 21.9012
488.249 91.3459 21.3752
497.107 93.8816 22.1366
482.385 91.8397 21.9475
464.728 89.0959 21.5282
458.301 88.2352 21.4763
469.674 93.5929 22.8288
467.087 87.6763 21.6899
455.404 89.9917 22.4786
446.644 90.8669 22.904
447.06 91.3395 23.0381
443.785 91.2271 23.3529
450.067 91.0836 23.4927
443.313 90.1715 23.2543
432.572 90.4339 23.8557
430.432 89.045 23.6406
447.968 92.5683 24.6312
434.853 90.3243 24.2055
418.589 90.5441 24.4901
411.786 90.5298 24.5421
412.772 90.5487 25.0014
417.1 92.7453 25.8174
407.506 89.5227 24.9825
409.44 91.0847 25.5367
402.78 90.4227 25.5482
408.414 90.8352 25.8628
385.694 89.8569 26.1556
383.3 87.4547 25.4042
375.269 87.681 25.7217
386.093 89.6095 26.3568
372.631 86.574 25.6297
362.111 85.8063 25.7236
371.899 88.5118 26.7284
356.182 86.456 26.3159
354.221 86.5335 26.8364
364.525 86.8776 26.6341
370.065 92.4989 28.6951
367.487 88.972 28.1136
358.915 88.9628 28.0109
344.664 84.1705 26.6553
349.955 88.4665 28.3595
339.21 85.5012 27.5671
343.621 88.0464 28.7227
340.581 87.7905 28.5263
339.669 87.2534 28.8012
328.767 85.0014 28.2995
332.984 86.7616 28.7813
318.365 83.3224 28.4462
321.771 85.1367 28.7221
316.735 83.2829 28.4024
315.277 85.6969 29.7622
313.375 85.6167 29.5758
315.004 86.3727 30.149
303.814 83.3247 29.3723
307.185 85.3919 30.378
305.179 83.1735 29.784
301.971 84.0962 30.1714
299.617 84.1493 30.4833
298.875 84.5707 31.1076
299.341 84.3754 30.5987
292.563 82.4745 30.4675
280.031 81.8286 30.471
289.618 83.7137 31.4239
278.145 83.5095 31.3826
281.447 83.3658 31.5729
279.05 79.0957 29.9472
275.092 83.5212 32.3161
275.233 81.7143 31.8443
284.936 86.5746 33.8935
267.983 81.3823 31.9875
281.159 86.733 34.3315
259.274 80.9234 32.2093
266.286 83.4347 33.5972
276.504 85.2652 33.9735
262.503 81.4009 33.1128
260.834 82.75 33.7727
262.718 83.6117 34.3666
256.789 83.6022 34.5221
253.431 82.9559 34.465
247.685 79.9633 33.2703
251.092 82.0339 34.5232
246.058 79.6557 33.641
238.58 78.4366 33.4497
244.295 80.5242 34.7857
233.325 77.2345 33.6273
237.725 79.8309 34.6117
239.688 79.8555 35.0214
244.832 81.9583 35.6754
233.958 78.1426 34.9268
229.777 79.1977 35.039
222.531 77.4229 35.0232
235.281 80.0383 36.2467
230.333 79.0354 35.8818
225.256 78.7948 35.7994
225.061 79.0474 36.3322
222.924 79.8888 36.7176
223.573 79.5083 36.7379
230.366 81.1247 37.8342
216.163 78.1863 37.0917
225.195 79.927 37.8763
211.914 77.2958 37.0593
211.015 78.4489 37.5072
203.375 75.559 36.3708
208.608 76.043 36.9763
210.6 78.5739 38.4723
207.534 78.0057 38.1946
199.616 76.1053 37.9218
200.618 75.8021 37.554
205.406 79.6193 39.4985
197.949 73.7523 37.2777
200.714 76.4132 38.2185
207.315 80.9974 41.0814
189.933 74.9888 38.3085
194.114 77.5812 39.8653
190.275 74.8175 38.9801
193.309 77.6055 40.3641
189.408 77.8132 40.9248
189.644 73.7904 38.2653
185.88 74.8294 40.1349
192.484 77.6004 41.0538
182.428 74.5109 39.8542
192.538 79.3091 42.3336
185.491 76.684 41.3201
177.221 73.7115 40.128
183.465 75.3266 41.2561
178.651 73.7512 40.8734
179.909 76.4303 41.9846
178.659 75.0984 41.6
178.287 74.982 42.0291
179.635 74.6854 41.695
178.938 75.641 42.51
170.776 75.0883 42.3543
168.788 72.1629 40.7932
175.699 76.8022 43.9942
170.987 75.3533 43.8795
165.545 74.2121 43.0627
168.223 75.2433 43.8011
165.52 74.4261 44.114
168.543 74.2664 43.506
166.77 73.3494 43.0943
166.334 76.2734 45.9197
172.776 74.1175 43.5682
154.123 69.7509 42.3899
162.64 72.6214 43.511
155.528 74.0936 45.6051
163.161 75.0556 45.2467
155.731 71.5759 44.2594
151.695 70.5883 43.4731
154.676 71.4746 44.1585
157.51 72.5542 44.9772
151.085 70.0604 44.122
149.235 72.4498 45.8869
151.916 71.1115 44.7063
147.455 70.2747 44.7935
148.408 73.0382 46.5738
145.153 69.1149 44.6978
147.086 68.9308 44.7429
145.361 70.424 45.7616
143.523 69.6851 45.3624
146.206 71.3907 47.0235
143.019 70.1712 46.0484
140.856 69.3123 45.461
133.081 67.8941 45.7209
137.458 68.6837 45.5585
139.025 68.3736 46.3897
138.472 68.841 46.3248
133.784 69.2465 47.4479
137.899 71.0694 48.2052
142.036 70.9116 48.6756
139.806 70.3027 47.9782
135.496 68.8913 47.7088
134.602 68.1615 46.6898
130.835 68.8294 48.5267
141.189 72.7766 51.3006
135.19 69.0842 48.7949
130.387 69.0815 48.5967
131.159 68.2148 48.2118
128.652 68.155 48.8161
129.829 67.941 48.3799
126.763 67.6163 48.6146
124.222 65.9954 47.9219
122.957 66.5823 48.6489
128.54 68.6723 49.9461
121.393 66.8489 49.2984
125.767 68.5663 50.8505
119.266 65.0837 48.5977
124.872 66.452 49.0569
124.706 67.1715 50.4381
119.597 65.6663 48.9894
114.876 62.8416 47.953
120.257 65.5038 49.3606
117.079 67.332 51.4783
119.669 65.7404 50.6344
116.84 66.6335 50.9316
118.633 68.6416 53.4208
117.82 66.2396 51.5122
115.518 64.2726 49.8671
115.189 66.8762 52.666
115.334 65.3711 51.0973
113.856 66.8143 52.3241
114.223 64.9168 51.0724
112.749 66.201 52.1659
110.758 66.165 52.9701
113.926 66.7264 54.2497
111.161 64.077 52.094
111.469 66.7678 54.5766
112.932 65.4851 53.3311
105.73 62.391 50.645
107.311 64.6717 53.334
108.59 63.6143 51.6546
108.058 65.4945 54.3068
103.195 62.6032 52.658
106.38 64.8252 54.7029
107.626 65.1791 54.4584
104.139 63.9422 53.932
102.742 63.2289 52.7765
101.887 62.754 53.5871
105.663 62.9703 53.8431
103.207 65.1521 55.2827
102.83 63.5225 54.119
96.6324 60.2561 53.1757
102.093 62.9609 54.5256
101.528 62.064 53.4274
100.448 62.6865 54.4617
99.887 62.7593 54.5828
97.63 63.9288 56.9291
99.8144 62.3865 55.3343
96.5938 62.5253 55.4095
95.6252 62.2775 55.75
98.3821 63.5192 57.3592
98.2746 61.155 54.7044
95.6533 63.3595 57.3185
96.8497 61.3588 55.3771
92.9332 59.7216 54.4696
92.2935 61.5573 56.7965
94.4549 61.1903 56.3176
95.2083 63.264 57.3928
91.9044 63.0358 59.0532
96.1744 63.3153 58.6042
93.6263 60.3484 56.8534
88.5549 59.1381 55.278
92.3127 61.7745 58.4033
89.3372 60.8762 57.2992
90.3639 60.3358 56.7604
87.1451 58.5386 55.8269
88.2001 58.4452 56.2461
83.0992 57.5234 56.0451
89.0492 61.4511 58.9342
86.7495 60.144 57.786
85.752 59.2497 57.2043
85.5288 56.776 55.0866
84.3158 59.1086 57.8591
85.7745 58.6631 56.963
83.9166 60.3978 59.6923
83.9945 58.6181 57.5366
83.2297 58.5698 58.4599
82.4831 58.2119 57.7304
84.1219 60.3619 60.461
82.4617 57.6984 58.2658
81.0366 58.7251 59.1601
82.297 58.7569 59.5305
81.0339 56.8806 58.1123
80.9169 57.3334 57.3969
78.9756 58.4424 60.5567
81.701 58.8249 60.1829
79.9221 58.6167 60.2122
80.5077 58.3168 59.3959
79.1816 56.7029 59.39
79.1371 56.9406 59.1152
78.3066 57.7642 60.4198
77.8941 57.6287 60.8244
77.513 56.6464 59.2631
76.0074 55.1857 58.4728
75.9288 55.1939 58.6155
75.0903 54.444 58.2927
74.2938 55.6342 58.9822
73.2105 52.9382 57.2181
75.7796 56.191 60.1909
73.8149 55.5215 59.6271
74.2573 55.0058 59.9301
75.1323 55.349 60.677
77.7088 58.5211 62.5344
74.4659 57.4306 62.3497
71.0284 53.9438 59.3205
70.1231 53.1765 60.488
73.6798 56.3132 61.785
71.1827 55.4154 61.9029
73.6385 57.1227 62.903
70.2169 54.3601 60.8466
70.2414 53.8397 60.7362
73.271 56.5941 63.3573
69.2449 55.1547 62.7532
68.8205 54.1847 61.3797
69.6045 55.7869 63.9746
68.1226 52.4441 59.6233
68.1856 53.663 62.0865
70.834 55.5384 62.6063
67.4601 53.5639 61.7272
67.5888 54.3779 63.6562
67.5676 54.8731 63.7115
67.3878 54.3811 63.266
67.1974 53.8067 62.7446
69.6157 54.4999 63.9177
65.9252 52.2647 61.8016
65.4096 53.6201 62.8988
65.5474 53.5232 63.776
66.3209 53.8693 63.1409
63.2411 52.1368 63.5458
65.8317 54.2005 64.6868
65.8995 53.5815 64.1777
64.769 53.1585 63.9711
62.2831 51.938 62.8873
62.783 52.7987 64.6296
62.1685 52.1967 64.3021
62.3814 53.3805 65.1587
63.5032 52.9893 64.7138
61.9532 51.1087 63.2276
61.4939 52.0487 64.5204
61.8059 52.1299 64.1596
60.8954 50.6505 63.7467
61.9162 51.3956 62.9112
60.0537 51.4863 64.8685
58.4482 50.6011 63.6695
60.6496 50.6887 63.6612
59.3121 50.21 63.6624
60.1449 49.7577 62.9605
60.7419 52.106 66.4812
59.1954 51.0104 64.9442
60.2162 52.0176 66.3768
58.1197 49.4266 63.969
59.2497 51.1988 65.2468
58.137 50.5944 65.0858
56.5368 48.634 63.4994
57.1468 50.4453 65.468
57.2817 49.6069 63.4803
56.7788 49.7356 65.2825
55.0679 48.8565 64.1755
56.8041 50.6244 66.6426
56.2702 48.7615 65.0697
57.6849 51.2207 67.5464
54.5787 49.12 66.6302
57.3563 50.1021 66.4737
57.1433 51.4576 69.0892
56.3782 50.5089 67.2634
55.684 50.1749 67.3396
54.8874 50.2822 66.3751
54.601 50.2087 68.0963
54.0106 50.5438 68.1487
54.3129 48.6821 67.1183
54.4187 48.4705 65.0934
53.558 49.3599 68.153
53.4256 47.2007 65.433
52.1983 48.3461 66.5915
51.6875 48.1215 66.2898
52.6669 47.8187 66.6201
52.4584 48.3305 66.3512
52.8086 49.7922 69.2476
52.7011 47.7745 67.3395
50.8801 47.7838 66.9768
52.6901 47.7141 66.4891
52.1648 50.4793 71.7131
51.4437 47.3267 67.7358
52.0106 47.7407 67.9063
50.0759 47.5417 67.574
51.1042 47.1322 67.2802
51.0563 48.0577 67.9362
49.7101 46.8847 66.6049
50.1144 48.1421 68.3397
48.4731 45.3255 67.1078
50.3004 47.0627 69.0829
51.1615 48.8455 71.2225
49.4097 45.9462 66.626
48.5592 45.9047 66.1895
48.1868 46.9313 69.7943
48.6448 47.2288 70.0657
47.5524 45.8161 67.9514
48.8215 46.6212 68.7944
48.2115 44.4077 65.3821
48.2803 45.5476 67.4256
48.3083 45.5119 66.9589
47.09 45.8169 69.6722
47.5948 45.6551 67.2877
45.9181 43.9768 66.5802
46.5404 45.8274 68.8764
46.2599 44.2791 66.5905
45.8999 45.2286 68.0278
44.0655 43.6318 67.2452
46.2549 45.5554 68.2895
45.4831 45.1669 67.8228
43.5373 44.4968 69.4984
47.4364 45.2434 68.875
45.1254 45.5408 69.6644
46.2794 47.3821 73.2042
44.7688 43.1738 66.3927
43.4326 44.2561 68.6099
44.4446 44.8588 70.6462
45.9507 46.8216 71.2342
43.7591 44.2012 69.9397
44.696 44.7535 70.7158
42.9669 44.1667 69.406
44.2042 45.5174 72.5108
41.8287 43.0754 67.3555
41.8641 42.1913 69.0105
43.8563 43.7815 68.4238
43.045 43.1708 68.8957
41.0817 43.1793 70.6657
42.9547 43.9059 70.5247
43.6827 45.0178 71.4863
41.4613 42.9148 69.2049
42.3638 44.0658 71.8021
42.5891 43.5422 71.2715
42.389 43.5706 70.5587
42.6933 44.1323 72.3956
41.8755 42.5566 68.4239
41.7555 42.8765 69.488
40.749 42.6673 70.5675
41.2136 41.7966 69.7872
39.9527 42.6609 71.1317
40.4018 42.4267 70.9321
40.2806 43.0567 70.72
40.6494 43.4058 72.2536
38.9789 40.5618 67.0805
39.3617 42.6957 73.1745
39.9025 42.3379 70.8697
39.6601 42.5504 71.1704
39.7939 42.6126 70.9869
39.3651 42.9454 73.4928
40.0658 41.2159 68.4498
39.7755 42.846 74.4347
40.9234 42.453 71.376
37.8378 40.6711 69.0053
39.1718 43.3845 74.5058
37.8547 41.4916 72.4248
38.9021 42.8388 73.7558
37.67 40.4023 69.5555
37.5892 41.9963 72.3317
37.3074 41.8433 71.0374
37.8098 41.811 72.5495
37.2966 40.8502 70.9847
36.6349 40.6698 71.9151
37.6852 40.5932 70.7052
37.1752 41.004 72.9114
38.4659 41.8319 71.5932
36.384 41.2845 73.7196
37.5947 41.2887 72.9681
37.3885 40.5897 71.1913
36.197 40.2427 72.1539
36.8775 40.2758 71.7819
36.8414 40.8301 72.6849
35.8444 40.174 72.5774
36.8312 40.8436 72.2545
35.3031 41.0421 73.2631
36.1928 40.5547 73.0591
35.3516 39.3353 71.6948
35.6858 40.0641 71.9397
33.9128 39.7665 73.3031
36.4667 41.217 75.042
34.8729 38.4917 71.0101
35.8974 39.7627 72.7909
34.7932 40.0601 74.3482
36.1617 39.6735 71.6975
33.6296 38.1243 71.2843
34.734 39.5252 72.9673
34.4154 38.6998 71.2715
34.367 39.3211 73.3283
34.8161 39.6313 73.7363
34.1105 38.8372 71.9014
34.1108 37.9006 70.0655
33.3268 38.931 72.6906
33.2747 37.3978 71.5894
33.821 38.4923 72.1341
33.5417 39.5277 73.9737
33.4692 37.9328 72.2655
32.3777 37.8536 72.7022
32.585 36.3502 69.0611
33.1581 38.7003 72.9436
33.2589 39.1652 74.3734
32.8012 38.0966 72.2714
32.0181 38.3907 73.279
32.5862 38.7442 74.6377
32.0222 36.1889 70.8816
33.0121 39.5244 76.1539
32.6006 38.2962 72.6262
32.1768 38.589 75.1474
32.4283 38.1172 73.7957
31.6881 37.0915 73.6324
31.0496 37.0102 71.7387
32.145 37.3833 73.0324
31.9055 38.9778 76.8087
31.9379 37.7644 72.8958
31.1629 37.7094 75.7313
31.0568 36.6264 71.4686
31.3872 36.7927 72.6672
31.4295 37.3295 73.6065
30.9821 36.5044 73.3852
32.1336 36.8461 72.141
31.5337 37.0853 73.5351
31.1895 37.6376 75.6742
30.6867 36.2849 73.103
29.9728 36.4552 71.5335
30.7149 36.658 74.5875
29.6238 35.8169 72.3693
30.6913 36.9291 74.0807
29.7733 36.5437 74.3992
29.8945 36.4757 74.516
30.1723 35.6261 71.6687
30.0528 36.384 74.4464
29.8819 36.6712 74.1655
29.6485 35.0711 71.9854
30.6744 36.8106 73.8058
29.0146 35.1558 72.6388
29.5665 35.9783 72.5015
28.4004 35.4529 74.1124
29.1609 35.6728 74.6086
29.7089 34.4266 70.0992
29.244 35.5703 73.8992
29.3386 36.7752 77.1353
28.5364 35.1667 73.4836
28.8967 35.9699 76.1628
28.6015 34.0436 69.8333
28.13 35.4155 74.3872
27.9688 35.5894 75.1284
29.633 34.7077 72.8145
28.6085 35.9992 74.8437
28.0239 33.7009 72.2291
27.8943 34.8557 75.0399
28.0755 35.0857 74.725
27.5242 34.3305 71.1711
27.5901 34.3292 74.1135
27.8854 35.5482 76.4397
28.2532 34.5851 74.3493
28.2734 34.7276 74.3001
27.8514 34.8889 73.7046
26.7679 33.227 74.6953
28.3275 36.274 78.3309
28.1283 34.6743 73.2276
26.3528 33.4861 72.7905
26.6513 33.7658 73.5844
27.6961 34.043 74.449
26.5756 33.3037 72.8002
27.7761 33.9468 72.5443
26.7989 34.3199 75.9077
26.485 34.0391 76.0721
26.6143 33.879 73.3059
26.4603 33.7494 75.2412
26.3913 32.7805 72.0478
25.9309 32.3953 73.0783
26.6097 33.659 74.2818
26.2518 32.2543 73.175
27.2723 34.1044 74.4034
26.6117 34.8179 78.2984
26.2131 33.6161 74.4829
26.92 34.2592 75.99
25.7506 33.2899 74.8571
25.6946 33.7672 76.1766
25.4384 33.1842 73.9569
25.4113 33.2399 75.021
25.0504 32.6699 73.4147
26.0385 32.9334 74.3717
26.4971 33.5202 74.3022
24.808 31.4666 72.3889
24.9355 31.9463 74.1051
25.3312 31.9201 72.6401
25.7044 32.3536 74.1051
26.1402 33.3569 75.5642
24.772 32.1909 72.1821
25.0151 32.6709 75.6776
24.9697 32.3334 75.6732
24.9454 33.1549 75.6345
24.7398 30.963 71.8235
24.6904 32.3877 73.7686
24.2365 32.8389 76.3639
24.4942 32.0042 75.2291
23.464 30.7747 72.9167
24.4101 31.8541 74.0529
24.8053 32.2117 73.9191
24.006 31.7212 75.5886
24.5954 32.0369 75.2157
24.6617 31.3407 72.249
24.5132 32.8956 76.1645
23.2659 31.0599 75.8425
23.8872 31.3315 74.4258
24.6535 31.5151 72.1476
23.4012 31.8005 76.3403
23.5733 30.4072 74.4515
24.5018 32.548 77.9839
24.1611 31.0401 71.6656
23.4056 31.2819 73.2404
23.5987 31.1089 74.6732
23.8634 30.8021 74.9624
23.5382 31.1834 74.9155
23.6246 31.3279 75.2669
23.085 30.2151 75.1963
23.4675 30.8922 73.1383
22.6122 30.3411 73.7164
23.6816 30.9735 75.7076
23.2377 29.8495 71.0598
22.5481 30.9707 76.1728
23.231 31.3368 76.1243
23.5007 30.9464 75.111
23.1831 31.0881 77.5022
22.9137 30.9095 74.0602
23.3089 29.9731 72.9833
22.0657 30.0769 75.2835
23.0717 30.5227 73.6241
22.4377 30.1645 74.5804
22.0791 29.3505 72.6344
22.2179 30.33 74.5757
22.2166 29.1488 72.8557
21.8773 29.2353 72.6385
22.2022 28.9919 72.4889
22.1031 30.0276 74.5216
21.932 30.2861 75.4895
21.7001 29.3955 74.0329
22.5099 30.4602 74.5398
21.47 29.6811 75.1568
22.3184 29.3223 73.4446
21.5969 30.1589 76.4551
21.608 29.0542 71.2483
20.5239 29.0276 73.0767
21.4936 29.5338 75.853
22.1055 30.4174 76.7057
21.8968 30.1922 75.5365
21.1426 28.3079 72.4454
21.755 29.6124 74.084
21.2179 29.8561 79.7202
22.0994 28.9908 73.1901
21.0448 28.9365 74.9081
20.6217 28.4191 74.2411
21.9795 29.8936 73.7216
20.8415 28.3748 73.4405
21.6667 29.797 76.4357
21.7133 29.867 75.783
20.953 29.1619 75.8767
21.3125 29.4411 76.1935
21.1692 29.6338 75.5426
20.8191 27.9568 72.22
20.9025 27.6215 72.1051
20.249 29.1941 78.0815
20.7243 28.4812 73.5288
20.2115 29.4125 75.9063
20.4835 28.6965 75.7706
20.9966 28.5863 73.8553
20.5664 28.2461 75.0762
20.9296 27.6003 71.8328
20.4877 29.6944 76.9713
20.164 29.0616 76.3979
19.9419 27.2491 73.1226
20.1837 27.789 72.6689
19.8616 27.7293 74.2565
19.8974 27.7789 71.719
19.226 26.8018 72.7247
19.5197 27.4681 72.2364
19.8424 28.1991 79.5895
20.8342 28.757 75.6169
20.2573 27.4117 72.4963
19.1667 26.523 72.912
19.8491 27.6134 73.3932
20.2228 28.7539 77.0367
20.4758 28.1903 74.2746
19.2056 26.7777 71.7641
19.2362 26.9923 73.3102
18.8384 26.4253 71.2996
19.3985 26.4993 73.0224
20.003 26.9076 71.6846
19.2464 26.301 70.7253
18.8412 27.4591 74.9836
19.3519 27.063 73.9556
18.8753 26.5241 72.5437
19.3922 26.0001 73.6933
19.599 26.9344 72.2649
19.2218 26.9907 72.6968
18.8688 26.8302 72.5574
18.7501 26.8842 74.6716
19.527 26.406 72.507
18.9735 26.9814 72.9891
18.6923 25.9425 73.3118
18.9841 26.5913 73.6757
18.7467 26.6849 73.9606
18.0763 27.2992 75.8289
18.7311 26.7873 75.1598
19.0655 26.6234 73.8098
18.7822 27.0928 74.5565
18.5399 26.3448 73.6888
18.5459 26.4494 73.7793
17.9187 25.8392 72.532
18.2503 26.4968 73.6623
18.0856 24.7623 70.7778
18.5106 26.4353 73.0892
17.964 25.6103 74.4503
18.5351 26.1667 70.9613
18.3782 26.014 71.9955
18.0819 25.9706 72.2972
17.7759 25.3602 71.8898
18.0924 26.6452 76.6148
18.4784 26.0544 72.6001
17.8992 25.4018 71.6341
17.5441 24.4588 71.5084
18.0823 25.9457 74.2514
18.3833 25.776 72.8612
17.9709 24.2389 66.6136
16.9535 25.6089 73.6087
17.234 25.6783 74.3432
17.5791 24.8247 71.1917
17.5994 24.8002 70.7279
17.7135 25.6019 72.496
17.7651 25.473 72.7668
16.5747 24.9773 71.7661
17.3371 24.5993 71.8458
16.796 25.6462 74.8193
17.8982 25.5529 73.8363
17.0828 24.2887 73.1839
17.9731 24.8689 72.3901
17.6793 25.7395 72.7119
16.481 24.0546 71.9571
17.479 24.388 70.6156
17.4999 24.4545 71.046
17.2506 24.8525 71.0374
17.0349 24.9947 74.7614
17.4968 24.7728 72.7976
16.903 24.7344 73.3079
16.8417 23.8166 71.4026
17.3931 24.6314 71.4226
16.7044 25.0822 74.1231
17.1155 24.3383 71.744
17.3727 24.6538 71.6811
16.9205 24.3706 71.1825
16.5055 24.2267 73.0858
17.3936 24.6994 73.3285
16.7851 23.9354 71.1834
16.5993 24.4733 71.3321
16.9967 25.0541 72.5467
16.6637 24.4371 73.5159
16.3671 24.2487 74.3244
16.5705 24.4544 72.7042
16.571 24.5753 73.5661
16.1839 23.2979 69.7757
16.1974 23.1014 68.8437
16.1784 23.8878 73.3919
16.3652 23.787 70.987
16.2231 23.4515 68.8781
16.2644 23.7648 72.604
16.652 23.591 70.1394
16.0758 24.504 72.0314
15.9099 23.9486 72.7481
15.9352 23.1766 72.1276
16.6982 23.5592 70.8824
16.1036 23.1856 71.8212
16.2982 23.6998 71.0075
16.3695 23.5086 71.5419
16.2252 23.0784 68.6528
15.3352 22.6208 71.948
16.5384 24.0367 71.4602
15.6315 22.9659 69.7882
16.1311 23.5049 70.8088
15.6706 22.7018 70.193
15.6655 22.85 70.7262
16.2332 23.6902 70.5536
16.0305 23.1407 71.883
15.6253 23.8806 73.7121
15.9532 22.8303 71.5784
16.0732 23.2159 71.3701
15.7836 22.7847 68.949
15.6098 22.3185 68.5942
15.2626 22.1226 69.4529
15.6614 21.9667 67.5366
15.2184 22.8938 71.1724
15.5445 22.7707 71.58
15.4741 22.9493 70.0011
15.4008 22.5806 69.8726
15.2706 22.3646 70.8174
15.1276 22.4295 70.8329
15.7475 23.595 72.8398
15.3846 22.492 70.1387
15.4613 22.702 70.9621
15.2077 21.4818 67.3267
15.1379 22.0398 68.5417
15.1492 22.4178 71.283
15.366 22.4876 71.5041
15.2733 23.1507 72.922
15.3495 22.5917 70.7
15.0218 21.8061 70.2235
15.4923 22.3269 69.4455
14.8342 22.0988 70.2821
15.327 22.5348 69.7384
14.6143 21.5261 69.6626
15.1486 22.4756 70.1772
15.1189 21.802 68.938
14.5007 21.3047 71.1258
15.1376 22.0643 67.8879
14.3326 22.1321 71.0958
14.8297 21.7916 69.7905
14.898 21.3652 68.4215
15.1126 22.7568 72.4312
14.5607 21.3639 68.0033
14.9966 21.7256 69.6196
14.3179 21.3797 67.3942
14.1288 21.6456 69.866
14.7725 21.8624 69.8072
14.7641 22.3231 72.2422
14.6209 21.344 68.4596
14.2908 22.4399 73.4144
14.7796 21.5433 69.8375
14.4915 21.0608 68.998
14.5115 21.1993 68.4811
14.325 22.1562 71.8089
14.4356 22.2557 71.0604
14.3625 21.0574 70.0684
14.46 21.1325 67.0056
14.1529 21.5374 69.534
13.9537 21.286 69.3763
14.5087 20.7784 67.7588
13.8056 21.3011 69.7264
14.097 20.5058 67.8569
14.2068 20.6847 68.5603
14.2336 20.8699 66.978
13.9332 21.0786 71.805
14.1344 21.2219 68.3424
14.2698 21.0546 67.5894
13.6883 21.1995 69.5586
14.2744 21.3337 70.1905
13.8738 21.6774 69.8638
13.9803 21.3258 70.1411
13.68 20.1693 67.5469
13.927 20.9615 69.0005
13.8923 20.7569 67.8884
13.9944 20.7159 68.8088
13.9074 20.8744 70.6486
13.7105 21.1356 69.5455
13.9605 20.5338 68.9627
14.0542 20.521 66.534
13.8543 20.5167 67.205
13.3236 20.5944 70.53
13.7597 21.1384 69.8764
13.5681 20.5667 68.8112
13.7179 20.7881 68.6081
13.3928 20.0643 67.5697
13.5688 20.3277 66.7053
12.8068 19.4438 67.9038
13.5471 20.2842 66.5429
13.6191 21.2564 70.4195
13.6309 20.7996 69.3279
13.8931 19.5598 68.0916
13.4827 20.9205 69.921
13.6412 20.1038 68.7226
13.4375 19.9767 68.1256
13.4276 20.3364 68.7047
13.7012 20.3677 69.3983
13.4055 20.1012 68.5775
13.6645 20.3106 68.3186
13.1003 19.7175 65.2154
13.1592 20.4284 69.4756
13.5029 20.5286 68.535
13.1697 19.9886 68.1392
13.5362 20.5302 70.0761
13.2863 20.0111 67.2178
13.1829 20.2365 69.4302
13.4032 19.8462 67.1611
12.9921 19.4484 67.0286
13.1523 19.5394 65.405
12.8552 20.0205 69.4844
13.1814 19.1463 67.5773
13.2417 20.4618 68.1152
13.1644 18.8861 63.8677
12.9337 19.3876 66.6241
13.1362 19.464 68.7744
13.4299 20.1384 67.5056
12.9206 19.203 66.6686
12.9081 20.2932 68.8816
13.0622 18.8151 67.9926
13.1873 19.5564 66.7681
12.9689 20.0405 67.2154
13.0153 19.6511 68.9412
13.1376 20.014 67.1615
12.7363 19.3678 67.3744
12.9467 18.6569 64.6601
12.5512 19.2563 64.9313
12.2526 18.7919 67.1244
12.874 18.7468 65.81
12.7851 19.0137 65.7264
12.8177 19.4862 66.3848
12.6717 19.6265 68.5506
12.9403 18.3334 64.5127
12.5302 18.5505 65.1459
12.3645 19.0047 65.7804
12.5897 18.8458 65.1156
12.4392 18.0518 63.764
12.4351 19.0205 68.5676
12.7667 19.568 67.6206
12.9794 19.2196 64.8879
12.3809 18.6918 65.8279
12.4871 19.5155 69.4334
12.5734 18.9249 67.3921
12.3719 18.7981 64.9313
12.2977 18.4943 65.2639
12.53 18.4299 66.362
12.4438 19.602 68.9242
12.5529 19.5778 67.4994
12.5581 18.7575 66.5677
12.3318 18.9075 68.4821
12.5137 19.5493 67.8801
12.4462 18.3864 64.6903
12.3174 18.7289 66.174
12.1555 19.1335 68.1585
12.6251 18.441 66.988
12.6106 18.9175 66.0689
12.0278 18.3689 65.585
12.2125 18.6881 67.6721
12.7476 19.3256 67.0936
11.9175 18.9406 68.3232
12.0668 18.4985 66.4268
12.1797 19.1982 67.1639
12.4045 18.6434 66.4216
12.0693 19.0866 67.1558
12.3751 18.3544 63.2708
11.9885 17.92 67.3219
12.2694 18.4027 66.1833
12.0493 18.3974 66.0446
12.1879 18.2999 65.1203
12.0264 18.3018 65.7089
11.9286 18.2403 66.7625
12.1931 18.8924 67.7914
12.2658 18.9537 66.6165
12.1595 18.586 68.4941
12.3968 18.5835 67.4169
12.0992 18.4368 65.2709
12.1462 18.289 66.7987
11.9286 18.8064 68.0417
11.8647 18.8065 66.8067
11.7835 18.0687 67.7791
12.2069 19.04 68.7492
12.2222 18.7839 66.1796
11.9548 18.4585 65.9912
11.8968 17.2934 63.3327
12.1204 18.2241 67.5916
12.182 18.488 67.4382
12.1798 18.6942 66.2731
11.8511 18.4147 68.0471
12.1148 18.3606 65.0636
11.6346 17.5859 64.9956
11.9392 18.3059 64.8964
11.7598 17.6812 65.255
11.9092 17.8131 66.9622
11.9242 18.5423 65.5175
11.6823 17.5401 65.1205
11.6542 18.1308 65.0271
11.4561 17.329 63.972
11.7459 17.834 63.9204
11.4682 17.6002 64.5327
11.5149 17.7631 64.8557
11.5446 17.5487 65.5363
11.7705 17.8153 64.4241
11.7083 17.5931 66.7419
11.9739 17.6051 65.3115
11.8138 17.8726 63.7249
11.4817 17.351 65.6805
11.5717 18.2121 64.86
11.3988 17.1834 63.3792
11.4692 17.3619 62.883
11.3545 17.2465 64.4105
11.5481 17.5356 64.6572
11.7255 17.3727 65.3092
11.3149 18.2039 65.8265
11.4227 17.4912 65.3098
11.8329 18.4673 68.2564
11.4699 17.3488 64.5199
11.4804 17.5447 63.3404
11.4972 17.333 64.8457
11.6057 16.9135 62.0998
11.3199 16.8446 62.9542
11.2798 17.0261 62.5303
11.3181 17.5876 63.1544
11.4807 17.7615 66.1786
11.4054 17.0036 64.6193
11.2063 16.8955 62.778
11.4906 17.1874 65.9311
11.2672 16.8714 61.7649
11.0551 17.18 64.5149
11.2344 17.3075 63.7108
10.9858 17.4499 65.7718
11.6117 17.3127 62.7153
11.2155 16.996 63.7273
11.067 16.5573 62.725
11.2506 17.223 62.0671
10.9645 17.0003 64.0836
11.0698 16.2764 61.2747
10.9306 16.3918 63.0111
11.4795 16.9634 63.3764
10.8787 17.236 64.5926
11.0135 17.1643 65.0528
11.4905 16.9505 63.0769
11.1496 16.8206 63.6332
10.9834 17.0541 65.0295
11.2644 16.6546 62.5322
11.015 16.9338 64.0545
11.2956 17.3595 64.8242
11.1795 17.0185 65.3386
11.4159 17.5978 62.8333
10.8396 16.2862 62.5473
10.8081 17.0142 65.0718
11.1268 16.5252 61.9865
11.0112 16.5454 61.7369
10.7436 16.4832 62.2228
11.1719 16.2318 61.5646
10.6335 15.9933 62.9
10.8735 17.8064 65.2919
11.0973 16.6205 60.8965
10.9674 16.6621 64.2287
11.1965 16.8649 64.8304
11.3414 17.2371 64.4701
11.1807 16.7173 62.4321
11.0185 16.5055 62.8602
11.1846 16.8759 64.6132
10.9433 16.6219 64.3215
10.892 17.2856 62.5657
11.0213 16.3451 61.291
10.6576 16.1686 63.6506
10.8704 16.6789 62.9807
10.7778 15.9149 60.5292
10.6014 17.252 67.736
11.287 16.5208 63.4205
10.9738 16.7235 63.823
11.3191 16.8799 63.697
11.0964 16.3999 63.843
11.0115 16.5098 61.2236
10.6218 15.6939 59.3726
10.7112 16.002 62.572
10.9539 16.1948 63.3137
11.0399 16.5935 63.9112
10.9178 16.511 63.6174
10.9013 16.5864 59.8445
10.823 15.8492 60.4688
10.9416 16.8329 64.6883
11.0246 16.6649 63.1413
10.6782 16.0816 65.1947
11.0809 16.9498 63.8347
11.199 16.3608 61.9228
11.1109 16.1908 62.5797
10.818 16.3451 62.9916
10.8542 16.5459 63.6064
10.8673 16.4554 62.1959
11.1058 16.4067 61.1826
10.6511 16.1259 64.3527
10.9829 16.0097 59.9407
10.7146 16.0687 62.2813
10.9038 16.3719 62.3881
10.8002 16.3221 64.9355
11.0082 16.8415 63.388
10.8808 16.1199 61.9815
10.6145 15.6609 62.379
10.7767 16.6338 63.4399
10.5231 16.4767 61.8192
10.6854 15.7622 62.7496
10.6055 16.3773 62.2553
10.4249 15.6194 59.8847
10.569 15.5942 60.3824
10.6752 16.0064 62.3391
10.584 16.3108 63.4431
10.6701 15.4875 60.7917
10.487 16.6031 62.1354
10.6129 16.2653 61.2659
10.7737 15.9743 64.3477
10.4743 16.1523 62.9494
10.7559 16.1514 63.0746
10.4997 15.7453 60.5697
10.3487 15.9439 62.7562
10.6499 15.5923 59.9222
10.2608 15.4767 59.219
10.2043 15.4652 60.0082
10.4585 15.6039 62.0586
10.6212 16.1128 63.0624
10.5791 16.0062 60.1198
10.4831 15.7807 62.0839
10.8313 15.7731 61.0289
10.4906 15.5965 61.6295
10.2942 15.5568 61.0475
10.5029 16.0281 64.1186
10.7635 16.3636 62.3868
10.4521 16.0319 60.8564
10.0059 15.0215 59.9995
10.3302 15.576 63.1607
10.5411 15.9877 60.6836
10.1239 15.4401 60.9621
10.4682 15.9214 61.7162
10.5548 15.9319 63.0832
10.4233 15.77 62.9727
10.4419 16.5268 61.6721
10.4927 15.7206 61.6724
10.2963 15.3192 62.1233
10.5338 15.6686 59.9954
10.2527 15.4985 60.1905
10.553 15.3498 60.1795
10.2373 15.1971 61.6413
10.1462 16.0677 61.731
10.1074 15.2608 61.4824
10.2114 16.0437 62.483
10.3107 15.8367 60.9892
10.1683 15.643 61.4908
10.1904 15.5197 61.2903
10.4016 16.7989 62.2407
10.2232 15.29 59.7496
10.0144 15.1451 61.611
10.2862 15.3788 59.8098
10.3758 15.1845 61.1731
10.2856 15.5831 60.0005
10.2677 15.6354 62.7664
10.2511 16.0776 61.5611
10.1139 15.8195 61.0996
10.0945 14.9493 61.5266
10.2556 15.8118 63.2809
10.2862 15.9114 60.983
9.84737 15.8653 61.4984
10.431 15.7887 61.7077
10.3429 15.675 62.3255
10.4758 15.8823 62.0664
10.19 15.1897 60.2914
10.2434 15.4377 62.8609
10.3584 15.3971 59.6483
9.87576 15.2122 61.2293
10.2999 15.5644 60.9993
10.1793 15.865 63.3341
10.4327 15.6738 63.4181
10.5868 15.7465 59.9135
10.2091 15.9564 61.3952
10.3812 15.1418 58.4164
10.1855 14.9826 60.5053
10.0138 15.2051 61.66
10.0306 15.6075 61.5047
10.2337 15.257 58.9713
10.2397 15.1008 60.2236
10.1545 15.2211 61.3503
10.2073 15.8139 60.4036
10.0291 14.6157 61.046
9.92105 15.2902 59.0549
9.89719 15.194 59.5742
10.0731 15.1878 60.7418
10.2682 15.7135 62.9656
10.3969 15.7016 63.29
10.184 15.5612 58.2408
9.94506 14.9424 59.2066
10.0861 15.2797 61.6182
10.1105 14.5022 59.6815
10.0626 15.42 60.5596
10.1932 15.4205 60.1762
10.117 15.0069 59.7918
10.1064 15.1757 60.1766
9.91088 15.5279 59.8298
9.97665 15.1406 60.7677
10.2163 14.6347 58.0888
10.1483 14.9847 61.5177
10.3219 15.4655 61.0277
10.0364 15.3382 58.981
9.80044 14.705 59.5511
10.1616 15.2631 62.0508
10.153 15.3999 61.4029
9.99278 15.8685 62.4723
10.1554 15.2604 60.7225
9.77443 14.5863 56.7584
9.73326 15.1719 61.9488
10.1613 15.3334 59.4543
9.84798 14.8548 59.6633
9.94497 14.639 57.5768
9.8942 14.654 59.6905
10.2621 15.2422 60.5814
9.97666 15.5258 61.0552
10.0151 15.1627 62.567
10.2575 15.4223 58.8398
9.9121 14.9005 59.6685
10.0117 15.6267 63.451
10.2364 15.2202 60.495
10.0869 15.4177 60.7344
9.85096 14.6743 59.1885
10.0992 14.8431 58.2321
9.89208 15.3981 62.3248
10.4552 15.2976 60.6352
10.3358 15.685 61.7604
10.0852 15.2395 59.7492
10.1966 15.215 58.8996
10.1144 14.6075 58.6865
9.84268 14.9405 59.3662
9.86414 15.0761 60.6258
10.1887 14.8138 61.7528
10.0342 15.622 60.4253
9.7948 15.2478 61.9078
10.1287 15.4058 60.8121
10.0218 14.7211 61.9807
10.2554 15.7727 60.2336
9.81316 15.2877 59.9843
10.2687 15.065 59.4176
10.2326 14.8172 59.6127
9.7601 14.856 61.9361
10.0293 15.2073 60.3598
10.279 15.3344 58.9049
9.81401 14.9606 59.5548
10.0766 15.1835 62.0532
10.091 14.9113 58.3402
9.92327 14.2404 59.0415
9.81645 15.0246 60.1841
10.001 15.1035 59.9253
10.0638 15.574 62.8064
10.165 15.1661 58.5547
9.97708 15.4592 61.7738
10.189 15.1272 60.6134
10.051 15.1403 58.4709
9.89481 14.9229 61.1441
9.85131 16.0367 63.5897
10.32 14.8143 60.2702
10.1438 15.5418 63.202
10.2634 15.1076 60.5042
10.2326 15.6951 61.5164
10.2365 15.6273 61.7678
9.94224 15.0886 60.511
10.2104 15.5028 61.97
10.1769 15.1702 60.6632
10.3969 16.0056 62.9348
10.1627 15.6261 63.8388
10.0826 15.7028 63.288
10.3016 0 0