# pn-170911/CsIIA-33-WTZR-1280-1959.psd
# Power spectrum* (dif=0,1,2) (really just |FT|^2)
# NOTE: only the first half! (symmetric)
# weeks: 1280-1959
# 5 clock-days, 0 excluded
# PSD: 1441
108797 0.404901 0.0310904
874654 10.5568 0.0180328
1.16503e+07 313.398 0.023565
1.67167e+06 47.0152 0.0262219
662932 28.1997 0.0199986
477968 57.0427 0.0165938
307794 27.8355 0.0234633
156037 28.0118 0.00954712
264993 39.2903 0.0397301
210516 39.3624 0.0264484
87997.2 30.4788 0.0368032
89579 43.6149 0.0391029
39168.6 18.8447 0.0450833
85994 57.1987 0.0678964
85418.9 49.1853 0.0446869
47993.4 38.6289 0.0418834
59007.3 56.9934 0.087443
30810.2 44.4945 0.0881944
15757.3 44.0784 0.107461
20918.3 30.7581 0.0379896
21555.7 22.9856 0.072593
38397.9 76.5877 0.129322
49852.3 65.3449 0.150121
17330.8 20.7033 0.0755316
37905.9 75.492 0.236034
10246.7 32.0837 0.0727244
11724.7 25.0486 0.100379
10526.6 19.7441 0.0784711
9360.48 27.143 0.0859696
24774.2 64.2802 0.239299
19591 75.017 0.305214
12044.3 45.6835 0.278987
10168.7 41.3703 0.273364
8615.47 25.4142 0.168134
10500.3 48.4246 0.306148
24225.5 125.197 0.853567
8618.29 69.9696 0.491826
5521.12 27.7342 0.127718
5289.3 26.2949 0.154666
11492.7 71.9753 0.579976
8244.04 54.4836 0.538798
2216.51 10.4875 0.119237
4169.91 28.205 0.308512
9014.92 47.8197 0.421891
7611.81 48.8998 0.471763
3838.71 46.5665 0.397808
4729.62 46.884 0.489295
7306.16 54.6025 0.647733
4642.41 23.8941 0.263161
3145.13 31.7226 0.373431
5499.19 55.5102 0.786196
2867.36 23.623 0.328227
3572.66 36.7773 0.540299
2065.58 25.46 0.323538
5059.96 54.8259 0.762122
4984.27 44.9736 0.661852
2471.79 42.4798 0.755276
2340.63 22.7551 0.309246
2798.51 36.4087 0.657012
3131.08 37.8616 0.526263
2375.96 36.1231 0.702585
4416.38 52.6273 0.914859
2776.23 56.0512 1.12462
2573.56 29.5757 0.52892
2226.98 31.723 0.639795
846.431 12.9436 0.328993
2957.97 43.6267 0.931179
825.531 12.3244 0.390699
1392.42 15.5438 0.395794
2737.73 45.5415 1.00137
2392.7 35.8414 0.738079
3296.43 91.5892 2.16454
2439.66 27.1217 0.685202
1785.61 29.0903 0.692354
2894.25 62.8398 1.82204
3404.63 59.2321 1.31192
689.313 17.3024 0.509394
3147.57 76.6087 2.00516
3251.82 63.933 1.69812
2950.87 60.131 1.79481
3108.15 59.8877 1.84434
1836.55 43.1171 1.44933
2041.65 46.2793 1.52073
1812.62 48.3172 1.5177
976.348 20.691 0.734877
1553.37 32.3747 1.20946
1317.15 29.7747 0.995471
2072.77 50.4158 1.6663
1379.82 23.9334 0.805259
1816.05 44.3216 1.53398
2186.79 55.6126 2.07254
640.646 14.7758 0.625699
1404.76 34.2918 1.47149
2189.1 78.245 3.09213
1589.92 65.3141 2.8255
719.45 27.484 1.26737
1066.92 17.1173 0.697982
971.48 25.669 1.12799
1433.23 44.0043 2.02221
896.642 32.8877 1.57157
1644.32 66.1849 3.14034
1508.33 43.3379 2.11259
2268.84 83.488 4.05763
1488.34 38.6326 1.77292
1820.86 75.165 4.15423
1222.48 56.8645 3.17295
1925.97 88.4867 4.90554
787.462 21.4351 1.12879
293.245 23.2656 1.5195
2508.14 103.202 5.45934
842.784 32.2046 2.02764
274.254 18.4179 0.995674
574.299 23.4193 1.3459
684.227 31.5765 2.02579
1118.1 45.4387 2.6971
970.411 57.8922 3.43462
1209.13 44.9794 2.92748
1005.99 75.7026 5.0329
772.162 38.9331 2.55648
912.545 50.1033 3.11024
613.157 22.8742 1.53522
922.206 31.5901 2.17076
740.075 32.2324 2.44183
602.257 39.0794 2.92534
634.097 29.9284 2.2689
122.524 12.9521 1.18963
1291.74 53.9665 4.31865
520.553 30.6819 2.13821
1213.72 64.2966 4.80021
478.129 22.9905 1.82619
350.767 12.3607 1.30188
1216.55 77.74 5.6865
330.571 28.8356 2.40256
571.146 21.8771 1.99046
426.032 21.1767 1.94112
313.416 16.6222 1.54537
1067.14 63.9054 5.6788
246.665 28.0091 2.68824
1423.33 85.3589 6.7445
640.426 53.3235 4.93201
625.461 52.8457 4.55175
712.198 47.2835 4.59128
387.629 42.9847 4.29959
330.324 27.8789 2.99481
418.838 41.9251 4.5766
738.779 51.3085 5.00267
307.8 21.9594 1.90536
519.259 57.2211 6.0854
296.577 21.5236 2.05651
642.375 41.2346 3.94962
596.96 48.8862 5.04319
499.565 39.658 4.75442
359.65 37.349 4.47443
472.718 55.4152 5.65194
472.891 25.6137 2.58882
589.139 56.1776 6.19322
638.826 58.172 6.76098
191.531 16.1428 2.46557
691.986 55.1928 6.34922
463.239 54.0705 6.78266
363.61 41.1668 4.95424
312.967 42.7256 5.34335
291.163 32.6281 4.20676
384.426 46.6537 6.18489
510.359 51.4898 6.289
482.157 30.873 4.10806
337.977 42.1603 5.75502
338.925 36.3419 3.91324
944.975 123.296 17.0765
389.814 54.284 7.99081
391.355 27.9492 3.26254
521.764 72.3472 10.1131
407.646 52.7697 7.29687
173.503 25.3085 3.45368
719.438 63.709 8.94582
514.977 50.8313 7.32453
451.03 46.8317 7.29344
487.445 58.0022 8.06682
301.256 51.1405 8.04399
882.837 116.829 18.6742
411.676 37.6707 4.89349
526.02 42.9797 6.13687
330.319 34.951 5.22348
283.225 34.7116 6.4006
569.096 80.1889 13.9079
222.09 26.3998 3.87997
444.32 51.8025 8.04363
318.361 59.4248 9.71606
142.002 32.1217 5.51549
509.179 55.9118 10.0654
349.133 22.977 3.69711
427.811 54.7711 9.04651
324.564 32.3514 5.42693
253.757 57.3522 10.0705
311.928 37.5579 6.36197
175.812 44.2207 8.1728
333.989 30.9738 5.35266
325.72 49.7345 9.78177
257.734 32.0923 5.79981
442.468 65.9979 13.5037
178.607 25.4801 6.20218
422.589 43.9241 7.13425
473.388 48.2268 8.97454
267.244 39.5376 8.46662
234.219 37.5728 6.84342
358.962 41.9923 8.31397
284.751 38.4875 6.70655
414.861 62.1701 13.1008
466.524 57.0969 12.8357
248.214 54.3907 11.7155
326.813 43.8147 7.71053
253.045 56.7135 10.6571
233.647 31.2314 6.87655
205.853 26.9115 7.3382
308.428 38.49 6.97994
70.2035 8.45119 2.037
359.859 57.6381 13.8362
205.62 40.7798 8.31123
440.424 65.795 12.1905
365.948 63.8624 15.0421
339.69 65.3674 13.9618
359.788 77.0894 16.8152
226.606 43.3054 10.6372
174.98 21.9787 5.40299
126.172 19.9011 4.46851
177.16 49.7494 12.9152
195.349 29.2296 6.2006
283.662 69.6329 16.9619
205.609 26.2044 7.01541
176.462 18.3091 4.01829
218.287 28.3396 7.32555
200.633 30.3756 9.01774
251.14 44.5901 9.60057
135.689 25.2 6.70956
171.939 30.3151 8.06794
277.307 48.0487 10.6903
137.239 18.9786 5.18121
318.188 69.5236 17.9692
178.042 39.2257 11.0147
81.606 48.0942 13.0016
99.5523 21.4276 5.46979
140.918 37.8023 10.4541
306.026 61.179 19.0834
249.272 63.0315 15.2104
149.735 51.3495 13.9245
252.279 42.9545 11.8531
166.129 46.3995 15.64
167.459 24.6173 5.96932
219.477 34.3827 10.1024
119.355 20.0493 5.34081
103.445 17.6099 4.60875
85.4703 9.3746 3.26165
194.004 28.5411 8.83573
293.873 96.8489 26.5997
263.024 64.4843 20.8045
214.714 42.9317 12.7304
247.159 48.8167 16.1324
202.411 35.3147 8.66274
60.379 8.4742 2.55328
256.623 43.8563 13.8498
205.892 53.5968 17.4471
322.77 65.8455 21.3404
299.343 82.0979 23.8858
154.107 32.3853 9.62633
134.015 22.1265 8.2925
209.182 51.1652 14.11
78.0093 26.1451 11.5212
385.467 84.1322 26.6999
115.698 34.1657 9.47986
65.7155 38.9048 14.4627
185.5 34.4595 11.5537
129.126 22.2103 7.31327
170.396 53.4485 17.9851
232.776 53.6627 18.0256
46.6105 12.5443 4.72081
194.591 36.0531 13.059
92.0678 32.4231 12.2581
389.858 99.9598 32.6898
91.8294 15.9273 7.50704
304.439 91.5564 29.9299
168.348 46.8825 18.6046
116.462 28.0047 10.7349
99.6898 18.4099 9.02646
60.0661 18.3706 5.00589
91.0537 28.1481 12.0916
214.538 69.9545 25.8307
167.679 54.1672 22.3669
228.458 75.3974 23.7034
55.2669 19.8138 7.37838
54.4234 17.233 6.78683
109.481 22.5995 9.67978
123.673 49.7197 15.6196
66.3882 25.5723 10.336
131.732 75.8541 33.4863
178.055 61.8049 24.2794
106.998 20.6707 7.61682
73.8167 14.7461 5.12443
83.874 25.8328 11.7661
37.4107 15.9044 8.55177
56.4663 19.0097 6.55226
280.795 103.501 41.4844
85.2737 31.2035 12.6003
109.809 42.0579 16.3702
49.2752 13.8788 6.91114
146.889 37.8125 15.746
38.2321 13.6838 6.54526
64.6737 14.7197 6.06789
151.95 74.3558 31.2768
41.9712 23.6234 14.2315
160.241 34.6027 12.3212
136.307 37.2791 14.3265
97.4435 24.2022 12.3397
170.374 40.9814 16.9613
148.67 50.2589 22.6376
86.7502 17.1724 8.86168
68.4512 23.962 10.7943
94.9794 15.4665 6.36071
81.895 29.7501 12.4895
105.228 52.4521 25.4625
59.3203 29.3403 15.0778
85.1082 16.893 7.9743
125.761 48.3138 24.7141
83.761 32.2194 13.8621
136.84 41.9212 20.9334
202.76 64.719 25.4365
56.0189 34.4762 20.0274
139.41 42.8706 20.0343
65.4345 49.1007 24.9853
44.1295 21.1318 9.55782
77.4052 37.0784 18.2593
56.5198 30.7783 17.0271
110.084 30.8167 15.5561
88.8263 19.6815 10.5928
84.8159 31.4427 15.4639
29.7292 14.1383 8.10727
49.0592 29.3468 15.6133
80.093 27.7515 13.7076
69.6439 18.719 9.96293
59.1332 39.438 18.8815
69.9378 25.2209 14.1465
140.39 25.257 10.5718
70.7543 22.1291 12.975
89.8071 30.3817 13.8729
152.344 69.5523 35.3029
56.8433 35.2477 22.8931
71.2141 10.6452 5.1998
89.1174 38.602 19.5431
81.0893 27.7443 16.03
30.714 24.1626 14.0115
51.0538 13.8719 6.62103
71.1073 20.9159 11.594
40.5733 19.4238 11.8268
96.8089 42.1615 28.0939
39.6284 9.49832 8.41881
136.754 36.5094 16.5585
111.444 54.8438 33.312
129.356 51.6124 26.3533
90.3899 56.5982 34.4804
110.465 32.1345 16.2593
41.3493 10.0545 8.72206
59.3165 17.9312 7.08385
103.464 59.3204 34.1896
74.9552 36.3355 25.0066
26.1944 12.7296 10.3117
76.1691 15.3544 6.43172
53.6987 22.5306 14.9871
24.3573 36.1359 24.5026
132.752 45.4491 26.9334
66.4161 51.5601 28.5925
172.564 65.7137 37.8718
37.8144 17.9439 11.2522
56.902 25.4375 13.6767
61.7721 18.1894 12.707
62.2539 22.7808 15.6412
70.685 20.2864 8.50236
80.3864 47.7803 31.5139
21.2113 9.79503 8.03415
23.2384 19.4152 20.2555
126.559 56.4783 30.6296
114.146 40.748 25.2627
52.9837 19.1852 14.0125
91.0889 25.5159 18.4833
174.132 64.8358 32.3509
83.0746 35.1438 25.115
82.6981 26.4815 19.5743
23.1059 9.91109 5.76233
39.8769 14.43 14.0197
66.9703 24.7902 14.3043
34.8083 15.3824 7.59141
61.2556 39.8778 33.3173
87.8308 31.7186 22.3077
73.2161 39.6835 30.7998
83.1741 46.5519 33.9483
74.6498 34.4049 18.1873
99.2784 77.9149 49.4779
35.4247 16.9573 15.5161
78.3035 26.3388 15.9651
53.8177 35.6477 28.6523
77.3431 48.1301 37.698
74.9465 37.6588 23.3953
55.4683 33.6635 22.9551
37.2275 29.2061 24.3544
75.8731 30.3406 21.6507
53.4751 25.2257 14.3396
58.1811 24.5166 20.8887
15.1075 26.9102 23.7178
152.018 76.2156 54.0741
42.2708 24.5653 23.453
99.1584 65.2176 42.9377
60.9952 23.198 17.7142
74.473 48.6252 37.8159
35.927 20.5636 18.3812
35.2432 15.7748 14.974
44.917 32.2005 17.201
69.1753 35.4854 27.9184
36.2987 25.2324 17.9601
65.8935 47.5816 34.3286
101.999 63.1172 56.7675
75.7971 43.6352 25.9816
81.5887 63.1656 47.9232
46.1495 31.1033 24.0438
99.8733 37.4615 26.7051
87.3331 50.6051 45.1632
19.2366 19.9562 20.2273
37.8929 31.4112 19.6137
52.2795 33.965 28.7877
34.2798 21.7814 23.1139
42.7829 21.3247 16.4532
84.8718 47.7933 34.9149
82.2103 53.404 41.6963
38.0044 20.3104 14.1666
62.0569 25.7058 18.7417
35.9756 15.6434 19.8466
94.5788 61.0475 45.9601
45.6859 37.1426 34.1045
59.0694 30.883 26.7678
46.8457 56.8101 42.4365
35.23 14.8015 15.7901
75.1281 41.1957 26.7736
35.111 22.3599 22.4873
125.079 69.568 58.2006
81.8135 45.0596 38.6589
46.3441 16.5219 21.7015
85.7168 60.1727 46.1199
36.2973 44.5139 43.3255
90.5511 31.0885 20.7111
66.4371 37.6753 35.0779
57.0071 26.2889 27.315
46.0006 32.3553 22.8471
96.39 55.2623 47.9483
25.6325 23.4171 26.0599
26.0028 16.0327 9.88383
34.788 31.7385 29.3932
53.2348 28.8857 33.3074
46.3771 33.3556 30.3721
52.1119 21.1696 17.9525
95.3663 59.4977 47.0389
50.3094 38.4425 36.6641
18.11 16.868 10.8493
18.6835 12.6281 12.7138
87.9093 80.6183 74.3194
37.6249 12.9147 10.9152
72.7017 40.1491 29.7372
36.3542 18.6848 15.4415
30.1201 36.0233 40.2234
69.3202 64.7327 60.8791
19.546 11.86 13.8291
31.8464 27.9481 27.8109
19.11 25.3217 26.0682
60.3283 68.0746 54.0359
17.3648 8.60228 9.97593
11.4524 25.9572 27.9254
40.5978 39.5855 42.1122
42.9854 18.2502 13.0531
45.1389 58.5671 62.7487
33.0999 12.7953 20.9323
64.0363 27.2513 24.5242
29.5829 11.5291 13.9664
57.6869 24.0453 21.5318
26.5692 22.1693 23.1707
47.686 27.7517 33.5827
86.9433 38.7074 27.9287
77.3473 41.6655 44.0135
27.7745 31.2771 29.3417
84.7729 52.027 44.0604
29.4762 19.9433 23.8795
37.6709 24.2289 30.5624
40.7127 16.37 16.3685
30.0124 22.1124 21.2753
27.7792 21.3147 17.8716
41.5291 30.7309 28.8163
21.2409 29.1645 43.5235
45.7921 36.8332 35.5715
26.6722 33.6566 37.4285
45.1526 30.9694 28.4162
38.1121 16.6818 22.1785
37.1386 21.9291 18.791
26.4717 12.086 8.89086
49.5465 45.8963 53.1609
31.4464 10.5993 14.8968
54.289 35.274 44.1961
15.2735 15.6918 33.0299
79.5128 57.923 63.1378
67.5543 74.0013 58.4498
15.2698 11.9591 20.3976
43.6226 27.5551 32.1751
20.38 27.6507 32.2295
35.5207 53.3398 46.8371
19.9227 13.3493 15.5603
28.7819 37.9607 40.0469
35.0426 34.6008 45.7304
43.9911 25.3247 25.2858
33.6634 42.4814 46.8834
39.0086 45.7036 52.6912
30.9662 19.9412 22.4835
19.8982 25.5724 32.1999
27.9107 16.1098 30.4536
64.1935 41.2647 42.6036
42.6197 30.1719 41.6445
51.1003 36.087 35.5332
45.0354 30.2285 42.6053
46.8362 32.7712 25.4828
68.0316 38.7291 33.6926
46.9471 42.2214 60.2109
35.918 28.334 26.5822
27.9887 18.1828 20.2419
26.1609 37.9284 57.2993
70.497 48.2957 57.586
24.5911 51.7176 72.0016
61.7653 44.8719 55.035
43.4457 22.2354 22.904
50.7137 60.5057 70.6927
35.3349 27.5656 38.3588
33.5754 20.718 13.199
20.3019 19.7061 15.5772
35.0415 27.8806 28.1451
16.9253 21.005 42.149
66.3626 66.477 72.3576
19.5305 13.9201 18.9265
41.8314 61.1182 85.1014
65.5782 32.1496 33.2016
57.928 37.7101 41.1816
27.0599 30.1234 38.1469
47.2684 48.6362 70.0515
31.9113 28.5197 57.5111
30.0994 28.6507 16.5699
36.4944 32.4113 33.68
8.69118 8.63369 10.1924
23.638 21.9481 33.506
41.989 41.351 49.1788
15.0366 17.048 25.4398
29.843 19.8277 15.1961
20.8783 18.1812 25.9562
15.2307 16.4505 16.0994
24.593 25.666 34.1488
40.1517 47.8853 58.4375
52.1595 38.619 59.6251
34.3469 31.4449 29.7444
32.6004 29.811 44.8826
32.9721 23.5532 24.0825
29.2744 29.7333 52.5102
17.2873 24.7332 33.9087
10.3237 8.46247 10.7097
18.1715 29.449 47.7485
33.8886 37.8416 42.6585
20.271 17.0225 27.4614
44.6379 42.7966 49.7815
13.425 15.8546 22.2928
16.7713 22.4114 37.883
39.6071 24.112 19.7929
13.6291 12.5 14.0576
9.68155 15.2761 33.5376
62.5221 61.3966 71.9674
23.1693 28.7752 46.2781
21.4821 22.6036 36.4499
35.8406 21.7805 18.1605
29.9449 30.7811 43.1826
35.3427 27.0133 40.1646
29.1023 25.1814 34.745
26.605 29.5087 41.5479
10.8744 31.2278 37.5331
22.8522 10.6282 9.18402
26.9928 21.5596 28.1415
18.8478 18.937 31.7881
17.1197 29.7165 37.9611
20.6186 42.7811 57.7215
16.6398 19.3429 41.8399
35.8834 16.2551 12.4482
38.9699 45.5808 77.9516
29.0256 23.0151 35.9824
19.1985 15.2355 16.6597
16.8564 35.6472 56.0905
23.0995 15.674 20.1265
32.0483 16.5323 21.4695
28.7527 33.6426 47.3542
34.9948 38.228 55.0755
11.3821 34.5914 45.269
12.5667 10.2006 27.6383
22.6169 19.0128 16.0554
15.6817 39.359 63.5109
21.4313 19.2454 52.9926
37.5574 20.5415 30.4672
33.0834 23.2583 24.1007
16.5851 28.6773 41.6618
20.3871 17.7539 39.6471
29.7435 17.2544 29.5029
37.9844 38.1838 68.3323
37.8687 33.7032 28.6623
16.825 19.2237 25.9762
26.9124 26.8163 42.0108
22.3314 19.3627 39.2212
16.2414 14.3889 16.0408
13.7919 21.2713 38.3815
32.4039 33.7888 48.1788
19.1585 32.037 46.1623
29.3085 24.2283 30.8413
22.0342 32.5169 74.4786
41.7113 27.1222 28.2308
24.7285 25.1278 32.7569
16.1629 19.1227 35.9336
20.5487 11.1821 22.8057
25.4621 23.3701 27.4822
22.253 29.3076 52.075
28.6079 33.7138 55.9928
14.7019 25.2898 26.1275
15.7281 18.765 31.6261
43.5753 37.0754 65.3047
12.5424 25.4923 50.5836
36.9084 31.7589 41.4429
17.4602 9.85649 18.6206
12.3562 16.5076 18.9207
25.1694 24.3996 31.6285
26.811 26.056 47.6017
9.43752 27.4594 56.1166
25.2457 33.526 44.1973
12.2455 9.92395 30.6971
22.4728 16.7363 18.3952
15.4932 20.3936 38.4953
32.9048 37.3444 61.7282
26.1162 15.0423 24.5783
7.51985 9.1143 21.5051
17.64 20.5937 34.5574
17.6413 20.5664 25.34
14.5703 15.7213 23.9706
17.8785 8.69749 11.3972
15.9645 27.2139 24.946
15.4058 35.6349 60.9055
24.5867 25.4289 49.7775
7.76202 7.32212 14.3432
9.28026 16.4541 37.3699
33.3249 43.063 65.0404
23.5531 8.20782 15.69
15.954 25.288 59.3292
18.0173 16.1849 27.1099
23.5129 29.5335 35.6699
11.0752 9.97286 26.4514
25.4987 19.2682 40.9623
17.6925 22.7708 27.0909
21.9596 33.5575 60.5845
19.8283 29.8029 45.6293
20.3768 24.4169 38.3729
13.5691 11.3501 22.1026
10.6705 26.8557 48.8429
23.0543 26.4866 45.4528
18.8314 13.8775 20.027
14.5646 19.5111 38.8839
20.987 13.398 23.4638
31.9328 32.5852 56.0424
18.2245 8.52677 16.6191
25.8094 52.5922 82.2202
22.6283 17.5724 35.9575
16.0542 14.0519 30.0519
22.7946 21.6032 33.3135
16.7997 37.4708 58.5605
16.4068 17.1562 43.7705
29.9272 29.9735 50.4163
28.6224 31.3021 58.6555
35.802 33.2127 39.1634
15.9005 13.4216 33.3612
13.2141 20.8175 32.4848
17.7172 27.8716 65.3151
8.93012 8.72981 29.2899
23.4926 17.1802 18.4571
8.41131 16.2905 19.2736
12.1843 23.4177 55.7891
30.7955 31.0849 68.8761
20.4251 22.7326 27.323
16.0672 23.7918 44.7926
19.186 26.8479 47.3062
30.4891 26.6393 39.354
6.52881 13.7463 33.5874
18.4386 22.6901 57.664
11.9598 9.84738 22.669
21.3489 25.4545 42.3214
6.35133 15.3741 39.6896
14.0913 25.271 53.39
24.2105 28.4672 52.2465
9.92636 16.5485 31.5747
13.7513 26.9389 34.8611
9.65252 34.7169 49.9012
11.8202 15.9048 31.9131
16.2002 27.7914 51.2526
12.5751 13.3738 34.8579
15.1345 33.2076 75.0815
19.2132 10.7323 35.3873
29.9225 25.5399 38.5654
30.0876 33.1884 65.9899
30.4455 33.5164 60.3101
15.4157 13.731 23.1783
19.3036 34.1445 52.2662
14.5311 9.79326 22.4418
19.6119 17.049 29.5054
10.8119 16.1121 37.0322
17.0329 28.4231 53.4976
16.7065 9.26286 17.8183
12.9839 19.415 59.5846
17.3489 28.6168 44.8215
4.73559 8.54259 43.8612
36.2994 35.1513 37.8445
13.6454 14.8649 19.7718
21.6613 71.137 144.565
25.1119 27.8253 37.4471
17.86 21.7417 40.5445
17.6611 11.6519 27.3153
11.2034 26.792 55.8125
11.454 17.8067 36.8706
12.4908 23.5395 57.3781
12.0364 21.3719 47.46
20.054 28.1367 74.2624
24.7675 24.0929 34.3339
12.6158 16.344 28.2058
15.4838 20.3996 53.54
17.027 29.9439 51.296
11.9364 18.3048 31.936
5.36749 14.1751 42.2546
14.3813 30.5602 57.7466
8.80159 23.4217 48.5856
17.5898 12.9484 26.6032
10.217 18.1482 33.4861
9.17238 16.1955 40.0607
15.4333 41.3947 113.173
37.1427 30.0049 46.1117
10.132 27.7325 54.6503
14.8572 5.3214 20.2371
13.5734 27.4435 72.9613
35.9172 27.4835 29.5229
15.9805 21.0692 36.417
21.6356 28.7631 77.4408
11.3392 17.0773 31.1898
15.19 8.27009 25.1092
8.86504 14.7291 46.3736
21.8253 20.4032 19.1435
10.1137 16.1599 38.3609
13.3357 6.51151 10.2163
8.03618 6.51463 16.9016
8.27888 10.5072 37.8344
32.5684 25.6808 45.5867
15.3847 23.7327 27.3843
16.3376 34.0228 90.8665
20.8613 23.4861 74.9651
19.7213 27.5063 51.2579
20.9058 18.926 31.4686
17.588 15.5782 41.0412
10.2379 17.6847 30.5594
12.3648 11.6181 39.5692
22.8298 21.206 42.4824
15.1383 24.8265 57.0118
12.6829 14.3167 30.2974
7.82636 7.50842 24.4846
12.5316 16.1906 46.3668
10.7452 17.4878 30.5725
15.6666 17.6687 29.3543
7.68817 22.5164 56.6442
16.3882 26.9269 44.2406
10.4892 11.8958 24.7339
14.6693 20.3049 49.1782
12.7226 28.1446 53.0255
11.8252 20.8413 50.018
10.6822 12.6861 31.1155
8.2814 17.859 31.5144
12.7777 16.7006 38.1739
13.7224 17.9383 43.4117
8.37985 7.21735 16.2903
6.87617 8.79483 17.6346
10.3589 14.7734 45.3452
14.7482 21.4963 47.6494
14.4786 11.4138 24.1954
9.78786 18.442 46.7635
10.364 27.0845 59.8575
22.0178 15.6375 34.5638
17.3521 22.6285 59.043
19.1375 19.3481 34.0358
10.4309 14.9913 35.1164
14.1279 16.7347 47.4075
9.18603 17.5262 42.7741
14.8642 12.6756 36.7748
8.98023 21.1214 43.3987
16.4512 18.5638 26.8128
15.3887 25.8502 53.6427
10.4133 8.602 27.1126
8.44346 20.7756 69.4091
26.0839 34.2596 52.5445
9.73525 14.6123 41.0232
17.2683 11.4025 16.1865
12.6353 21.5972 49.7363
16.1637 19.7937 48.9018
8.60833 12.8918 25.0298
10.234 11.5893 33.6639
5.70565 9.16796 28.5095
9.29377 8.66097 19.0117
4.52106 12.8691 28.8057
8.19346 18.5963 49.8595
15.0663 9.95391 31.5665
10.8062 8.90997 15.9186
13.3517 14.1448 36.2919
19.6497 27.629 63.2456
13.8863 18.06 36.2825
8.12019 11.2074 37.3745
8.37481 10.3934 37.6632
16.4439 21.8952 34.4744
6.34766 19.5747 57.6945
8.5567 7.53205 33.0865
10.9174 16.5976 50.6978
17.2565 16.612 38.5109
12.7761 20.1808 34.4838
15.5023 27.9524 66.7732
18.848 14.5821 31.2013
10.9787 23.3701 48.2913
17.866 16.7856 33.3575
11.7465 19.2848 46.6694
5.22423 15.086 59.793
6.20011 13.5316 37.1842
10.4623 6.07728 12.7549
6.97626 7.74153 23.1126
8.23828 5.04909 11.1719
6.67063 7.74446 24.9113
9.08269 15.3991 59.3447
14.9595 28.6078 53.2894
11.3588 14.818 29.2894
15.8363 18.4855 58.6727
8.48794 11.738 21.7137
7.96417 17.654 46.0855
6.77939 9.3821 23.2289
2.05151 9.58806 18.3253
9.96557 7.7181 34.8749
8.08453 13.927 41.8506
9.52929 23.9331 26.3163
6.94762 17.576 43.7579
9.81821 10.6224 22.1649
3.95273 11.3468 34.4503
6.44649 16.1018 50.6907
15.1194 9.59616 16.9383
12.9052 18.7191 48.1264
13.9684 25.1545 72.2841
5.54626 19.0035 42.1623
9.04346 11.7812 50.2261
13.6999 13.0159 36.9855
8.71731 17.0683 44.0578
9.89568 4.93606 25.4868
12.9804 5.99853 15.1701
11.4796 21.5645 35.4379
7.35349 7.70153 28.6392
7.25524 13.5411 41.0488
18.005 26.415 98.1034
18.1993 26.8046 47.6888
12.4788 16.8463 45.5281
10.2474 18.9871 51.6393
13.6276 28.5909 35.495
4.20879 21.2073 55.0259
9.8405 12.9876 42.0784
8.3138 5.22312 9.27237
7.25908 8.55027 20.8185
9.30684 12.3763 39.8683
13.6777 11.8346 24.1551
3.96027 13.4093 35.34
4.76641 6.59171 21.3393
10.1233 9.93979 25.0083
9.60773 18.7713 32.3357
5.48954 16.9499 53.7351
9.67348 14.4192 34.402
10.8933 19.9087 58.2449
8.98127 15.6492 63.3043
13.9528 15.7953 50.6196
14.1067 16.7802 51.8718
14.4072 12.6583 40.3798
13.0504 17.7561 41.3107
8.78751 15.5703 25.4178
13.945 38.0312 96.4859
12.4427 13.5321 35.1796
7.19314 14.9869 43.5071
7.37718 11.766 32.4153
11.3849 7.02134 16.5453
9.41769 5.55037 37.5574
12.7454 15.9267 19.6934
11.8046 19.6374 66.6361
14.4375 19.9304 34.7296
12.0747 17.0392 57.3772
9.1856 9.51089 38.1345
4.58321 14.2991 49.2472
12.516 17.2241 37.7433
8.73016 11.2882 42.2828
5.05815 4.93589 51.8915
6.44357 22.227 47.2876
12.0736 31.2299 101.268
21.057 20.4099 25.6295
10.5825 20.8509 41.5481
4.89091 7.07665 21.1014
6.65956 2.53277 10.104
10.5781 14.4388 28.0831
11.036 14.7047 30.6325
7.05288 10.5281 34.5566
6.42939 9.60373 26.984
7.09655 13.1693 24.8147
7.97933 7.00524 21.4649
9.14635 8.52759 38.3398
15.6435 25.8316 55.0767
11.918 10.9197 28.1662
5.90479 12.8143 36.827
7.91937 14.4731 39.4629
15.2478 21.9849 63.8942
2.26158 12.9266 42.0951
7.79797 17.1948 30.3771
8.46251 14.8914 48.855
8.45385 14.2225 73.438
11.5341 10.8484 24.8934
6.32728 6.64307 17.4011
4.36321 11.8078 32.0599
4.71953 15.6778 82.9899
15.1576 13.5 12.1334
10.6217 16.9588 36.5515
6.6937 25.8275 72.3131
7.71683 6.71349 14.8049
4.95281 9.25955 40.2303
7.17089 15.3078 55.6788
12.2192 11.5598 21.8435
10.4541 9.75117 30.0719
4.66876 10.5526 25.3449
8.4438 10.6789 22.8946
10.3366 21.5058 60.8875
8.34264 12.3676 38.9086
9.56278 15.1093 39.0898
8.907 11.2 24.0548
5.48024 17.6535 77.1684
16.1934 14.1989 8.43925
7.5027 20.6666 92.8064
8.44949 23.195 38.3959
4.47759 7.07717 21.8854
6.94916 7.73943 18.2019
2.20596 19.2812 58.7126
10.9324 5.97665 38.0183
9.35552 17.9684 38.0098
6.49877 20.3517 34.4035
6.99234 9.33318 33.7704
7.61267 12.0479 34.4159
8.48395 13.7833 52.7257
15.0075 21.9527 73.7712
7.20445 21.1661 34.1675
5.16436 10.1673 30.6054
7.18017 10.109 40.2311
6.84235 11.9303 24.4415
7.2533 7.77906 27.3979
5.93515 10.3131 29.2239
6.80568 8.69944 23.2041
4.79219 14.0604 35.5963
3.73311 5.57861 30.9945
9.81449 19.8478 78.9823
11.0682 21.2292 43.7298
7.70501 4.04913 24.1414
8.62095 6.55669 33.7002
7.24411 13.5885 21.3414
5.25013 7.07058 37.955
7.56571 12.3824 47.7174
10.1009 18.4849 37.141
4.13843 9.17264 33.9161
3.87678 13.5442 65.0703
12.8177 23.569 37.2792
9.00392 6.40983 25.6791
5.04161 14.8031 41.0108
1.91014 8.93402 43.4328
8.44255 14.7627 16.1548
5.93552 9.96515 36.0816
5.71959 13.6169 41.4623
8.27031 3.69548 35.754
11.1021 13.3179 18.8723
7.98057 14.6173 44.03
7.22803 8.64757 29.4424
8.28408 11.6341 60.0103
5.31495 15.126 29.2713
4.2964 12.4304 52.3714
13.0079 10.0586 38.8174
5.8112 27.6463 60.872
10.1345 7.08221 29.8327
6.48512 17.4362 45.9167
9.39295 12.5358 22.5128
4.8479 11.7506 61.4545
14.4886 13.7082 27.8532
4.55659 3.92067 22.6413
11.1387 16.8737 34.9526
5.23631 12.4267 47.2174
9.86109 12.0262 40.9475
4.45919 8.17512 31.9263
10.8495 9.86597 27.6145
7.27961 7.53471 20.2541
2.87276 2.7145 15.4162
7.99289 14.9436 39.9691
5.05957 4.70314 28.749
9.33457 12.1433 45.9191
2.89762 13.9745 36.6744
8.25117 10.9628 37.598
7.67489 10.094 36.7714
8.24075 14.007 43.6864
11.5395 19.9032 71.5717
17.2591 15.8111 45.0317
10.134 14.5455 27.5718
8.6219 10.0153 30.6903
3.54004 12.6529 23.364
5.37492 7.22765 32.1258
11.6457 20.4446 56.4722
2.53883 4.12637 16.0501
3.04095 6.12893 22.324
4.56961 13.3099 65.2687
10.2379 14.6616 46.8473
7.124 11.8783 39.2507
6.23446 4.16321 24.2437
12.3123 26.2836 58.3505
10.8476 11.7386 44.716
5.49031 8.09007 51.4602
4.23705 7.90313 28.2539
8.2855 12.4846 26.3902
6.2471 21.7789 52.8745
3.69846 8.26735 33.908
5.86497 3.20561 39.9071
13.8225 26.1544 40.8881
6.41434 18.2254 67.0905
7.84834 11.8145 47.8695
6.0752 7.994 30.0545
8.77075 16.3275 37.517
6.57545 11.6897 48.2405
9.40012 4.99263 15.0664
6.22982 10.5634 33.7333
7.0073 4.4401 22.8659
7.31149 9.04383 45.466
8.2158 25.2779 61.611
5.67859 7.2802 73.6589
15.6421 18.1296 27.7639
3.26356 7.39778 27.3776
3.78159 7.23194 26.2569
3.89015 9.57201 23.2046
5.72278 10.0337 46.6425
12.9868 15.1562 24.1511
3.78781 18.0143 78.8739
8.89889 7.67883 32.0315
12.5751 28.5424 75.6623
7.54029 7.14373 40.8466
4.75674 11.6412 22.9598
4.28769 15.8711 47.6332
14.9768 29.613 83.6998
5.90299 3.68571 43.1063
5.32839 9.68478 27.7346
9.31056 9.07951 36.8978
5.21415 10.0563 43.1844
3.65235 12.8566 45.6672
3.50889 18.0619 34.7248
6.31802 14.6302 66.1127
8.98753 16.2141 63.0917
13.8281 12.2593 32.0246
6.14511 5.94273 13.911
6.77357 13.2844 37.6016
3.49532 7.85171 39.0691
3.10484 6.45047 22.5834
7.57456 5.58252 12.3429
3.41116 7.43614 26.195
5.43527 8.2594 16.1858
6.96714 8.45781 37.1645
6.78611 13.1082 45.9315
4.29403 5.93265 19.5097
5.67078 4.67304 17.3847
6.74379 13.3524 40.5485
7.87536 10.5589 58.6802
9.21477 11.9068 22.562
4.97134 12.8695 34.4984
7.53838 19.7433 80.6781
8.60874 12.8263 24.8966
4.42937 13.9341 61.4616
12.8462 11.0534 55.7233
9.39423 7.52379 19.6413
4.91863 21.9223 47.3219
8.16366 14.5713 43.8906
8.52206 13.3901 72.2683
10.6738 13.7531 34.5912
5.38945 9.65251 29.6407
4.28372 9.92633 22.8353
2.76591 6.27981 43.8842
7.74495 10.689 19.2681
6.3134 3.31478 24.5524
7.524 4.07492 6.83922
4.74095 5.01244 30.808
8.08959 7.75946 16.6736
3.42306 6.43901 26.2938
2.90141 7.64038 20.7705
3.04996 9.09909 35.3396
8.48195 17.0168 53.416
7.55352 4.701 14.7975
5.17847 9.73093 45.3527
9.18875 11.9732 41.2491
5.3174 9.3858 29.1818
6.44733 4.58054 25.3476
8.4935 9.09995 14.3243
5.06899 13.4381 35.3042
4.42404 10.4669 63.3173
10.0482 13.2085 43.072
9.08659 9.72942 25.2768
9.12022 13.2936 46.697
2.2136 6.87084 38.645
6.09983 12.3559 28.6328
8.8066 14.4806 33.7768
4.13448 6.188 56.5516
8.80327 10.7245 27.9637
6.16495 6.68778 22.8019
6.79343 4.20275 18.963
6.91374 8.86884 31.8492
7.75052 7.9953 23.8541
5.09209 14.6421 30.5825
2.88752 13.4244 70.6152
12.808 16.3626 68.2412
7.95378 21.4815 76.0344
11.8652 11.227 33.6528
10.6183 18.3347 56.7597
5.65283 11.5774 42.0317
8.11319 5.99438 34.9109
9.5506 20.1792 60.8995
4.90746 10.0495 18.3618
6.80714 13.1569 34.8915
2.24186 5.56026 30.3055
2.15733 6.84941 51.4297
9.49459 24.1624 60.7671
7.73449 4.0596 21.9465
3.72587 6.07261 53.2487
6.69604 22.3068 29.1729
3.90516 7.14991 34.4353
6.10997 12.0684 40.3916
4.2941 7.03357 30.7866
6.1973 19.126 67.7571
9.58269 9.20175 27.2723
2.68151 7.09828 34.1198
10.3252 9.30456 20.2854
3.35576 3.93858 31.741
7.55498 14.956 40.6698
8.35291 10.6314 47.4082
3.48256 12.4812 47.3465
6.88456 13.9623 43.1327
7.20587 12.0914 48.1793
6.96291 9.12371 46.9843
6.58243 10.8224 13.0381
3.76716 14.6622 33.2252
8.59332 8.8889 22.569
4.41727 20.0071 87.1525
7.75277 13.3049 58.4267
7.19678 16.6314 71.2468
8.14684 16.7588 74.6016
4.72541 11.3338 26.9284
6.09959 4.39621 30.5162
6.58583 17.4416 48.394
9.58285 7.57822 13.0712
4.27824 4.59236 46.9981
4.4682 10.728 30.5623
8.17974 5.68736 22.6825
6.02968 3.25591 17.0107
5.47778 6.55308 33.2866
9.15112 18.0382 40.843
3.70947 12.6033 38.0972
6.16582 6.23793 23.3241
4.97834 7.2515 38.04
3.62032 7.3855 35.0645
5.14964 5.76096 38.2624
8.03457 36.2152 114.515
8.79018 10.8777 48.358
4.17092 9.9614 44.5632
8.46082 14.7801 57.0864
1.00289 12.5518 31.8055
6.85076 6.23119 26.0872
3.84497 6.72547 14.7175
5.20391 7.4289 37.8017
5.82422 9.81857 26.2788
3.46413 6.69522 29.6458
3.10731 8.1386 27.1859
5.31882 15.5731 57.8618
7.72702 6.90752 26.8454
3.8191 12.6535 35.7805
4.95535 9.63827 45.9598
7.14253 6.44388 9.75838
2.98626 6.64861 39.4483
5.37504 16.6279 45.0955
3.47315 8.22058 50.1322
6.55696 12.8175 37.4285
6.5569 11.1237 62.113
3.81657 10.0059 10.0992
3.55414 16.1804 55.452
9.41262 6.25129 26.6279
6.40883 9.66808 62.0945
8.463 11.0943 45.7476
8.01935 15.89 49.0448
2.55847 4.53891 57.731
6.59007 20.2585 36.0091
5.82126 11.1979 25.0638
5.6733 9.7755 55.4867
10.2777 13.3007 46.6231
2.72188 7.85946 31.7645
3.89534 16.2198 62.5463
9.82591 11.4871 37.0661
6.0761 10.125 23.5569
4.52703 5.72175 55.9312
6.69352 10.7136 13.1889
3.41443 9.06096 65.3824
11.9347 12.8624 26.6305
4.2184 11.5744 34.5529
7.0213 6.74516 36.4463
6.23314 10.9956 26.7746
5.54459 12.0476 51.4469
7.29716 10.195 15.8916
4.48079 10.8123 73.9701
8.35921 9.79953 50.6887
8.52371 3.31394 22.6236
9.48988 16.1676 23.4504
3.89044 2.28475 12.7709
3.20763 8.37887 42.0939
4.5838 7.73785 15.6643
3.73377 6.5254 24.6666
4.40698 3.54435 12.709
3.52743 5.14102 32.4551
2.39144 5.23034 21.1961
4.80884 5.67264 31.2592
3.91305 6.80807 18.3061
2.20451 12.7071 51.4478
10.1419 10.9116 64.1208
6.84575 14.8186 59.198
5.68591 8.06231 18.7975
1.14701 13.3247 45.5425
5.54177 4.99055 21.5309
5.74406 15.0329 34.7577
4.97055 9.29701 12.7118
4.16747 7.55333 54.8374
4.9149 13.8161 52.8191
9.36579 8.1597 41.2475
8.31709 8.0658 23.5701
4.23317 13.3025 50.5925
6.37015 4.62858 32.4715
8.75796 10.7386 19.0098
4.40352 4.11797 48.7544
7.3409 12.2424 38.481
7.4116 8.51913 32.7259
6.75633 13.2644 30.1121
3.46621 4.73742 29.356
5.08552 12.4243 53.1178
2.5009 19.0253 61.8369
8.27661 6.40066 17.7186
6.03354 4.45245 15.2786
2.95731 4.26993 35.2295
2.93764 11.0134 23.9009
4.26094 4.64284 32.7254
7.3352 11.97 33.4749
6.05474 5.99208 28.1819
5.77338 6.96136 13.0632
4.74791 7.78641 46.0186
2.34536 5.65336 49.097
6.85791 22.8727 70.2538
4.59528 10.8794 29.7433
4.86884 7.50443 27.5292
6.58356 13.1863 48.3937
5.67032 9.58091 36.8107
4.13642 6.57758 63.826
6.09955 15.8752 17.5769
4.38438 3.76605 26.3757
5.50241 15.7146 49.1787
7.44473 10.0345 33.1692
7.39108 10.7996 43.9145
4.18983 3.43763 36.4157
3.51457 13.3847 47.2174
6.00421 15.2848 47.3657
7.78909 10.4749 42.7004
6.53552 9.58017 27.6122
2.93558 8.02237 26.2773
5.57119 11.2368 37.4053
5.61938 6.49909 50.9239
6.69335 7.41162 8.42814
3.6615 10.6831 46.555
5.51586 14.9447 51.0988
7.88838 13.5803 36.2122
7.02775 6.11595 45.2786
5.05748 6.59658 22.6367
4.98617 3.60285 32.3849
6.4219 10.0717 24.3142
2.7192 18.2241 71.4943
5.48973 4.07311 18.7195
3.65525 6.72303 19.1815
6.18002 10.4713 37.2275
4.78328 4.00493 31.1044
2.2835 6.56386 34.1732
5.80711 4.67043 23.8488
0.954312 10.0671 7.78554
3.5306 5.18216 38.9221
7.61687 14.9189 63.3471
5.55372 5.14007 44.1838
5.81127 11.0692 16.7861
4.91158 14.9876 81.6764
6.56768 17.5677 23.3746
6.38631 5.56031 45.6303
9.87315 12.3864 45.065
6.33715 6.12107 13.2102
3.66671 5.31252 27.9894
5.09694 9.41038 30.006
6.29713 5.48055 16.0947
5.91191 6.57366 57.6916
5.74584 8.22327 25.802
5.03934 7.10418 70.1758
10.5732 12.6937 24.1441
7.73337 23.8985 83.1719
9.08833 19.9669 31.7932
3.71079 3.46811 17.1958
3.45341 7.29298 40.4178
6.42146 8.8321 17.0139
3.04553 3.58903 24.7528
4.29313 8.41888 49.671
7.70464 7.11117 33.2622
6.44521 7.18373 46.1981
7.30837 13.2841 26.8249
2.95656 6.22809 21.8833
3.42535 16.2528 45.0258
8.54975 11.3118 56.3434
6.87565 9.13897 46.3438
3.85384 13.2474 41.2065
4.34865 10.7657 50.0449
5.76696 10.6939 24.3195
3.48875 8.06298 63.4181
5.97675 8.76558 25.8791
4.61874 10.6933 35.5215
2.80445 6.65995 61.9278
5.93064 12.4722 20.6784
4.8636 3.5672 23.6916
4.13918 11.3253 34.4383
4.20587 8.12546 31.7973
5.49564 13.8432 53.1633
3.81457 7.37069 13.455
2.49768 18.3249 64.6948
8.51185 8.13787 68.4856
7.82285 12.0189 18.6493
4.28395 6.43089 25.1168
5.59975 20.8892 60.4386
6.4005 1.57807 10.8029
4.62723 6.48652 51.0708
5.66872 6.98245 14.2389
5.08584 5.33143 19.0067
4.64439 7.93601 33.2223
2.5912 7.25509 32.7368
4.35703 9.69126 25.9544
5.74873 5.55201 29.5988
6.32564 5.31171 18.0954
5.63052 2.23932 23.5061
6.97476 15.1379 64.4271
6.34234 4.2489 15.5577
5.48634 10.6188 17.9122
3.91429 4.80286 14.9239
2.81161 7.71795 38.053
5.3955 9.85298 50.3915
5.09674 12.0143 50.86
6.19278 8.17636 7.77582
5.08846 6.73798 17.1758
3.57152 7.62883 35.0173
5.0223 5.87317 32.093
4.08462 10.3356 48.1617
7.54232 9.78535 22.6259
1.67142 7.1834 37.4577
5.6939 8.57637 13.426
3.6728 9.05592 31.1688
4.17754 2.41446 16.8227
3.34255 3.32248 20.6052
2.08092 5.2512 45.0636
3.69992 6.16065 17.1824
2.01366 5.56276 48.6069
4.75276 7.03144 11.7551
3.86062 9.17751 47.1967
2.07118 16.6273 70.3374
6.90904 3.58181 19.2456
3.47023 11.4393 69.8556
5.35796 17.2013 32.1067
2.22246 6.75021 20.3829
4.22931 7.35383 38.517
5.9819 10.1477 46.6117
6.51706 9.29003 40.9806
7.30764 14.6162 61.1036
3.8996 6.86759 17.3213
3.51853 10.3858 45.5927
6.87107 8.11903 19.139
6.11596 4.63429 15.15
4.47593 9.93708 34.6975
5.22118 6.43952 21.3097
2.96257 7.5888 30.3443
5.85579 11.2344 29.32
5.41319 5.2078 46.7569
8.91562 6.28988 58.9744
7.75935 17.477 44.3587
5.89558 5.68561 12.375
4.79056 9.51084 36.4771
6.06056 8.40843 35.1864
5.34904 5.37058 5.9243
2.80943 5.24625 41.4246
5.35235 13.4223 50.2016
7.2833 8.60876 18.9504
4.58339 12.6513 32.081
5.37421 10.9292 54.0437
8.21645 5.61164 58.8092
8.08524 8.29176 13.8768
4.72007 13.4768 27.4716
3.69701 5.40828 46.1871
8.51213 5.97213 24.3805
5.36938 7.60901 22.1495
5.98304 5.51901 35.2074
5.87992 8.18812 45.9272
6.00909 5.54792 10.2149
3.92202 4.06174 10.4139
3.75925 8.25721 35.1378
2.14204 7.61685 48.9571
3.92563 18.3027 127.608
11.7181 22.4729 49.3816
9.5943 13.8135 51.6328
6.57904 10.8591 32.9497
4.58656 6.94333 19.7248
2.94822 4.58202 32.6305
4.18046 9.4279 6.89495
3.39505 7.50776 23.5017
2.27005 3.51281 48.9795
5.32714 17.6508 67.3781
4.78643 6.757 19.9597
1.92154 9.75666 51.2582
7.27993 10.9453 41.6422
7.8785 10.2674 28.6756
5.83946 8.61116 28.4169
1.13475 5.49349 40.6738
1.37468 5.03673 33.6657
4.94341 11.0348 21.275
6.48337 0 0