# pn-170911/CsIIA-av-USNO-1280-1959.psd
# Power spectrum* (dif=0,1,2) (really just |FT|^2)
# NOTE: only the first half! (symmetric)
# weeks: 1280-1959
# 66 clock-days, 11 excluded
# PSD: 1441
215051 5.34982 0.0278335
2.26865e+06 29.5693 0.0305798
1.80954e+07 375.966 0.0393044
1.90363e+06 79.817 0.036874
3.02438e+06 242.257 0.0497606
623797 55.4218 0.0374773
389703 56.4507 0.0421182
323735 58.208 0.0452885
275102 66.7939 0.050948
186358 60.9748 0.0552349
134660 58.9278 0.0655134
109024 55.804 0.0631838
132665 74.049 0.0776917
94485.8 52.8348 0.0662704
89548.3 54.4201 0.0840894
82797.6 67.8475 0.103713
60740.3 62.0519 0.112153
54094.8 51.5219 0.084473
41542.6 56.0127 0.121536
55468.9 62.71 0.145628
38656.3 60.8655 0.149544
40208.7 67.1059 0.179846
30381.9 58.9774 0.171406
27585.9 57.3786 0.187009
34785.1 73.1794 0.219736
21321.3 53.0095 0.178134
23395.9 62.788 0.241447
17080.9 52.5416 0.220694
21199.1 62.5057 0.260966
14691 43.5026 0.212367
15819.7 49.5632 0.247414
18064.4 76.7466 0.373982
13117.1 56.907 0.283129
16407.9 65.0653 0.375383
10960.3 49.57 0.300128
10919.9 51.8013 0.329625
9927.71 53.1456 0.377721
8881.22 44.7885 0.33139
11013 60.6029 0.440153
11035.4 57.2945 0.467708
11606.1 67.1449 0.518109
7893.11 54.989 0.466275
8464.57 56.3374 0.498048
8388.13 66.0248 0.602716
8249.42 53.3816 0.529159
6912.16 55.8168 0.583401
7248.12 55.0901 0.574263
7283.53 65.7891 0.733455
6694.97 56.1126 0.665
5377.08 46.3476 0.521943
6576.44 68.0591 0.831049
5475.56 55.7347 0.718226
5085.43 41.2483 0.534585
7020.06 72.9521 0.998422
5601.34 58.912 0.866905
4194.39 47.8781 0.719408
5396.26 60.7573 0.86554
4866.83 52.036 0.841176
4673.81 58.7713 1.00878
3968.55 59.2156 1.03672
5257.04 69.3787 1.23436
3390.04 51.8393 0.931333
3493.37 53.5304 0.985174
3484.14 55.4442 1.11412
4184.63 61.8984 1.30053
3554.79 65.1224 1.36922
3581.82 53.6202 1.13733
3291.64 52.2723 1.09444
4273.65 74.5237 1.62579
3809.92 62.5136 1.45355
3166.33 56.9373 1.3605
2839.51 51.356 1.29856
2449.29 59.9085 1.50109
3294.6 64.031 1.70043
3266.54 65.5692 1.73922
3067.26 57.4981 1.59261
3086.06 60.2776 1.65111
2414.08 50.3257 1.46622
2537.52 56.801 1.61798
2434.55 50.4894 1.45211
3242.3 74.5153 2.24134
2584.45 59.8327 1.96118
1702.57 38.7 1.28799
2067.82 56.0064 1.91018
2014.01 55.6951 1.89029
2160.6 61.9765 2.1645
1955.62 55.3688 1.97207
1745.52 44.5612 1.65061
2297.22 60.8378 2.25746
2100.2 61.5268 2.30644
2145.27 67.5053 2.68921
1648.57 50.6993 1.98894
2036.99 59.6955 2.39545
1885.11 59.1395 2.38476
1988.46 56.725 2.3646
1996.95 64.5168 2.85448
1852.79 62.9943 2.7597
1585.81 51.8619 2.35516
1431.53 45.2475 2.05769
1422.27 44.334 2.08436
1960.7 61.2239 2.89324
1301.44 50.0641 2.53235
1657.15 64.1326 3.17639
1561.61 54.4802 2.73905
1574.39 49.4294 2.54804
1399.5 57.1311 3.09141
1239.88 47.4072 2.53731
1426.34 57.089 3.01515
1294.19 53.8117 3.02608
1235.6 57.5702 3.21296
1155.59 51.701 3.05444
1090.34 47.2647 2.72822
1278.8 61.1063 3.67104
1228.15 53.9256 3.28039
1339.52 53.7296 3.30359
1104.42 42.986 2.66976
1129.78 45.0229 2.93329
1256.5 61.0589 3.92414
1114.25 60.1709 3.90114
1212.59 50.7937 3.39081
1059.91 53.5473 3.51501
1196.35 54.762 3.87269
990.572 55.8688 3.99824
1160.9 62.6878 4.4291
911.755 52.8072 3.94086
961.88 44.0661 3.20179
873.096 40.7726 3.10832
945.674 55.441 4.17463
938.109 57.8552 4.58664
973.795 52.2636 4.08786
845.172 52.3479 4.1855
875.455 47.9819 3.74424
1012.24 56.6695 4.77729
757.766 53.5761 4.24728
898.468 47.6916 4.17266
767.97 49.8509 4.4526
756.522 52.9562 4.64936
731.24 40.7214 3.57996
753.316 45.114 4.11606
517.448 38.9492 3.54818
862.147 46.4844 4.31161
842.652 50.5522 4.78128
834.975 51.403 4.93655
700.754 52.5042 5.19889
713.654 47.2468 4.51784
985.367 67.7902 6.56173
558.925 36.3546 3.57439
910.44 76.7509 7.71441
708.339 50.3127 5.19828
596.949 51.1379 5.4727
769.797 58.008 6.24185
605.14 52.9465 5.76503
570.461 42.1882 4.65313
571.768 53.2032 5.84533
706.751 63.3815 7.24144
599.159 45.7248 5.17297
636.3 54.1887 6.4351
589.827 53.5615 6.14997
612.394 48.7662 5.82211
605.887 48.4555 5.81143
611.769 49.7549 6.11194
562.739 47.3456 5.87178
672.646 60.0835 7.22458
620.879 49.263 6.2677
468.016 39.2316 5.04248
608.943 49.2032 6.13279
574.274 48.8228 6.3657
519.349 50.3974 6.3993
493.369 45.2632 6.12869
490.533 44.457 5.89254
572.191 48.0617 6.39145
563.075 52.1641 7.4151
491.201 46.1298 6.43803
459.418 39.4404 5.79939
407.967 38.4018 5.43645
545.068 54.8277 8.18144
465.969 43.3015 5.90493
430.567 47.5917 6.99277
463.655 46.7997 6.86031
446.748 46.9956 7.1322
571.246 51.4163 7.63971
489.008 56.7198 8.62143
494.004 46.9537 7.40239
513.909 45.4165 7.09726
416.876 41.0543 6.51484
402.494 44.1001 7.20043
508.785 47.3182 7.44678
463.797 51.4581 8.82926
480.484 52.7751 9.09435
522.92 59.0011 9.75721
523.703 51.0729 8.36548
367.767 41.2404 7.16592
403.669 45.7101 7.99728
380.4 51.4676 9.30176
441.81 54.6878 9.49585
360.535 50.1059 8.69822
382.591 46.5667 8.45812
357.147 47.7917 8.72989
387.751 44.3539 8.0849
334.193 34.3774 6.34997
393.165 43.9065 7.9011
359.365 44.1765 8.62853
373.603 56.1402 10.2923
311.388 40.2485 7.80388
349.224 43.2464 8.14047
357.885 48.0011 9.55213
326.122 36.3227 7.40884
323.066 42.5499 8.82326
409.755 51.1547 10.2259
327.765 38.7205 7.93665
316.747 47.3623 9.7596
302.405 46.9981 9.71271
295.222 43.4755 9.06357
367.791 51.5205 11.0558
332.815 43.7519 9.36697
314.508 50.6963 11.0363
309.616 45.5568 10.0687
377.578 45.3032 9.99067
373.145 56.8427 12.407
271.683 47.5847 11.0726
335.769 50.8711 11.9937
245.892 45.5006 10.3643
317.045 48.093 10.7338
323.221 41.6793 9.33437
273.966 44.4704 10.2351
245.191 41.2972 9.85707
270.818 39.5713 9.32924
283.626 43.5358 10.7137
271.492 48.1054 11.4258
224.966 45.3828 11.6654
297.242 47.191 11.4239
295.648 47.0113 11.6327
218.415 38.8154 10.3544
248.056 51.4862 12.64
290.612 45.5887 11.5574
294.05 46.1022 12.1413
262.733 44.6095 11.0779
257.623 39.4941 10.0797
283.261 53.9797 14.6678
243.41 37.6032 10.0921
234.294 42.1645 11.7384
226.791 43.2728 11.6179
186.068 32.998 9.13361
252.885 43.9223 12.1297
268.656 43.1772 11.84
218.967 44.2743 12.2997
279.517 55.0093 15.9356
254.798 47.8296 13.2353
230.456 42.3858 12.28
246.004 45.5559 13.1382
227.632 35.4407 10.3967
227.425 39.2994 11.4526
214.546 42.5822 12.4661
230.108 42.8645 12.2318
237.427 45.45 13.3166
258.814 56.0949 17.7008
272.217 48.3352 14.694
244.783 41.309 13.0837
172.624 34.5735 10.2863
197.151 48.978 15.876
186.422 33.0616 10.8162
198.235 38.8723 11.12
182.441 41.1818 13.5656
181.98 41.2841 13.2049
166.078 32.3225 10.7385
181.052 43.8469 13.94
233.788 45.8906 14.9737
238.645 55.5809 17.9934
191.112 44.1009 14.8477
239.823 49.3878 16.2838
185.726 45.7059 15.4202
191.426 44.7353 15.3638
183.688 46.0961 15.7825
170.605 40.2528 13.6269
195.347 37.8999 12.8046
159.602 43.6172 16.3429
198.855 46.1547 16.2078
184.078 41.6809 14.1612
168.952 39.9064 14.1267
211.505 45.9051 16.9594
171.985 39.7079 14.1283
186.26 44.521 16.9793
185.699 45.6202 16.5143
191.959 44.3222 16.2001
185.064 39.7229 13.9346
181.428 36.0842 13.4505
174.283 39.2204 15.6849
177.516 45.4402 16.4884
170.673 41.2806 15.9986
189.887 42.0946 15.6944
152.343 39.5836 15.551
186.934 44.8473 17.0676
150.733 36.0048 15.0169
139.07 35.0735 13.7231
159.724 33.4968 13.3162
148.379 37.7747 14.8144
146.507 43.6528 17.5334
140.754 35.3945 14.8069
139.527 36.1142 14.6826
136.772 35.064 15.0228
140.04 32.8186 12.9047
150.443 38.1092 15.2629
155.303 41.0057 17.1925
110.362 32.4291 13.6736
172.673 42.7636 17.5073
150.546 39.5591 16.5097
130.107 35.3043 15.6035
175.325 44.9334 19.2107
125.019 33.022 15.2736
120.283 35.7644 15.0331
131.233 37.5479 17.3349
123.244 35.0051 15.9288
141.317 37.0189 16.0708
116.89 33.8005 14.4955
117.076 35.3817 16.1875
143.237 44.7572 20.5484
134.186 38.8121 17.2913
123.034 34.5 15.9943
116.835 35.6478 16.5144
118.569 33.7411 14.8887
115.479 35.5277 17.5155
119.358 35.1193 16.0329
90.146 33.0717 16.6526
127.395 36.7638 16.2931
102.225 31.9008 14.9499
127.872 36.401 18.1212
126.315 41.0836 19.4543
116.665 35.0221 16.9278
97.9128 30.0465 14.3613
114.548 35.9504 17.9125
134.82 42.7745 22.2443
101.348 35.5633 17.4849
84.2277 30.7869 16.1816
119.785 39.029 20.2404
123.843 44.7596 22.7267
147.381 45.9454 22.6838
112.621 42.0247 21.6086
107.157 39.6886 19.9494
97.5937 30.732 16.4195
109.82 34.9368 17.5167
109.435 36.4827 19.8686
103.411 32.1716 18.0547
118.575 35.7085 17.9775
94.7553 33.8538 19.296
119.345 38.7229 19.514
109.363 37.5564 21.1015
91.1201 31.9898 17.362
109.089 34.5448 18.3279
115.366 36.2838 18.7945
109.026 35.6443 20.0735
113.853 42.54 22.3036
100.42 39.5078 22.9316
78.1707 26.7063 15.4531
97.6892 34.8845 19.339
97.4208 36.5495 19.7026
87.0536 35.3905 21.5995
107.755 38.8895 21.7615
86.396 38.9102 20.9063
94.4668 34.862 19.9848
65.9058 31.6283 19.8048
94.1327 38.795 22.6841
97.5154 31.1653 17.8154
99.9775 35.8335 21.1982
92.3031 35.9267 20.9857
86.9622 36.3678 20.8429
82.4363 33.0114 20.4731
81.455 31.2267 19.9146
71.2429 30.9785 19.647
119.495 39.4597 22.6475
97.4307 42.0626 24.4013
79.4209 35.074 23.5483
105.59 35.4079 20.2077
74.7317 31.1407 19.942
88.9328 29.3458 17.6723
82.154 33.8379 22.047
82.0751 29.4926 18.6961
104.03 37.2548 22.8279
72.5896 26.6902 17.4502
73.8638 32.2285 21.4734
90.0051 38.2938 22.9842
79.7781 39.4708 27.0846
81.1741 37.7467 25.5548
73.5844 29.0831 19.5305
93.0456 37.6807 23.9386
80.8347 39.4251 26.5925
83.9063 37.2646 23.6799
79.094 29.5005 20.7634
80.4637 32.6777 20.0358
82.4215 35.9457 24.2497
89.9514 36.5754 24.7677
69.5784 30.4588 20.8386
72.9585 37.2183 26.509
70.9995 30.5072 20.3495
77.1058 37.7561 25.3928
79.349 34.422 24.6177
65.6684 28.8851 18.7625
65.4112 26.4481 20.2609
80.3002 33.3084 22.5002
73.5153 32.3898 22.6681
71.0356 25.4254 17.1352
71.5278 29.0883 21.3851
70.3447 30.922 23.0784
68.5981 31.6481 23.4204
65.0539 24.696 17.7314
79.6264 31.8705 22.9519
86.2212 37.1716 26.8527
76.2413 32.7657 22.5788
63.0736 31.9823 25.684
70.6446 36.2896 26.0152
86.9348 40.9445 29.205
60.7755 31.3563 24.5296
71.473 32.7342 25.0244
65.2874 27.9657 21.7806
71.5682 32.4133 24.8074
69.1659 32.0128 24.0209
57.3007 28.2007 22.4272
76.2509 38.6385 28.3758
56.5982 26.9843 21.8583
57.7102 24.1504 18.6791
61.9611 30.2189 23.2803
65.3213 32.5217 25.6419
56.4006 30.8109 26.3136
57.3921 27.9591 21.0197
62.8109 32.0881 24.9039
62.4564 30.3614 25.7865
62.5252 33.8444 28.486
64.9522 29.1412 22.0499
69.7323 36.1847 27.0595
62.2569 31.0876 25.1058
71.9838 35.0061 30.0215
63.1965 33.9273 25.7622
70.7979 35.4435 29.0032
47.7549 23.696 19.5995
54.1711 27.0257 21.7751
49.5151 25.0454 23.4045
63.7497 35.6642 27.8841
61.1981 32.5206 28.0455
63.8287 25.0417 20.813
64.149 32.3279 28.6864
55.6952 30.4474 25.0521
57.4104 32.9737 27.0893
52.1128 29.8598 27.4793
67.0581 29.0105 23.7857
60.4376 34.8285 31.5874
58.1875 27.3605 22.5596
42.7175 23.8369 21.342
49.9608 25.2734 20.7966
64.3902 30.2185 27.4186
53.347 25.732 21.7935
53.6812 25.9711 23.8942
53.5818 29.2505 24.5656
55.013 33.1397 27.6403
50.1028 33.8614 31.1906
43.2911 22.915 21.5789
61.816 35.4287 30.6882
41.9291 23.4298 23.2451
55.0574 28.8602 24.6582
51.4191 28.3997 27.3075
49.2162 20.5096 17.1917
39.9246 20.0106 19.0353
45.6481 28.0654 26.3246
60.183 35.1106 30.6308
48.3585 28.467 29.5293
45.6719 25.3672 24.9194
44.889 25.1814 23.1564
42.6749 29.8545 26.777
47.3209 28.885 27.0253
47.2466 27.857 28.773
48.2472 24.147 22.6993
42.3121 27.517 27.5587
48.7341 25.2762 22.3377
48.7711 27.9889 26.118
54.4899 31.2129 31.2203
48.0304 27.4422 25.8584
41.8562 29.9633 30.8392
55.0704 29.5294 26.7214
40.9548 24.2053 26.7211
48.6738 33.2717 31.534
47.8571 29.3614 29.5362
41.9204 23.1285 20.4123
42.2891 23.3991 24.1468
50.1405 31.872 30.4996
46.7662 27.3932 28.9004
50.2133 29.5802 29.6503
37.1751 22.7303 23.5958
47.6475 25.84 26.7244
46.3219 26.3652 27.1782
57.5282 35.5351 37.7426
50.9815 28.2761 28.238
39.6264 28.9908 28.8094
40.6519 32.1736 33.5811
39.0453 20.7153 22.8963
46.282 22.0612 23.6851
56.9 30.223 31.1258
47.0016 29.9103 31.5631
41.3571 24.4906 25.0084
36.8939 24.0855 25.7843
42 28.6869 32.7149
54.1738 27.9399 28.9293
41.4875 27.9948 28.3205
39.944 23.8773 24.7065
38.0298 24.0515 27.9974
40.2231 20.8497 20.8305
41.9149 24.1225 28.4027
37.3204 27.2484 28.6358
41.0396 31.5321 35.6153
47.2986 27.8084 30.0073
40.0133 32.7332 36.7124
47.7976 26.8188 27.9248
40.6634 32.4132 37.4841
46.9808 29.6737 32.6156
47.8704 30.6205 31.4896
44.9422 30.5322 34.5147
36.2867 23.7292 29.6609
36.099 24.556 25.6
34.636 26.4128 33.0461
37.0106 25.6907 29.2566
40.1324 23.8775 27.9251
52.823 28.9462 33.6911
40.0008 29.4179 32.0415
33.4615 24.4479 26.4721
35.4916 20.1094 22.1827
40.2359 28.2402 35.2363
41.4942 21.7089 25.997
44.8685 30.3985 32.3087
34.2365 24.3434 29.1315
39.688 23.2446 32.1846
41.3624 33.1763 38.5377
52.5014 30.6788 34.7674
42.2575 23.4981 27.3993
41.7502 21.431 27.465
41.7713 24.3197 29.926
43.6746 27.609 31.147
34.6635 17.4618 23.4303
35.5811 19.8145 25.5525
38.1859 28.6709 29.9259
41.2757 27.4782 33.5159
34.4578 22.2964 26.7522
36.0292 25.0631 31.342
38.2342 32.4668 39.4345
38.3081 21.9652 26.5398
37.9694 24.4801 30.4978
37.968 28.0291 38.2732
41.2842 27.2474 31.4026
36.5129 24.876 32.3795
37.2152 23.86 30.0383
34.5121 22.1895 28.2398
37.534 21.3895 25.9461
35.0196 19.9608 27.9888
39.0594 26.1972 30.5196
37.6374 29.565 35.3134
33.449 21.9653 29.8404
34.2945 22.32 25.91
33.6911 21.6343 28.2285
35.4547 23.1822 29.6242
34.9931 20.9036 29.6482
32.03 22.6133 31.011
29.017 22.2258 28.8387
36.8455 20.7538 24.4131
30.1927 20.6931 28.9222
34.9062 22.284 29.4193
30.4972 21.6153 27.2418
33.4916 21.6407 32.7813
31.6446 22.7115 28.1655
29.0435 19.9528 25.1715
29.8509 21.0484 31.727
39.6647 28.4371 37.7854
31.1023 23.2388 30.7405
33.7941 23.5179 30.9068
33.0027 25.2328 31.4727
31.9179 26.3998 34.2272
33.1079 24.4856 37.7684
37.4346 23.583 29.2491
35.599 30.3587 42.9837
37.0197 23.7635 35.6474
40.5209 26.523 32.5919
28.6687 24.5828 35.6112
35.7325 25.8373 36.3708
35.362 22.3154 32.3776
40.6826 24.9402 34.1063
39.8809 24.4831 31.5077
30.542 23.1984 31.1633
28.1616 20.4924 29.5496
31.0499 21.1716 34.1165
41.1399 29.5853 38.7852
29.8804 21.4127 29.7865
34.8636 26.3314 37.9492
36.6423 27.3475 36.8517
29.3733 20.5699 31.5753
32.0353 23.8946 33.665
35.6324 25.9679 33.9065
31.829 22.4496 34.0564
33.9078 26.4752 37.1917
34.6726 18.6007 27.7643
28.763 25.923 35.6984
30.6236 23.9184 35.6283
28.973 22.8642 35.0499
41.0997 27.3532 37.8294
27.6716 21.4562 32.4998
28.7104 21.9709 31.8926
27.5188 19.1708 29.4796
30.5457 25.4149 41.3864
29.4138 21.3341 24.9616
31.9104 21.2801 33.8293
30.8431 22.4882 34.5219
29.0244 20.892 29.0252
29.6423 20.2225 32.6367
32.6391 25.5668 35.6989
26.8094 21.0539 36.7398
32.4677 26.6872 38.7959
32.6743 20.5639 31.7458
35.9761 25.5266 38.4675
25.8953 17.2543 24.6807
28.3389 18.4068 29.9097
28.4001 22.7132 34.7912
29.3886 19.8754 32.3285
32.592 18.5143 30.1241
29.9728 20.8603 31.5411
28.2443 19.1738 32.7027
26.3716 21.9117 29.3048
27.5773 26.039 41.5946
25.0558 19.2183 33.5462
28.6082 18.7459 27.9126
27.9279 21.8528 34.1657
27.3885 20.9748 33.2985
25.8828 19.4738 30.8533
27.3057 19.8835 30.6053
22.6143 15.9163 30.181
31.9845 22.1349 33.0387
27.4661 18.8562 28.0866
22.7179 19.7275 28.2568
26.1663 25.3095 42.9773
28.2396 15.87 23.3596
24.0398 19.4458 36.0186
26.5768 23.4371 39.7314
37.9826 26.5876 43.207
27.5654 21.2047 34.6586
28.3134 21.8118 33.1005
25.0685 18.6712 29.1581
26.1598 20.9177 38.9655
26.9569 19.5748 30.8003
27.9521 21.2087 35.4885
27.9349 16.3263 26.5777
24.8696 18.9958 30.0341
28.1643 27.4198 45.9637
26.3979 19.6194 32.4823
28.8935 24.4269 42.1293
32.1984 18.0773 28.933
24.6211 21.1112 37.1477
24.5074 18.9505 32.2817
24.0387 17.6387 29.3133
23.5993 18.4238 32.3786
26.0234 20.6688 35.0101
24.478 20.8276 34.1286
25.1984 17.1583 29.9743
23.5635 20.1631 34.3912
23.994 17.1876 33.2621
27.0378 21.4067 35.9857
25.767 20.5739 31.7139
23.643 19.3143 33.217
27.4156 22.2934 39.9611
23.4785 15.1004 28.8958
23.9248 17.0768 29.0317
23.7568 18.7248 35.264
27.7142 23.0673 38.4003
30.0599 26.6268 44.0523
29.4062 20.6444 37.5347
24.6501 22.4978 38.2302
20.498 14.0159 25.4949
24.9639 21.1054 35.3969
24.3677 16.6157 25.9085
23.1361 18.0883 35.4614
22.765 20.5855 40.4993
23.1943 19.7272 34.253
23.2631 16.4655 29.988
23.573 19.1043 34.8604
24.483 21.9341 39.1693
23.4026 16.4662 33.7615
22.1311 17.5266 27.0138
21.9955 19.5127 36.652
26.6945 19.9505 35.3794
19.2771 16.2174 31.0671
24.2025 18.5533 31.8594
17.0898 13.5889 29.8292
22.5239 17.0978 27.6121
29.5945 20.847 38.6446
20.7226 15.9956 30.6302
19.3691 19.112 33.3057
19.5076 15.5674 31.515
25.2923 19.8637 35.9816
21.6404 18.1339 32.3289
20.7721 18.2629 33.8763
21.7101 18.9092 32.9664
17.8135 15.7479 32.32
21.2037 16.4834 34.4275
22.4313 19.1864 33.5738
19.1021 16.594 33.1141
22.2815 19.923 40.463
23.8959 18.3324 31.3802
20.7665 20.7568 34.7877
20.8242 21.2801 44.4896
26.2664 22.7557 38.7532
18.4925 14.2278 31.0931
19.8596 23.4401 43.4195
20.5713 18.3739 36.483
21.5013 13.8259 27.6942
18.4722 16.6089 34.545
21.2892 17.4269 32.0965
24.3064 18.6554 34.6314
22.1746 18.0741 37.3422
19.4478 15.3717 34.7191
24.3703 21.2581 43.024
18.5863 19.0141 32.1608
21.9929 22.7425 40.3748
20.1424 13.6442 29.2484
18.8516 10.3353 24.2126
20.751 18.1615 33.1325
19.3057 14.5142 33.1119
18.6921 12.2578 26.3028
21.9778 19.5852 35.4097
19.8733 15.4682 26.5242
16.0369 16.9166 35.4581
19.4882 12.5537 27.0814
23.0645 20.5478 38.1433
18.6609 16.0594 37.9529
20.4475 19.004 35.9362
21.5162 19.4753 38.2703
17.7736 20.0579 40.8852
22.3089 16.133 32.4171
17.4604 12.1341 24.8433
18.8655 17.4155 36.2694
21.2331 17.1897 31.8089
14.5338 12.8088 28.971
19.483 15.2134 26.5348
17.6757 12.079 24.3425
17.5125 14.9359 32.7821
18.6063 16.277 32.8823
15.9527 14.7085 28.734
17.8937 14.6838 29.5556
16.9047 18.4123 43.2998
20.3477 18.5872 34.3743
18.8957 15.1357 31.785
16.8102 14.9821 32.0775
15.1429 13.0105 29.6805
18.7336 18.7293 42.6839
17.9334 13.9012 34.1392
20.8859 16.6469 31.4717
17.1352 15.7342 35.2562
19.4896 21.8131 49.3125
20.8569 18.9676 38.613
16.5436 16.137 35.1878
17.5657 18.5571 39.0862
19.4881 14.5387 28.1703
21.6016 17.5423 42.7823
23.0764 23.5377 43.8884
15.3557 17.5004 41.1839
17.4964 12.3403 25.5895
16.2379 13.8997 30.3348
22.6373 19.7357 40.8057
17.1851 16.2057 42.2865
20.3557 20.2451 41.0786
19.6924 16.1189 39.2009
19.8364 18.1495 38.7627
19.4746 18.4689 41.2242
19.3595 17.9668 35.7957
15.9358 14.1832 33.9667
18.7587 15.3805 39.5518
20.0533 20.4824 42.7006
17.2279 15.1757 30.2989
15.0607 15.5045 36.7914
18.7129 18.2245 39.6288
23.8726 20.7765 40.2373
15.2982 18.0074 43.9845
16.3293 13.9377 35.6771
17.6328 17.9527 34.5314
16.0822 19.9683 44.3764
13.9888 13.1412 33.898
20.0821 14.6219 29.4645
16.8213 15.3311 35.0393
16.4552 20.3248 43.6318
18.0024 18.4037 39.2251
14.6233 18.8458 42.5992
16.9391 18.6553 39.6942
18.5417 13.1525 33.3301
15.8788 13.8505 32.029
13.2286 12.5413 26.9992
14.1827 16.0467 40.2449
14.7515 12.6335 28.5179
17.7357 19.0019 42.4408
18.7727 15.1133 36.8195
16.9491 16.7578 37.163
15.4397 17.3331 43.5671
17.9188 18.4424 41.8539
13.8907 13.4551 28.5961
15.3704 18.6683 39.7948
15.0267 15.6628 36.2847
18.8339 16.5804 38.9588
16.1196 15.0203 38.2786
15.6777 14.6322 31.2697
15.0591 12.5389 28.4116
14.0516 11.5391 31.9913
16.7891 14.8829 30.7081
14.7529 12.7391 32.3203
12.5543 16.0219 32.0753
13.8885 15.7699 39.575
15.9969 14.9971 43.0067
16.863 18.4935 42.6162
15.7587 14.9477 38.7643
18.76 16.3328 31.8723
18.647 17.0623 43.452
17.0141 15.9155 35.4578
14.1274 17.2145 41.0142
19.5053 18.6055 47.0413
14.3189 16.9822 38.787
15.8018 15.8631 34.6046
16.4184 14.3999 38.1655
15.7503 14.2768 30.818
17.6471 15.0171 33.9407
12.2052 11.8675 32.3871
15.0592 15.0866 34.9498
15.903 16.5342 38.9638
16.9737 16.2403 40.8338
18.6699 19.253 40.3537
13.712 12.6305 36.3261
15.0443 18.6219 40.1133
13.0051 12.5651 38.2993
17.4057 15.946 35.8842
16.5485 16.7464 37.7813
12.7142 12.2755 28.5023
13.3993 11.8082 27.7652
14.2908 13.3762 38.0016
13.273 14.0058 37.0834
15.7142 15.2073 32.5033
13.2672 13.4773 33.3146
16.2471 13.6657 36.6064
14.3176 16.7774 48.1507
14.1564 15.6026 34.8894
15.5721 17.0643 43.5132
15.6429 15.5263 34.3241
13.635 14.2074 38.5714
16.752 10.9866 27.5725
14.9256 16.9828 44.0188
14.8548 16.6816 40.1275
14.0398 15.5132 38.3369
13.6111 16.5527 42.4527
14.4674 11.5918 31.6949
14.6543 10.4616 28.6349
16.4757 14.6723 36.9846
13.2399 14.185 33.8466
11.8704 13.057 35.2812
12.1438 10.6005 28.8481
13.8596 17.1067 39.2239
13.8287 11.0266 33.3335
15.119 13.9176 30.6749
11.1823 16.0173 39.0168
12.916 12.8204 36.5267
14.2633 12.572 32.6721
12.4567 14.0505 35.9918
16.7403 13.4717 37.4618
14.6224 15.26 41.0131
14.3113 13.8919 32.5204
13.9156 16.5083 38.4451
12.3816 12.0806 38.2864
17.1522 13.8925 35.4803
14.2249 14.5687 45.433
15.5625 14.8355 38.6128
14.727 13.5015 38.1323
14.3026 16.0079 36.7493
17.3205 13.1926 27.3206
14.837 17.0677 51.5029
17.063 12.7399 37.903
16.3922 10.9771 25.7288
14.6594 15.9282 42.401
14.4581 13.9645 38.5614
12.3228 11.4731 33.71
15.4052 14.083 35.2573
15.3231 15.749 40.2932
14.1264 12.57 32.4523
14.3693 12.3471 33.1225
12.2099 15.0204 38.185
13.5988 13.2529 34.2883
12.7573 14.5521 41.4324
15.6643 11.0788 30.2673
13.9807 12.7068 35.4318
16.5294 11.544 28.5026
11.9553 11.9767 29.0974
13.7295 12.6124 44.5389
15.3497 17.3576 36.5385
17.8957 15.2272 32.519
12.5881 14.6767 44.4536
13.115 15.2417 38.6993
13.2174 12.8824 36.4344
12.5889 9.06775 28.0678
13.6184 13.9286 38.6839
12.0228 11.0695 31.3714
15.2389 13.1223 35.6498
16.6085 16.4599 43.5229
14.3479 16.1214 49.8568
14.5395 13.152 37.1612
10.8932 11.9486 35.69
12.724 15.4934 34.1492
15.312 13.3621 44.8431
15.9858 15.0908 38.1675
14.6545 13.7196 36.0441
12.8516 12.2929 34.8186
12.1772 14.6744 37.8994
12.8777 13.9695 43.1218
13.4718 13.6291 39.0316
15.5851 13.8738 37.3098
14.6339 11.4564 36.0099
14.7977 11.3579 31.0856
12.4473 11.6455 31.1913
11.8767 10.6584 27.71
13.9569 13.506 39.7501
14.1093 12.8678 39.425
14.836 14.0797 40.8513
13.0856 9.81378 29.9479
11.9929 13.5459 36.5019
13.8381 15.6666 41.3273
14.3694 15.0585 39.8577
12.5857 11.5688 31.96
16.2806 13.314 40.7174
14.6772 16.0374 42.6128
13.6612 11.1746 30.8667
11.687 9.67804 30.5588
13.3746 15.3017 41.2575
15.9176 13.2381 38.2285
12.7096 11.1823 36.8662
11.3777 10.9331 27.807
11.7562 11.0059 33.7898
12.7161 12.9018 30.9584
13.1483 9.77239 30.1656
13.9334 15.8865 45.3833
13.2182 12.449 39.6393
12.8 13.1743 45.386
14.2384 12.6035 28.9911
11.8084 10.7332 39.5266
15.3681 16.2847 41.7202
13.1531 10.1631 27.9514
14.4318 10.7291 33.7606
12.9202 10.2598 29.915
12.4827 11.5153 29.3588
11.3758 9.5519 33.0111
12.6124 14.1178 40.6115
13.0537 11.881 37.7795
14.7581 10.8179 32.6137
13.7724 12.2963 36.3304
12.6402 11.8364 37.1113
12.3368 17.2429 49.2819
16.6659 16.9621 44.4773
14.1625 13.4503 41.258
15.4018 10.9207 32.6569
14.7076 8.98616 26.8611
12.6808 13.4279 35.5481
13.0506 12.4131 35.5201
11.6235 10.547 30.5222
14.6431 14.0373 38.6651
13.2871 14.2439 42.0372
13.7332 13.6753 50.2769
14.2758 12.9971 34.7655
12.6183 13.216 38.4757
13.1846 9.38239 23.7678
12.7125 7.82209 21.1334
12.3334 10.3973 35.7418
14.5859 12.3453 35.7933
13.7984 11.5503 36.49
12.2745 12.8314 38.9291
10.7476 11.1555 28.9533
11.8905 13.3416 38.4126
12.4921 10.7086 37.0663
12.2837 12.7045 41.709
13.5739 15.2832 41.5062
12.4782 11.61 42.1071
12.9687 10.4425 32.067
13.8585 13.6604 40.4814
14.2889 11.8269 33.5101
12.3319 11.3108 34.3664
12.5656 10.7191 30.5821
10.8122 9.95747 28.2701
12.0919 13.1202 36.151
10.8575 11.3851 41.2551
11.2215 8.69056 32.1678
13.4814 13.8695 39.0116
12.7254 10.2634 30.7948
11.9712 9.60374 30.1945
13.6593 12.136 32.8022
13.8673 11.833 34.7381
13.8666 11.7018 39.6125
13.807 12.0202 32.4111
13.0637 9.14907 32.4411
13.5693 9.58182 31.4371
10.7337 10.8256 30.9203
12.3046 13.693 43.533
12.8384 10.3519 36.9272
15.1456 14.2873 44.0408
13.7315 9.19748 34.9453
14.0538 14.0386 35.9723
11.0595 11.0245 33.0801
12.9685 8.29793 24.7593
11.5765 11.2246 31.0459
13.4445 10.8167 35.305
13.117 9.50444 27.3474
10.7193 9.28815 36.1738
12.1879 12.1946 36.108
10.0581 9.52517 30.5215
12.4213 9.82981 39.5387
13.672 12.21 34.559
14.999 12.5676 39.3982
11.2264 14.3663 42.2941
11.9875 8.63516 29.2145
12.2516 10.0649 30.4613
10.9253 12.3637 41.6849
14.2306 9.81425 29.7675
11.0338 9.87655 36.9806
11.1439 11.4018 41.0485
13.6882 12.9994 38.2225
11.8047 9.5386 31.6961
11.5662 14.1986 46.5271
12.8836 10.6159 35.3674
11.6742 13.9975 36.0571
12.2348 9.88822 36.1365
10.2183 9.63077 38.506
12.1032 11.0355 25.0729
11.2911 9.14477 38.5343
12.0233 13.6495 38.1671
12.9378 12.0041 33.5641
12.0788 10.8524 35.2321
11.8257 11.0213 33.2901
11.3223 8.89571 35.2173
12.6897 10.4747 30.9742
11.3226 9.12411 31.3046
11.6178 8.45928 27.8223
10.8784 11.6004 37.0028
13.7288 10.1305 28.7295
10.9586 8.6627 29.3534
12.4109 10.8942 34.847
11.8286 12.143 38.8188
11.0718 10.1127 41.7349
14.7201 11.6374 39.8838
12.594 10.6473 30.327
12.0128 10.2212 33.7979
12.0594 11.5197 31.7722
11.0652 9.38145 33.2837
12.1612 12.944 46.766
12.591 10.7623 38.9491
11.0887 10.5076 29.5804
12.5027 8.57642 24.8233
9.9241 8.93058 30.5675
11.3827 10.5071 36.5226
11.3868 9.87279 32.0299
11.8703 9.79607 32.6332
12.4218 11.5976 36.2038
10.7634 9.5198 32.1516
10.0479 9.83851 34.5822
11.2645 10.7741 31.5363
11.6321 10.9814 46.3629
13.6507 13.0312 30.6339
9.77856 7.93473 29.7335
11.5943 12.7262 35.2042
10.976 11.4998 47.3927
12.3218 8.22723 29.5945
12.4724 10.6343 36.3694
11.1995 9.58016 33.8297
11.5763 11.6131 35.6372
11.3796 8.58078 27.085
9.231 9.15852 29.9448
9.80277 8.89409 35.1302
10.1861 6.74291 26.2558
11.3399 9.6451 40.1257
11.3229 13.1243 38.8355
11.1951 8.33996 30.9227
11.5769 10.8212 32.7397
11.334 9.06191 31.3105
10.942 13.6503 43.8045
11.278 12.0047 41.3816
9.48039 9.86597 29.9984
10.0921 8.49479 41.3181
12.8021 12.0383 34.1462
9.59475 9.26443 35.9236
9.33212 10.5484 26.5726
9.80981 8.95601 35.0737
11.6972 10.3242 33.0905
11.1293 10.9744 33.6656
9.28976 7.44255 30.3976
10.1103 9.58545 33.3234
8.84934 14.1066 37.1171
12.2506 9.92579 42.9189
12.2401 11.5171 30.7971
10.1847 7.4554 29.9152
11.3805 13.4868 44.623
10.1981 10.3136 30.9082
9.07561 7.26589 30.9229
10.6699 10.5289 35.3407
10.0227 10.033 38.0737
11.6582 13.3717 42.3264
10.8211 9.46143 33.4591
9.70077 8.2533 28.0522
9.40003 7.86677 29.3518
8.14875 6.92758 22.8797
9.48773 7.66563 27.431
9.85483 7.38472 28.4865
9.72639 8.68267 34.1887
9.71621 11.2042 33.1385
8.2151 9.02585 32.5902
10.3589 9.19493 29.6405
10.7351 11.2529 38.7769
10.2759 9.71336 36.4947
10.9836 9.98551 33.0289
8.64715 9.16714 27.6058
9.98266 8.60845 36.9466
8.82634 10.8725 35.4063
9.89109 8.55395 30.1966
10.1502 7.51156 29.8443
10.09 10.7083 32.1897
10.9331 11.7708 29.7562
7.8466 7.95251 30.6713
8.01713 8.37729 36.615
9.11944 8.14437 34.0332
10.5292 10.2385 32.5711
9.86476 9.48483 27.5891
8.9505 9.42734 30.7418
8.90359 10.0512 39.0482
8.47985 8.52034 29.076
9.13339 6.67999 26.3372
10.378 8.45206 35.338
9.91109 10.4231 36.1793
9.50179 9.48878 38.8027
9.56541 10.2464 31.7347
8.94641 9.4908 29.5117
9.33082 10.9945 39.3477
9.5314 9.32739 32.5214
10.1211 8.41938 28.7255
9.31817 8.57811 35.1342
9.58063 10.6902 38.0578
9.56177 9.80957 37.0881
8.23027 10.6872 31.3704
9.04904 7.89585 36.6659
10.3125 10.9053 35.9012
10.4451 6.74186 24.4433
8.28372 7.18813 24.9944
7.58033 10.4095 33.1738
8.29625 9.15095 33.7806
11.0275 7.81575 33.415
9.56787 8.02821 28.2287
8.71632 7.69248 28.9003
8.81079 8.1766 24.6886
7.94123 8.6932 31.7176
9.32435 8.60517 33.0226
8.42357 9.0027 30.4393
8.12991 6.8537 25.5549
8.52582 8.002 31.1961
8.7879 9.09154 30.4343
7.90086 10.8226 38.2882
8.24508 11.1567 42.1538
10.0299 10.2374 30.0821
7.81845 7.07581 35.927
8.42371 10.1945 32.0517
9.39771 9.55066 30.3661
7.99239 7.78696 29.7989
8.82983 9.46778 36.7885
7.58025 7.59203 32.5204
8.65383 9.39011 26.0463
9.0771 7.20427 25.8287
8.23023 9.55555 42.6338
9.70949 11.4861 35.9392
7.78466 8.14104 36.0302
8.96567 9.03395 32.3558
8.32717 7.97064 23.068
7.95416 7.8119 29.36
8.16835 9.6133 34.5377
7.94721 10.5061 37.7368
9.04312 9.36854 35.0987
9.557 9.69528 31.1901
9.52328 8.01316 31.0829
7.63746 8.7997 39.6586
9.26583 7.94079 28.4494
8.65496 8.99034 40.0236
7.73781 10.3315 33.1799
7.79104 12.3874 45.5305
8.09919 8.46954 36.474
8.29802 11.7008 28.2936
7.34275 9.41627 39.8237
8.1443 10.5165 36.2309
7.94749 9.36818 41.0366
9.886 9.71819 31.5312
8.48914 8.23791 35.1103
8.97405 10.593 37.7819
8.88852 8.12532 32.3617
7.92953 10.7006 34.603
7.53065 9.11401 33.3449
7.36162 7.72503 25.7148
7.50816 8.36746 31.8316
7.74212 9.5036 44.2423
9.05942 11.2051 32.2453
7.97295 8.38953 37.335
7.19338 7.79789 27.5999
7.21764 12.5362 43.0748
9.25712 11.0415 40.3457
8.13892 7.99477 28.0097
8.03903 7.47873 28.2014
7.79052 9.70816 38.8434
7.8492 10.2489 38.9301
7.79032 9.23313 34.6112
7.85181 8.58424 29.619
7.15862 8.40966 35.3437
8.59365 10.9241 33.3627
7.18119 10.0721 44.1288
9.35376 8.93868 26.5962
6.37911 5.96618 28.9249
6.8267 8.59755 30.366
6.93439 7.27033 34.307
8.03589 8.25603 36.9301
8.21655 10.1975 36.5754
8.51485 11.475 35.2856
7.01096 8.10184 28.5686
8.31476 7.41277 27.8071
7.48271 8.01299 21.3289
6.64669 6.76671 31.7473
7.2499 8.33037 37.8438
8.25821 8.30847 34.1241
7.77388 9.99453 37.4674
8.45565 12.0466 39.003
7.76421 9.45556 28.5138
7.13237 8.69577 34.1506
8.60681 7.61139 29.1716
7.46592 7.45216 29.5941
7.3659 7.81327 31.5398
7.29746 9.84891 42.4238
8.90585 11.8251 36.2905
7.37318 9.84489 40.2681
8.6235 8.4175 27.9032
7.62846 7.26852 39.8885
7.31448 10.1277 35.1085
8.52673 11.361 32.6858
7.2203 7.78682 26.2448
7.33517 5.82496 26.5323
7.0852 9.00826 32.318
7.02993 8.29425 38.1638
8.32946 9.52391 43.1956
8.03222 11.6758 37.9367
8.32497 5.17634 22.4518
7.5983 8.26902 34.1972
7.24026 7.92015 31.1866
7.86236 8.51853 39.143
8.5213 9.91573 34.2263
7.17228 9.32271 31.4815
7.33477 8.57929 29.0162
7.29645 8.31828 32.0485
7.23805 9.31567 33.9739
7.78535 8.00148 30.8335
8.17122 8.88325 36.7099
8.48241 8.66098 32.0956
6.92114 8.80998 40.1607
7.64896 7.80299 29.0314
7.57834 8.32412 28.8496
8.45943 8.79683 31.9706
7.56726 8.0009 31.0287
7.28641 7.28294 28.9021
7.69232 7.41202 28.1644
7.29222 10.7364 41.7471
8.52722 8.2376 34.4384
7.37908 8.06822 27.8344
5.85185 7.64849 31.6005
7.48496 9.38412 32.699
7.34045 6.72355 31.2269
6.94985 8.87474 23.1241
7.00923 7.42896 28.3496
7.35157 7.75015 34.629
7.8283 7.23256 25.1165
6.40527 8.90251 33.4124
6.59137 7.83181 29.7005
7.01321 7.51225 31.2731
7.28369 7.62499 29.5622
7.1148 7.35644 22.3747
6.07434 7.0024 27.9699
7.2187 7.3693 27.1603
7.73801 8.96708 36.8966
7.82279 8.93377 36.8385
7.96156 8.76538 29.2335
7.60007 10.5736 41.8081
8.27611 6.10394 24.1947
7.85236 7.34656 31.9989
6.47727 8.87144 34.3759
7.0313 8.68954 27.956
7.07642 6.61053 35.5918
7.29909 8.2063 29.5679
7.61533 8.00734 29.3617
6.46241 5.45819 29.5765
7.67436 11.7218 30.7685
7.39987 7.50325 31.6686
6.64771 7.41355 33.8568
7.77881 7.85372 25.8107
7.75314 6.99236 31.4423
7.01943 10.486 34.118
8.00562 7.84773 37.4604
7.35646 8.40032 34.5883
6.45916 10.0448 38.5056
7.75722 8.92981 33.1181
6.40306 7.20063 29.0199
7.78348 10.4005 36.5659
7.77108 6.49501 31.8057
7.51339 10.2795 31.5682
7.61758 7.97149 27.8178
7.504 6.70476 31.0216
7.88074 8.58186 32.162
6.79641 7.40731 31.1319
7.98264 9.27358 36.3523
8.25305 6.80677 29.2047
7.78879 6.32419 23.0877
7.61781 6.11568 29.6677
7.70863 9.10075 37.5764
7.75003 9.62372 28.2211
7.62987 5.73294 28.6818
7.24227 8.27162 27.183
7.69834 6.26078 30.1093
7.49575 7.77384 27.7283
6.92288 6.14754 36.2776
7.31592 9.05723 28.4784
7.59065 9.09707 34.4567
8.23386 8.01337 30.9312
8.54214 6.78199 31.2596
7.7757 7.97565 29.2713
7.67001 7.71894 27.4229
7.20664 5.75191 25.3731
6.4672 7.93104 34.207
7.2296 8.53555 32.3012
7.71802 9.69249 36.8814
8.79609 6.74863 27.5101
7.91901 8.65499 27.4996
7.98106 6.93076 35.0027
7.30858 8.53034 30.115
7.25297 9.05423 39.4037
9.40321 10.4792 31.058
7.43117 6.22086 26.5152
7.34718 8.06475 33.9048
8.19321 7.91595 32.3825
7.54691 7.78257 26.324
8.12809 8.47043 32.5557
7.39855 8.70131 28.3659
7.93695 7.13718 31.2075
6.85142 8.86096 34.8385
7.62919 7.18937 28.2085
7.48427 6.4266 27.1062
7.66775 6.79662 27.9681
7.10826 6.21717 26.3046
8.52719 8.59879 29.8906
7.26847 7.03423 33.7404
8.14839 9.53412 37.2194
8.31471 8.60843 28.0653
7.3139 7.24371 29.1462
8.19046 7.28945 34.9103
8.4828 7.83174 27.5039
7.8082 7.34068 26.6228
8.12654 6.70284 28.7947
7.72634 9.59483 34.291
7.46606 5.89801 27.287
7.05837 7.25311 30.7674
8.11273 6.46203 29.2983
7.44252 7.28281 26.3987
7.4121 7.79647 29.7717
8.94631 6.16725 25.3713
6.36587 6.79968 27.0019
7.95037 7.19274 25.4385
7.60766 8.50533 36.2611
7.58244 9.91985 30.1338
8.12351 5.78805 35.5013
8.23034 8.86124 25.1783
7.53938 7.99102 32.0493
7.81893 7.83458 30.1566
7.88649 7.22968 33.1649
8.24203 9.01847 29.21
7.49278 7.17425 35.5169
9.30587 10.2642 39.5054
8.4753 8.54269 31.1129
8.14965 8.68595 42.2037
8.63362 9.02444 25.5109
8.05062 6.42525 30.6769
7.22151 8.02257 36.326
8.87661 7.67631 24.3316
8.37223 8.12825 33.7793
8.88598 6.2915 29.2838
8.73797 9.79621 32.2805
7.8607 7.58109 27.5319
8.08406 6.56624 27.7326
8.12391 6.24182 20.4091
7.12638 6.5651 38.3517
8.78977 7.84421 32.1434
7.768 8.86813 27.7679
7.44747 8.03225 29.6809
6.62223 8.43742 42.7911
8.20534 7.51708 27.3904
7.34784 6.61002 34.9445
8.21595 9.00058 27.0455
8.83971 8.94741 37.2263
7.94668 7.92307 36.8454
8.58517 10.6482 30.0093
7.84862 6.64037 29.0591
7.97945 10.3813 29.0289
7.87488 5.57585 27.8419
7.42507 8.14048 37.1407
9.31392 7.38497 29.2408
8.07281 6.26719 30.5678
8.24632 7.23325 30.007
7.7277 8.28829 25.7392
7.58043 6.99321 36.6802
9.74714 8.09503 34.4869
8.45427 9.19735 31.3475
7.54647 6.91762 31.3823
8.59787 7.16473 29.2945
7.60613 9.64793 32.8724
8.3287 7.35904 28.3398
8.203 5.54175 22.1056
7.86196 7.32733 26.501
8.7078 7.62098 34.2939
9.76972 7.47408 25.9993
8.72039 8.65718 27.406
7.78038 8.05846 35.5272
8.31567 7.37382 32.6696
7.84668 7.22022 26.4907
8.05713 6.63942 27.6886
7.92305 7.49084 28.9421
7.35663 6.27167 36.2376
8.71976 7.42306 31.1183
8.48619 8.24134 33.8466
9.16925 7.39642 23.1155
7.03048 7.03873 38.406
9.03589 9.99091 35.754
8.4231 9.50597 33.4816
8.5199 7.45211 27.72
8.30414 7.25887 25.8527
7.5657 6.20055 30.8682
8.77958 6.92184 23.8732
7.85501 7.57189 33.7268
8.14983 8.55187 29.7401
8.09058 5.86879 23.3777
7.62684 8.24547 27.9695
7.70876 7.50293 42.5581
8.84843 10.9888 35.8352
7.60046 7.05681 35.6396
9.86839 7.4186 26.3378
7.769 0 0