# pn-170911/CsIIF-72-USN7-1280-1959.psd
# Power spectrum* (dif=0,1,2) (really just |FT|^2)
# NOTE: only the first half! (symmetric)
# weeks: 1280-1959
# 490 clock-days, 37 excluded
# PSD: 1441
5720.44 0.254966 0.0230141
361202 8.42484 0.0338986
1.06985e+06 20.0739 0.0357565
459706 17.3694 0.0358591
289788 20.2554 0.03535
155672 15.6232 0.03641
124039 18.0858 0.0343865
86229.3 16.3426 0.0370769
63853 16.3115 0.0404601
56063.6 17.715 0.0427177
42831.1 17.0497 0.0441318
34074.5 16.4639 0.0426375
31406 17.2923 0.0473261
24904.5 16.307 0.0497635
20658.4 16.7811 0.0492354
18292.7 16.1451 0.0507426
16471.2 15.9632 0.0510833
13753.7 16.6983 0.0536342
13100.3 16.4103 0.060264
12458.7 18.0676 0.060302
10229.4 16.3378 0.0638948
8817.1 15.5884 0.0676942
8663.56 16.5383 0.0788947
7356.38 16.0857 0.0727762
7227.09 17.0514 0.0843241
7040.61 17.7339 0.0824541
6289.48 16.9559 0.0923728
5829.47 16.9393 0.0918124
5170.05 15.6024 0.0935367
5317.67 17.5459 0.10893
4711.13 16.781 0.107006
4299.64 16.5617 0.112151
3912.24 15.6472 0.11507
3769.41 16.3085 0.120765
3602.79 16.2481 0.125241
3480.5 17.1552 0.137089
2964.54 15.5045 0.133683
3123.47 16.4891 0.139509
2879.98 16.6499 0.15259
2925.17 17.3113 0.162055
2630.45 16.3319 0.156999
2486.2 16.459 0.168169
2471.44 17.3379 0.175002
2220.82 16.6698 0.183852
2266.27 16.5712 0.184386
2077.02 15.8752 0.187152
1875.64 14.9244 0.190922
2058.13 17.6278 0.224347
1831.71 16.534 0.221422
1779.2 16.5931 0.222544
1682.27 16.4463 0.230495
1610.16 16.564 0.247246
1580 17.1665 0.250546
1481.59 16.3093 0.249434
1426.62 16.576 0.255933
1402.65 16.7124 0.27199
1453.01 17.1494 0.28862
1328.88 17.4993 0.301691
1226.5 16.3143 0.286755
1250.04 17.5508 0.323671
1126.43 16.2279 0.307102
1151.4 17.6374 0.33549
1094.5 16.1476 0.328879
1110.29 17.2901 0.360094
1102.83 17.7525 0.372299
1064.72 17.2891 0.384486
887.626 15.6169 0.34938
902.007 15.4385 0.356713
938.054 17.1025 0.407933
870.91 17.2272 0.434696
878.4 16.5271 0.413375
920.936 17.5727 0.448562
799.614 16.0047 0.413553
804.408 16.2427 0.436565
732.841 15.6806 0.426216
803.266 17.346 0.497583
781.664 17.4036 0.51629
660.965 15.6139 0.464917
695.132 16.9193 0.515302
678.524 16.0693 0.499952
659.842 16.4164 0.520423
667.806 16.8647 0.547101
626.026 16.8953 0.578505
600.096 16.1477 0.565891
619.875 17.4732 0.609501
565.525 16.194 0.592259
612.667 16.7478 0.606231
583.323 17.3819 0.639165
531.41 16.4247 0.619786
517.657 15.7824 0.609073
541.24 16.8578 0.6641
532.791 16.315 0.666468
483.563 16.0901 0.672866
451.07 15.4366 0.645723
493.971 16.3305 0.690078
475.453 16.4579 0.719991
462.853 17.1051 0.766194
433.532 15.6289 0.705916
444.511 16.8002 0.804851
453.778 17.4491 0.82416
386.394 14.6507 0.728364
428.905 17.1744 0.848688
392.206 16.3535 0.842229
421.102 16.7261 0.856591
378.94 15.7319 0.810691
353.7 15.3851 0.81804
328.759 14.9155 0.802754
346.423 15.7503 0.899807
361.302 16.4098 0.934585
379.711 17.6307 1.00778
398.938 18.5977 1.07225
351.816 17.1179 1.0078
375.314 17.0355 1.03206
326.621 16.4103 1.00955
344.414 17.0529 1.04259
318.701 15.4095 0.967411
318.03 17.4945 1.1396
316.753 16.9328 1.11672
332.276 17.7511 1.20524
288.869 16.1425 1.10351
282.51 15.8954 1.10328
293.662 16.2733 1.1515
290.273 16.4278 1.14786
305.095 17.7627 1.27229
262.874 15.8924 1.15005
266.878 16.6224 1.22218
247.321 15.1785 1.13682
257.83 16.3233 1.26551
268.264 17.1946 1.34439
241.661 15.588 1.2268
266.014 16.9097 1.34237
258.034 17.6197 1.42215
231.57 15.6838 1.29089
239.28 16.4999 1.37994
253.179 17.4381 1.50772
238.28 16.4354 1.4192
215.803 15.5821 1.34039
221.931 17.164 1.50686
215.4 15.3092 1.41405
209.734 16.1805 1.51967
211.755 17.2208 1.6093
199.384 15.3748 1.46072
215.596 17.2207 1.64532
225.214 17.3594 1.68026
210.003 16.6907 1.63642
204.374 16.6371 1.62286
195.115 15.406 1.56397
206.773 16.4643 1.66364
179.803 15.728 1.64734
186.384 15.9334 1.64982
193.426 16.9087 1.77563
186.409 17.1885 1.88167
187.536 16.6604 1.81786
192.108 17.0692 1.89511
188.226 17.2539 1.93556
185.373 17.3345 1.98418
178.881 17.0016 1.97562
162.464 15.6393 1.76751
175.441 17.0939 2.02899
182.346 17.847 2.10862
163.971 16.8633 2.03509
148.033 14.9287 1.84479
165.796 16.9437 2.11853
162.299 16.9968 2.09128
158.591 16.5936 2.10166
153.211 16.2904 2.1055
149.238 15.6243 2.01644
148.651 16.3259 2.163
150.35 16.3336 2.1528
151.639 17.2027 2.31496
145.8 16.2604 2.20983
144.105 15.4449 2.14633
152.569 17.5254 2.4615
137.266 16.1388 2.26919
145.627 17.6891 2.48977
145.675 16.794 2.47904
137.388 15.5184 2.2614
127.203 15.8412 2.35923
139.518 16.4813 2.41925
144.692 17.9224 2.65796
130.291 16.5485 2.53716
134.002 17.4141 2.67913
133.807 16.3472 2.51173
120.211 15.2692 2.42459
123.707 16.0022 2.54952
132.303 17.4837 2.76836
125.919 16.3197 2.65983
121.605 16.5707 2.742
119.33 17.0947 2.86527
114.928 16.351 2.74356
123.631 16.9051 2.84645
119.336 16.5159 2.80409
118.377 16.6547 2.88781
114.084 16.2558 2.85359
115.612 16.9257 2.99654
110.488 16.4813 2.9384
110.425 16.3066 2.98553
107.037 16.6349 2.96318
110.768 16.8734 3.06293
107.782 16.7761 3.14378
97.7145 15.0549 2.80404
98.9887 15.4967 3.02977
118.625 18.6602 3.52502
101.677 16.7674 3.33523
103.662 16.2932 3.16614
100.976 15.6591 3.03661
96.899 16.7579 3.36897
101.126 16.8228 3.39744
95.1739 15.6066 3.14544
91.9794 15.6936 3.2314
96.7405 16.0264 3.27559
93.8501 16.5902 3.48654
94.436 15.6345 3.26239
103.437 17.5829 3.66059
93.9131 16.0322 3.46014
95.0427 16.9933 3.67121
90.2622 16.3788 3.59976
90.4261 15.9931 3.50157
92.2729 16.9969 3.68198
98.2404 18.5616 4.10129
87.951 15.7166 3.55685
88.7755 16.946 3.98005
87.5679 16.8757 3.90934
84.6724 16.0043 3.65293
79.2661 15.8437 3.67718
88.6328 17.7465 4.17153
79.3593 14.8074 3.53431
86.4324 16.9354 4.10943
80.2738 16.3171 3.91396
85.225 16.5147 3.99126
78.3155 16.6982 4.20113
78.0044 16.3102 3.99175
72.8627 14.8864 3.70312
76.7258 15.6901 4.02309
71.2302 15.3103 3.86945
77.6256 16.6953 4.24701
72.1694 15.5161 4.09549
71.131 15.9589 4.17104
77.7185 16.7031 4.3645
76.8716 16.9798 4.50256
78.4283 17.3973 4.70104
78.6324 17.5668 4.6756
74.5927 16.5117 4.53737
67.5608 14.7732 4.07871
74.1817 16.6207 4.58208
72.0662 16.289 4.47613
70.1129 16.1764 4.53522
70.7623 16.5884 4.7121
67.9038 15.8784 4.58838
68.301 15.7286 4.47136
67.494 16.4811 4.68922
70.0262 16.1556 4.68091
65.9777 15.5597 4.61591
70.7247 17.1967 5.01313
62.6371 14.7407 4.3898
61.629 15.9438 4.84208
66.6472 15.8086 4.67492
65.7881 16.2211 5.04609
61.6019 16.0063 4.98686
59.4117 14.9551 4.68109
64.0944 17.0876 5.2948
62.896 15.9961 4.97275
65.6668 16.5979 5.32314
61.7617 16.4013 5.29981
66.1739 16.5507 5.17106
62.1952 16.8304 5.44152
64.0576 17.6956 5.73358
55.959 15.2742 5.0556
59.6721 16.4007 5.48077
58.5723 15.7345 5.21388
60.6318 16.837 5.71605
57.5063 16.6902 5.74817
56.6518 15.7136 5.38919
54.822 15.2971 5.2301
59.9857 15.8795 5.44987
56.8376 16.6777 5.79917
58.1685 15.9899 5.63855
59.2496 17.3962 6.18651
55.861 16.9812 6.0115
55.1032 15.8586 5.69965
53.04 16.0789 5.85909
56.212 16.2765 5.88921
54.8079 16.7844 6.18799
54.6728 15.8854 5.76144
49.9315 16.6059 6.20629
52.5624 16.1445 6.04636
55.1657 16.5287 6.23868
54.2855 16.6412 6.39352
50.0493 15.0389 5.69518
52.7149 16.8363 6.50656
53.8358 15.6092 6.10525
55.4776 18.0169 7.08029
49.2111 15.3086 6.04526
51.0567 16.6394 6.53754
54.8175 17.3321 6.68714
51.7755 16.7829 6.88111
52.3921 17.3464 7.14637
47.6678 15.8354 6.38129
48.1179 15.9721 6.52382
49.5691 17.5238 7.19151
45.7379 15.7733 6.47579
45.509 15.8354 6.47902
45.3268 15.8786 6.8886
47.8637 15.8906 6.55749
42.2853 14.6697 6.27062
47.7468 15.8962 6.61445
45.1122 16.3373 7.14687
44.488 15.2274 6.47681
46.123 16.2159 6.92329
46.9382 16.6899 7.2264
47.6805 16.0702 7.15795
49.6804 17.6541 7.82327
41.8178 15.4022 6.77142
41.6154 15.7002 7.10245
43.9942 16.331 7.5351
46.1014 15.1293 6.753
43.95 16.828 7.86276
42.7266 14.9211 6.81126
43.1003 15.9635 7.46006
44.7101 16.4137 7.50619
45.3773 16.4489 7.6408
43.093 16.4868 7.82021
44.8286 17.2904 8.2573
40.959 16.2292 7.78608
40.5719 15.6597 7.35099
40.6389 15.9453 7.92659
40.8297 16.3237 7.84367
44.7718 16.7341 8.10178
41.5061 16.8902 8.38569
42.3312 16.8618 8.23456
39.9348 16.1265 8.05557
39.8127 16.1709 8.11681
40.4247 16.7428 8.25675
35.4896 15.448 8.01898
39.672 16.0123 8.05865
40.7646 15.9468 8.09082
37.7149 15.656 8.10999
38.6677 16.0377 8.2189
42.0832 17.9493 9.18112
37.4738 16.3196 8.49365
34.9241 15.2058 7.97844
39.4826 16.7512 8.9224
37.1375 15.3895 8.23355
40.2123 16.2843 8.38174
37.0446 16.5518 8.95525
38.1322 16.5164 8.98821
38.9428 16.0103 8.65414
36.8714 15.7258 8.676
36.9335 16.289 8.84973
38.0321 16.6912 9.27329
39.2018 17.7616 10.0375
38.2586 16.4524 9.123
33.5871 15.0429 8.57872
33.253 15.4478 8.68662
36.2927 16.4757 9.68151
37.0642 16.682 9.43331
36.6144 16.8548 9.52635
34.3785 15.4595 9.10817
30.7622 14.2798 8.24738
34.8642 15.0266 8.60726
34.7156 16.5551 9.39001
34.5565 16.9172 10.1402
32.6278 15.7166 9.30611
34.1562 15.7193 9.27768
35.0425 16.1911 9.67152
37.1805 17.2219 10.1536
33.8839 16.1033 9.79341
34.1009 17.0952 10.3603
30.2266 15.0029 9.15534
33.1872 16.4401 10.1331
32.9586 15.7425 9.71079
30.1377 15.2961 9.44862
32.571 16.0702 10.2184
33.8597 16.6399 10.2261
32.574 16.3213 10.4489
31.9337 16.5751 10.5938
34.2157 17.5836 11.0331
34.7624 17.8842 11.203
32.0248 16.4596 10.4635
29.5734 14.9681 9.55313
30.4457 15.5654 10.2459
30.0892 15.4422 10.313
28.468 14.9594 9.81476
30.6075 15.8514 10.849
30.8294 16.23 10.6706
30.1438 15.6569 10.4805
30.7521 16.0575 10.5938
30.9191 15.7024 10.5682
29.2455 16.1515 10.6316
28.1127 15.7661 10.7722
30.5964 16.5673 11.3156
32.2678 16.8201 11.4217
28.562 15.6006 10.897
31.1561 16.678 11.5328
31.189 17.6416 12.2029
27.1656 15.5545 11.1235
26.384 14.0151 10.0555
28.2717 15.8074 10.9085
28.3372 15.2869 10.6671
25.6238 14.5031 10.289
28.3055 16.1715 11.3917
26.5918 16.6449 12.025
31.5143 17.8699 12.7989
25.3989 14.7475 11.1022
28.3067 16.343 11.8277
27.0364 16.261 11.8507
27.1923 15.4541 11.0935
28.5065 16.5681 12.1718
25.239 15.4853 11.7475
27.4913 16.4324 12.3502
26.6145 15.9929 12.0587
26.3806 16.4529 12.3609
26.6499 16.4941 12.5628
27.0154 15.3164 11.5332
29.6279 17.5762 13.2071
28.7268 16.7469 12.5789
26.8229 16.9566 13.4113
26.0703 15.666 11.7935
25.7092 15.662 11.9638
26.554 16.6207 12.8356
25.6023 16.6038 13.0085
24.9682 15.9488 12.9182
25.7643 16.1474 12.6472
22.9832 14.7786 11.8627
26.0022 16.3691 13.1848
28.0886 17.1738 13.3057
25.4635 16.6403 13.3649
26.0683 16.4901 12.7972
24.5452 16.2132 13.1624
25.4416 16.1973 13.5484
24.1332 15.3963 12.6191
23.8587 15.2138 12.8375
25.9451 16.1575 13.2466
25.1252 15.5777 12.5668
22.3411 15.7158 13.0742
23.166 15.6446 13.6421
27.0474 18.6793 15.2494
23.609 15.914 13.7854
25.4672 16.6514 13.9615
26.0408 15.9859 13.2353
24.8599 16.6297 14.1694
23.2044 16.3944 14.4121
21.9534 14.5973 12.5084
24.2781 17.2143 14.8361
23.4287 15.6661 13.6315
22.5828 15.6688 13.7169
24.5645 16.9049 14.4431
23.1538 16.1681 14.5873
22.9425 16.553 14.6162
22.6902 15.2091 13.7311
22.8052 16.2743 14.4707
22.0625 15.9583 14.2185
22.7329 16.2644 14.5864
22.5388 15.5818 14.01
23.016 16.5593 14.9222
22.112 15.3339 13.9915
21.5042 15.1069 13.6791
21.8942 15.6062 14.8501
21.9269 15.2881 13.48
21.3419 16.1394 15.0133
21.6084 15.9042 14.956
21.6534 16.1166 14.8323
19.7367 14.5487 13.6716
23.0969 17.6217 15.9339
22.7906 17.1668 16.3239
22.0171 17.3363 16.8364
22.0104 15.896 14.4673
20.57 15.6197 14.7829
21.9068 16.5769 15.888
20.63 15.9572 15.6341
21.5419 15.5105 14.8414
20.9278 15.7863 14.8061
19.9878 16.2032 15.8669
20.7424 15.5291 14.9741
20.2318 14.9199 14.5572
20.8205 15.8762 16.0077
19.8471 15.8375 15.8425
20.4044 15.8001 15.7153
20.7342 16.561 15.8964
19.7588 15.2889 15.7163
20.8938 16.7533 16.7917
20.9046 16.6671 16.562
17.7761 13.7368 14.0932
19.7509 14.7987 14.9628
18.7668 15.3784 15.842
19.9008 15.6118 15.6906
20.0507 16.2136 16.5403
19.3211 15.5103 15.7506
19.6403 16.3354 16.5192
17.0485 14.5191 16.0665
20.3047 16.5547 16.5538
18.7612 16.2316 16.5481
18.6953 15.3248 16.1287
20.01 15.8644 16.6416
19.7895 16.1857 17.0719
19.5057 15.7655 16.5161
19.4848 17.0422 18.4111
19.5238 15.3099 15.6386
18.407 16.1934 17.9826
18.9243 16.0024 17.0212
19.4895 15.5779 16.6355
18.3988 16.1608 17.5901
18.7066 16.0849 17.3782
19.1089 15.9675 17.6724
18.8521 16.0248 17.1333
17.2272 15.7532 17.749
18.6735 16.4247 17.7106
17.5246 15.2939 17.432
18.716 16.3798 18.0314
18.0342 15.283 16.8332
19.2453 16.5464 18.0573
17.85 15.5223 17.6998
17.7136 15.2501 17.4639
18.7587 17.0393 19.0511
19.2943 17.6156 18.9771
17.5068 16.4389 18.7079
17.174 14.6883 17.0639
18.3615 16.4104 18.0756
17.468 15.7098 18.691
17.7106 15.837 17.8172
16.2556 14.7026 17.307
15.8672 14.2114 17.1379
19.0823 16.5714 18.7382
17.072 15.5647 17.7978
17.976 17.6594 21.2694
17.599 15.9646 17.9645
16.748 15.4728 17.9493
16.2507 14.7834 17.497
16.569 15.4591 18.6013
17.5245 15.6776 18.4655
15.9706 14.7648 18.2411
16.137 16.2574 19.0427
15.9516 15.481 19.0484
16.7342 15.8722 19.2057
15.2836 14.1114 17.5812
14.8404 13.7019 16.7341
17.0644 16.1261 18.7726
16.115 15.1188 18.7526
17.6616 17.1485 20.9433
16.1192 15.4445 19.0838
17.3969 16.753 20.5575
15.8973 15.223 19.5887
17.0336 17.3536 21.4355
15.6088 15.3866 19.6601
16.1392 16.0398 20.0679
16.3729 15.282 18.7547
16.3806 15.7778 19.5075
16.0502 15.3051 19.2543
15.9391 15.3587 19.5657
17.0547 16.2085 20.0728
14.6111 15.223 19.9658
15.2936 15.7122 20.7898
15.4109 15.4122 19.3909
14.6286 15.8131 20.49
15.9195 15.9661 20.2213
15.8177 16.1641 21.1
15.3817 15.846 20.8682
15.7604 16.6877 21.3522
15.4516 15.7985 20.8319
16.6458 16.483 21.7443
15.7181 16.0323 21.0141
15.5246 14.6023 19.2569
16.016 16.1961 21.8045
15.3069 16.0087 21.6806
15.1114 15.2796 20.6883
15.9589 15.8398 20.6946
15.8115 16.2513 21.9034
15.6869 15.437 20.2084
14.8112 15.7849 21.0407
15.0849 16.2001 21.7366
14.9913 17.2608 24.3066
16.0011 16.9153 23.6257
15.4591 16.5271 22.4035
15.5009 16.0551 22.0042
16.1554 16.4851 22.5543
14.818 15.657 20.7791
13.0848 13.5017 19.1996
14.3714 16.3401 23.4281
15.3085 16.8053 23.3135
14.8363 17.2293 23.2403
15.1955 15.315 21.3194
14.0319 15.795 22.5017
14.5451 16.8377 24.1603
14.6378 16.1512 21.9512
13.4649 14.4212 20.2828
14.0353 15.5742 22.7713
14.9141 15.6351 21.2472
12.9384 14.9945 21.8395
14.8679 16.3221 22.6585
14.2186 16.9906 25.1458
13.9553 14.8526 21.905
14.0935 15.8442 22.7615
14.9736 15.4837 21.5178
13.7834 16.6832 23.7527
15.0144 16.8159 24.2152
13.4244 15.8006 23.1185
13.4062 15.8342 24.299
14.0234 15.204 22.5009
14.524 16.4685 23.1862
13.2702 15.591 23.8158
13.1849 14.6149 20.9853
12.5235 14.933 22.9259
12.6644 14.9609 22.0746
13.3116 15.6526 23.8526
13.4699 15.0379 21.8833
13.1491 15.9162 24.1041
13.257 15.4408 23.0978
13.5885 16.4012 25.0169
14.8211 16.3656 24.45
13.5733 16.5022 25.0583
13.2788 15.7326 23.4927
13.3501 15.5993 23.5961
13.7262 16.7523 26.5582
12.9618 15.6237 23.9162
12.8241 16.2916 25.5046
12.8657 14.673 23.9433
14.1219 16.0992 24.7625
13.1052 15.4875 23.906
14.0074 15.894 24.358
13.6034 15.225 24.1866
12.5295 15.3197 23.7453
12.274 13.9868 22.2422
12.2213 14.4062 22.5109
12.394 15.0746 23.0297
12.371 15.7762 25.7829
11.8612 14.6827 23.037
12.9771 15.0255 22.8368
12.715 16.4335 26.5647
12.8878 15.7552 25.6099
12.2899 14.411 23.6426
14.0874 17.2407 26.236
11.2392 14.2265 24.1869
12.1843 15.6298 25.9152
13.3505 16.6318 27.3426
13.5614 16.3651 26.1572
13.6248 16.6723 26.002
12.3411 14.9709 25.4105
12.3924 15.3536 24.8387
11.8839 15.4684 25.9268
12.2263 15.1914 25.2955
11.3298 14.0045 24.0937
12.8238 16.5664 26.8218
12.1888 15.8228 26.8196
12.3881 15.6264 27.2139
12.5559 15.8591 26.5798
12.5546 15.8667 25.7906
11.8792 14.4614 23.8535
12.3759 14.8621 24.7824
12.5193 15.5014 25.4532
12.886 17.7759 29.4065
12.6496 15.6439 26.0427
11.5771 16.1815 28.7357
11.1251 14.8437 25.194
11.7917 15.3563 26.2915
11.7091 16.0813 27.9186
11.7831 15.1141 25.38
11.3872 14.4278 24.088
11.0261 15.4308 26.7778
12.0587 16.1521 27.6966
10.6484 14.695 26.2017
12.2129 15.8066 27.6571
12.5499 16.4788 28.0357
11.2065 14.6514 25.0702
11.0351 16.1843 28.4568
11.4477 14.8836 26.4434
11.4804 15.4984 26.6336
11.1207 15.5807 27.6772
11.256 14.6145 25.4469
10.6364 15.4421 28.2869
11.8341 16.1599 28.983
11.6331 16.4833 29.2457
11.6666 15.5403 27.448
11.2816 16.5278 28.3909
11.3531 15.6942 28.3089
11.0509 15.9994 29.8248
11.0564 14.5149 27.1867
11.5953 16.9173 29.7992
11.0386 15.2692 27.2645
10.9952 15.3585 27.0861
11.6824 15.6038 29.2621
10.459 14.8279 27.601
11.6091 16.7189 30.0432
10.8266 15.0717 28.7677
11.4431 15.2676 27.2812
11.3881 15.4953 28.1947
10.3578 15.0762 28.5736
11.2893 16.5161 30.123
11.175 16.009 29.3701
10.9299 14.5757 27.4845
10.3872 14.9803 27.9314
10.025 15.0369 28.4153
10.8867 15.0226 28.0811
10.9461 15.499 29.8611
11.5743 16.9362 32.3423
10.6015 14.8845 27.4571
10.8891 15.8189 30.4669
11.3766 16.2628 30.7328
11.4805 16.0541 29.3497
10.0125 14.884 29.6987
10.5265 14.7841 28.1298
9.86207 15.2263 29.962
10.42 15.3262 28.7497
10.3661 14.9501 28.4249
10.1756 14.4718 28.4283
10.0725 15.5831 30.4112
9.71389 15.04 28.0635
10.4554 14.7938 28.7998
10.6348 15.3677 30.1703
10.1683 15.5283 30.3507
10.653 16.0023 30.9568
10.4044 15.2244 29.6418
10.4041 15.0496 29.7286
10.6878 17.1308 33.1398
10.3689 15.6348 30.0944
10.2666 16.2769 32.6063
10.4876 15.1668 29.4348
9.79728 15.0131 30.0967
9.97013 15.182 30.0027
10.0987 15.2202 30.1452
9.64355 14.1588 27.8659
10.1836 16.2045 33.1282
10.1059 15.2271 31.2484
9.70833 14.6432 28.333
10.1292 15.1876 29.9398
9.58563 15.5809 32.0417
10.2735 14.0927 29.1337
9.99421 15.9219 32.4443
9.76752 15.5401 31.4441
10.511 17.1044 34.9052
11.1566 17.2682 34.5647
9.9894 15.4329 31.358
10.0797 15.4977 31.6217
9.83553 15.3406 31.9582
9.88165 15.6168 31.7392
9.15707 14.2505 28.8624
9.54066 15.6679 32.599
9.60801 15.7908 33.4441
10.147 15.504 32.1192
8.84229 13.787 29.0165
9.69345 15.0921 31.1731
10.308 16.317 32.6493
9.33467 15.4252 33.1379
9.22145 14.4283 31.5353
10.2099 16.555 33.2105
9.43104 15.7487 35.107
10.1006 15.6425 31.988
9.37032 14.7607 31.3712
9.36344 14.4576 32.0903
10.739 15.8159 32.0345
10.0281 15.7709 33.1287
9.9575 15.6803 33.0127
9.60227 15.8451 33.8608
9.59199 15.7905 33.4582
9.43866 15.4914 33.1574
9.4411 14.4764 31.2171
9.26673 14.9008 32.2869
9.50874 15.604 33.7972
9.43351 15.3156 32.9144
9.16036 14.3159 31.1967
9.20092 15.2813 33.7219
9.25338 14.5502 30.1093
9.03847 15.0933 33.1469
9.27306 15.0485 33.691
10.2863 16.8885 35.3359
8.93071 15.6753 34.8896
9.61463 15.2928 32.7187
8.51346 14.7692 32.761
8.97693 15.5618 34.8371
9.12949 14.7464 31.1647
8.60489 14.7891 33.5151
9.09061 15.5 33.8845
9.42773 15.5697 34.5646
8.95468 15.1499 35.6105
9.6082 14.4111 29.5391
8.40699 15.5818 35.7884
9.42683 16.156 34.2073
8.57241 15.5451 35.5214
8.79344 15.0867 35.1621
8.83118 15.2483 33.675
8.64842 14.9529 33.9468
9.65085 15.8016 35.8311
9.09809 15.7344 36.1534
9.30749 16.2351 36.6108
9.0927 15.4102 35.4707
8.84906 15.1208 34.0511
9.23189 16.3767 38.5745
9.83782 16.1131 35.9633
9.5692 16.7145 36.9971
8.6477 14.8891 35.2552
9.38603 14.7028 33.3751
8.47561 15.0686 34.6863
9.53045 17.0999 38.4686
9.65705 16.0757 38.9129
9.19675 14.9391 34.1065
9.53074 16.0639 37.0727
8.74613 13.97 33.5753
8.60999 16.0995 37.3975
8.82223 15.1876 35.0475
9.03611 16.1079 38.0182
8.54953 13.2203 31.5625
8.9155 15.8021 36.7256
8.57114 14.7557 36.1822
8.93368 15.7134 36.8398
9.15793 15.8419 36.4329
9.28685 16.2921 36.4523
7.7201 13.885 32.8349
8.34265 14.8429 36.952
8.7691 14.9077 33.555
8.36784 14.7044 35.472
8.93468 15.3237 36.2942
8.70066 15.5793 37.5344
8.85227 14.9478 36.7539
8.65371 16.5803 39.7035
8.95724 14.8618 35.6616
8.72278 15.6254 36.2765
7.93085 14.8331 35.9979
8.0381 14.416 35.9552
8.38909 15.7432 38.5624
8.40382 14.1319 33.029
8.17178 15.1994 38.4324
8.58668 14.8046 35.8297
8.52477 14.9444 34.9434
7.69895 14.8096 38.3022
8.70897 14.9706 36.4995
9.18966 15.8727 37.1656
8.793 15.9716 39.8809
7.9051 15.0194 37.7979
8.82934 15.6597 38.4272
8.82798 14.9879 37.3103
8.71414 15.0475 37.3042
8.47595 14.8712 35.1532
8.43365 15.2364 38.4359
8.4309 16.1005 38.9191
8.42762 15.7467 38.6192
8.24883 15.3353 38.9304
8.30288 13.7124 34.3311
7.79332 14.9558 39.648
8.81356 16.1702 40.4638
8.26661 14.9465 38.1945
8.35625 15.7571 38.5729
8.03408 14.9274 38.4275
8.13555 15.2128 37.098
8.06704 14.7045 37.6467
7.71171 15.4894 40.6935
8.3874 15.4873 37.7436
8.15758 15.0067 38.2275
8.21098 15.5678 37.9858
7.77648 15.6624 40.0784
8.31433 16.2219 39.0634
7.36756 14.5024 39.8293
8.40029 14.69 38.6921
8.4769 16.4296 40.9408
8.26019 16.1273 43.583
8.63966 14.9648 37.2391
7.91286 15.3021 38.8734
7.59435 14.4797 38.4199
7.65522 15.5651 39.6895
7.86034 14.9201 39.168
7.88679 15.3264 39.3854
8.38374 16.2436 39.6446
7.2921 14.569 40.9256
8.38653 14.9521 38.453
7.98698 15.8286 41.2129
8.16708 15.8623 41.6193
7.56807 14.3291 39.379
8.01678 16.0515 42.0598
8.29572 15.6828 38.8077
7.83115 16.2297 42.3121
7.55232 14.7836 38.5582
7.45189 14.0042 39.5935
8.01024 15.1099 37.0543
7.407 15.2789 40.4528
7.62624 15.6133 40.6416
8.05277 15.2489 39.4954
7.23617 15.5308 42.8938
7.76901 14.7053 40.1129
7.98832 15.4141 40.9246
8.00205 15.799 43.3689
7.92001 15.4321 41.2672
8.12038 14.828 37.4536
7.2974 14.8684 38.4302
7.11987 14.9373 41.077
7.81023 15.4102 41.565
7.5486 15.5749 42.2808
7.81907 14.8222 40.6811
7.51586 15.0329 41.6813
7.44392 15.1328 40.3819
7.54859 14.534 38.9867
7.23556 14.7474 40.4612
7.88901 15.6381 41.3561
7.25848 14.4828 39.0558
7.18134 13.4471 36.0098
6.98783 13.5876 37.4626
7.33789 14.2377 41.2597
7.4357 15.7457 42.318
7.93352 15.8714 42.0097
7.1625 14.8282 44.0897
8.09388 15.2048 41.2128
7.73465 15.2122 41.0916
7.1804 14.6076 38.2318
7.10195 14.0423 40.7789
7.51583 15.6697 42.8051
7.66508 15.3482 41.7211
6.78532 13.8919 38.8318
7.27302 15.2986 42.0118
7.70329 15.4793 41.4326
7.52585 15.2274 44.5951
7.30184 15.4427 42.8805
7.16416 13.6339 38.5888
6.83806 14.9771 41.7766
6.77763 14.3251 38.9769
7.20192 14.7117 42.4322
7.74922 15.592 43.7975
7.59818 15.6387 43.0999
7.36433 16.0898 44.879
7.06462 15.3975 41.9954
6.76195 14.3616 41.0415
6.78242 14.3968 43.6768
7.74148 15.366 40.7829
6.56872 15.1716 44.5613
7.20761 14.0898 40.3208
6.61064 14.7455 42.6855
7.48435 15.031 42.5816
6.96674 16.1508 45.9549
6.94524 15.3248 42.4405
6.79961 16.0594 47.3729
7.19387 13.4103 40.2894
6.91118 15.4002 44.5959
7.29484 14.7683 42.7412
6.88336 15.6149 42.9268
6.91013 14.847 44.7697
7.45343 15.1529 43.5469
7.38422 15.2141 42.6398
6.59992 14.7353 42.4465
6.95301 14.378 42.9081
7.37046 15.1667 42.6336
6.62952 14.827 41.137
6.75546 14.2144 42.9394
6.81512 14.2233 41.8222
7.21478 15.6558 43.2214
6.55993 14.4198 42.2913
6.84595 14.6275 42.2923
6.90594 15.1197 43.3219
6.71405 14.7026 44.1144
6.60426 13.8074 41.5516
6.80517 14.8592 44.5121
6.91287 15.1876 45.2024
7.15731 15.4566 46.1261
6.89551 13.8188 42.1343
7.06871 15.9244 45.7264
6.99759 14.6703 43.5709
6.95751 15.111 44.513
7.0011 14.9784 43.2808
7.05964 14.7873 45.1056
6.83671 14.4301 45.1569
7.31558 16.1135 44.4886
6.95962 15.2551 47.2095
6.75944 14.4667 43.7735
6.74903 15.994 45.8908
6.58291 13.1081 40.6091
6.76758 15.1951 45.0216
6.5991 13.35 42.5938
6.68048 13.7374 41.9691
7.26052 15.5802 43.0419
6.2367 14.703 43.0422
6.50079 15.2477 47.6406
6.89855 15.2459 45.9646
7.17632 14.4753 45.6721
7.18572 16.3444 47.411
6.50937 14.3337 43.7865
7.05182 15.9348 44.2568
6.46579 14.6054 46.555
6.62504 15.1225 43.8555
6.53587 14.9438 48.0312
6.99791 15.9533 47.8446
6.60677 14.0954 42.2337
6.07178 14.2525 43.4914
6.42727 14.6572 44.1557
6.53079 14.725 45.8415
6.59302 14.861 45.3034
6.93368 16.0419 49.8233
7.05584 15.3945 45.437
6.46824 13.4333 43.2527
5.92642 14.1049 44.8811
6.62518 13.6885 40.5961
6.47703 14.5033 44.6631
6.3395 15.3469 48.4929
6.76415 14.8626 45.1802
6.45463 14.8897 45.7994
6.61993 14.5346 46.5062
6.53503 15.708 49.6724
7.05957 15.3306 46.5768
6.70232 14.7812 46.3859
6.61042 14.8978 47.1852
6.36885 15.3296 48.8727
6.82129 14.7646 43.6168
6.35656 14.4097 46.4167
6.48281 15.0732 48.7616
6.72035 14.3687 45.0465
6.39753 15.1037 50.0739
7.2136 15.342 46.3866
6.3124 14.3172 44.1179
6.03446 13.8582 46.6632
6.72663 14.3736 44.1915
5.9944 14.4029 47.3515
7.1707 15.9702 48.0341
6.51048 14.5848 47.9935
6.73257 16.7845 50.05
6.23276 14.8621 47.1344
6.26294 14.3665 49.4355
6.83158 14.5371 46.6525
6.3986 14.9594 43.6987
6.1986 13.8693 43.5945
6.07815 14.7777 46.7147
5.87149 14.0021 46.3813
6.58651 15.2929 47.3859
5.99181 14.4323 47.3607
6.46701 15.1055 47.4243
6.11 13.7915 45.1844
6.0593 14.8467 47.878
6.67013 15.3789 50.2275
6.72912 15.6725 47.6574
6.37049 14.3542 45.5767
6.13902 15.4415 48.2545
6.29453 14.1823 46.6039
6.25716 14.523 49.1501
6.47252 14.4741 46.6068
6.0949 14.4733 46.7306
6.21169 14.0376 47.5729
6.06355 15.7748 49.7846
6.49444 15.3153 49.8992
6.39405 14.694 49.613
6.17666 14.5234 49.2756
6.61993 15.6859 45.4583
5.57994 14.1532 50.8243
6.22969 14.471 47.8787
6.53777 15.1458 44.0221
5.83475 13.7445 47.7176
5.81319 13.9378 46.7947
6.07812 14.109 46.6584
6.00837 14.5857 50.5523
6.23221 15.5635 50.3925
6.48331 14.7565 49.2471
6.42761 15.6717 49.5968
5.93407 14.4332 48.2208
6.47702 15.5823 50.8922
6.16689 14.5379 48.723
6.32928 15.1485 49.6078
6.22293 15.0535 52.9404
6.321 14.1586 46.334
6.05395 15.2718 48.7383
6.08654 14.9573 49.1809
5.78798 14.2524 47.4973
5.98908 14.757 49.8178
6.15897 13.6801 44.5703
5.54603 14.1255 49.4141
5.7868 14.6411 47.4491
5.79538 14.3525 47.9275
6.20387 15.3391 49.3482
6.12239 14.4213 50.1837
6.47162 15.5741 49.276
6.26347 13.0599 44.5464
5.9976 14.5708 52.7267
6.35554 15.2668 47.4554
5.78014 13.7967 47.2818
6.15825 14.8123 46.4253
5.46655 13.705 48.6681
6.13772 14.2676 49.1078
6.00322 14.7431 49.7329
5.60894 13.8243 45.8094
5.56726 14.4172 48.5583
5.95941 14.5191 53.108
6.32088 14.8192 48.4607
5.84825 15.2877 52.4401
6.48343 15.3917 51.5985
5.88906 14.0297 45.3821
5.38108 14.0918 50.1725
6.26003 15.2247 48.2753
5.61452 14.3916 51.0485
6.11649 14.7319 49.5782
6.06253 14.9483 51.1478
5.83012 14.4936 51.172
6.14623 15.1992 53.3125
6.15533 15.4834 49.7715
5.66061 13.8144 49.3089
5.94825 14.2472 45.8979
5.33092 13.7768 49.5271
5.96959 14.7346 49.2858
5.64221 13.7064 45.8534
5.42006 13.5664 49.8322
6.08577 14.2041 45.6696
5.1684 14.1546 49.9535
6.18131 15.4309 50.8425
5.58694 13.6538 48.1927
5.55801 13.6492 48.3299
5.71629 14.0766 45.2463
5.44999 13.8511 46.8345
5.14624 14.3099 49.5904
5.62268 13.6137 49.0559
5.6663 14.0311 47.9284
5.40629 13.7691 49.0856
5.67336 14.9895 54.3732
6.02707 15.6984 50.9015
5.34802 14.1135 53.1947
6.15387 14.7447 50.1994
5.49931 14.704 50.0917
5.76416 13.9928 49.528
5.54186 14.2554 50.1761
5.86223 13.6206 49.3437
5.95655 14.2032 50.2889
5.38333 14.1438 50.1942
5.82607 14.5143 49.7788
5.32295 14.3405 51.3038
6.05642 14.4526 49.1928
5.47508 14.8809 49.438
5.87239 15.1042 51.6091
5.78557 14.6027 50.0095
5.39702 12.8169 49.4387
5.68497 14.3139 49.4536
5.36638 14.1077 52.8215
5.5986 14.1531 49.0582
5.80924 16.299 54.7502
5.33986 13.7188 49.9187
6.0304 14.3556 52.0368
5.89053 14.3603 49.4563
5.67742 14.9516 50.7364
5.4588 14.1046 54.536
5.84973 15.0496 53.639
6.01708 15.0748 48.585
5.29455 13.4014 50.7371
5.33841 14.623 52.2702
5.69545 13.5142 47.3371
5.45941 14.4822 53.4623
5.74092 14.5046 50.9437
5.64844 15.0458 56.313
5.62501 15.227 52.1636
5.54179 13.9292 49.2342
5.38085 15.0516 52.6559
5.60868 13.9979 52.4283
5.85599 16.3899 56.5136
6.04752 14.6294 47.3981
4.89926 13.0884 51.6832
5.47987 14.0803 48.4184
5.23715 14.4492 55.8027
5.7973 14.0809 52.1097
5.97366 14.191 47.3952
5.35953 15.3106 52.8483
5.27067 13.952 53.9974
5.59387 14.2836 52.723
5.48934 14.0235 51.1783
5.83733 14.7988 55.1449
5.6275 14.9982 53.0019
5.79952 14.8629 51.7353
5.81706 14.4281 54.0585
6.11114 16.0347 55.0388
5.72404 15.9829 54.2488
5.75624 14.7899 58.2911
5.68967 15.0934 54.7328
5.67678 15.8261 57.1261
5.5592 14.9757 50.3754
5.43585 14.413 52.3349
5.29367 14.0569 50.5482
5.40201 13.5576 53.751
5.49087 14.9618 54.6931
5.67122 15.563 53.9814
5.16867 13.5335 52.3459
5.5166 14.5037 54.4943
5.58031 13.9872 51.7349
5.39027 15.2825 52.9118
5.02542 13.5721 49.1977
5.82002 14.1667 48.6558
5.1854 12.9072 50.704
5.84224 14.7945 51.3313
5.50055 14.8831 56.0221
5.84105 16.1367 54.2269
5.1149 14.7111 55.6311
5.35169 13.7166 53.9376
5.22746 14.7504 54.0512
5.83135 14.311 55.054
5.84076 15.2147 53.1866
5.30778 14.8381 54.767
5.61828 13.9513 52.7758
5.44856 15.3498 54.3959
5.42512 13.9143 54.11
5.4102 14.5624 57.7481
5.67104 15.8083 55.6434
5.6206 15.1238 52.7346
5.36715 13.1395 49.6031
5.10548 14.6662 54.038
5.34948 14.4247 55.0591
5.63575 13.783 48.8383
5.09606 13.6889 51.3476
5.26565 14.7439 58.3394
5.75585 14.6978 55.0347
5.35208 15.1306 56.2553
5.52032 15.0342 52.1558
5.28192 14.5212 54.9847
5.28844 14.0274 54.5334
5.7019 14.9033 53.8628
5.52312 13.3859 53.825
5.48771 15.2049 55.1511
5.03738 14.2037 52.8276
5.32901 14.9054 56.3443
5.4996 14.7973 58.2017
5.84659 15.7252 55.5458
5.2569 15.9555 58.2305
5.4808 15.1918 58.7119
5.89379 14.8727 57.3832
5.75953 14.4145 55.7733
5.8454 15.5791 53.9703
4.90908 14.1237 51.4647
5.20594 14.7152 56.3669
5.6271 15.2269 56.6037
5.73326 13.8117 50.2083
5.02379 13.9984 55.7809
5.69149 14.7327 51.8924
5.16375 14.2398 59.1525
5.45764 14.6505 55.4362
5.50402 14.7463 51.6958
5.10393 13.7145 55.4944
5.81657 14.9739 51.6852
5.01814 13.5412 54.6885
5.65662 14.8939 51.8289
5.05348 14.0584 53.3397
5.42689 14.3858 54.3131
5.54242 14.1219 53.9009
5.18753 14.8893 56.0376
5.1913 13.8884 53.5296
5.12001 14.4285 57.0496
5.57358 15.409 55.4795
5.30606 14.4947 51.6356
4.89987 14.0394 54.227
4.97622 14.356 54.2957
5.01729 13.6264 52.5912
5.17998 13.7188 51.9625
4.84899 12.9774 52.3051
5.20514 14.6099 55.0766
5.18058 14.5547 55.2766
5.01853 14.5093 53.0156
4.87049 13.5331 50.5845
5.20143 13.4782 53.3828
5.1942 14.3764 55.8454
5.49118 14.8504 55.1158
5.46874 14.9159 52.9198
5.05241 14.1374 55.8503
5.36853 14.8782 60.0297
5.40582 13.8354 53.3821
5.44811 13.7636 50.5113
5.07863 13.6082 52.1787
4.89802 13.6977 51.013
4.84093 14.1962 54.9822
5.22537 13.9486 54.4471
5.20409 14.9725 51.6127
4.74019 13.8312 54.52
5.17313 14.2496 54.9642
5.31267 13.7363 55.7914
5.29913 13.1646 50.8745
4.89114 13.3524 54.6908
4.98005 15.0562 54.2778
4.9649 14.0564 58.7397
5.47091 15.1078 55.8889
5.09271 13.4897 50.3156
4.80877 13.4334 53.1238
5.09859 15.4459 57.4675
5.34022 14.9507 58.2119
5.23683 13.5223 53.1351
5.17098 15.2213 59.4997
5.46141 15.2984 53.8195
5.06871 14.1435 56.1249
5.2664 14.4612 61.7609
5.7221 15.9519 51.856
4.71586 13.5714 59.5189
5.34795 14.8809 55.2508
5.17782 15.2053 55.675
5.19867 12.6387 54.3454
5.13457 15.1619 57.4369
5.27618 14.8321 54.3329
5.17183 14.4914 59.8508
5.40356 15.2474 54.1297
4.6303 14.0611 54.6978
5.06057 14.508 55.6639
5.06498 12.7032 52.0814
5.01901 14.0172 55.2467
5.12812 14.2909 54.8887
5.0569 14.6162 54.2963
4.95546 14.1655 57.7113
5.27991 15.0327 61.9147
5.57858 15.1747 57.6156
4.97208 14.7853 56.2043
5.43067 14.6547 55.1704
5.0168 14.3136 56.3769
5.1636 14.6462 56.0325
5.05962 14.3894 58.402
5.214 14.372 57.7484
5.04531 14.1792 55.4023
4.64221 14.4924 55.4101
5.24752 14.1601 56.1904
5.01344 15.0411 56.3879
4.97181 15.0154 56.4081
4.97062 14.0729 54.9051
5.05347 14.5284 54.3196
5.09035 14.4266 59.1944
5.00442 14.7093 56.3384
4.95792 14.3191 57.1232
5.08564 14.2486 54.7603
5.07085 14.877 59.4341
5.21852 14.6372 55.9352
5.11857 13.2113 54.4298
4.94662 14.3524 57.9031
5.35646 14.4901 52.4824
4.8256 14.686 59.8142
5.25519 14.4106 55.1245
5.1646 13.9886 52.2553
4.57289 13.6404 59.0563
5.09387 14.0153 55.9278
5.40689 14.5289 55.397
5.07177 15.0591 59.2171
5.37068 13.7385 56.4944
5.34434 14.6069 51.6534
4.47135 13.94 54.0197
4.8826 13.6999 55.9542
4.92297 14.0513 53.0722
4.79847 14.8599 56.0125
4.92285 13.5284 55.8976
4.97338 14.3648 52.4914
4.60531 13.2253 53.0835
4.79908 14.2915 57.9756
5.02371 13.3131 53.2441
4.86109 13.8002 54.5746
5.01659 13.1823 52.4777
4.83002 15.4806 55.3172
4.75716 13.3568 57.653
4.94244 14.0713 53.4296
4.94941 13.9192 58.5595
5.22094 15.0345 57.2907
5.0637 14.4773 56.4477
5.0909 14.1356 53.8872
5.03589 13.3615 53.3787
4.59822 14.2975 57.8693
5.17598 13.9388 55.7779
4.81352 13.1832 52.3734
4.50731 12.9793 49.9761
4.70457 14.1979 56.82
4.96276 13.7848 53.603
4.81544 13.5619 54.6381
4.66717 13.6104 59.0937
5.27198 15.3141 59.1733
5.24118 13.7892 53.9378
5.0364 14.5011 53.1418
4.42602 13.0754 52.7982
4.65837 13.5044 56.9392
4.95743 14.6867 54.0899
4.76422 12.618 54.8557
4.72914 13.8374 49.9659
4.5936 12.7722 55.1533
4.9166 14.5173 57.8387
5.40164 14.732 56.4881
4.82882 13.9769 55.1082
4.95261 13.2945 50.1235
4.24282 13.5418 54.75
4.96224 13.8895 55.1041
4.82048 14.3398 60.3906
5.07543 15.2022 54.8592
4.9997 14.1121 60.9054
5.12196 14.5205 54.2074
4.60582 13.4528 56.6418
5.10728 14.1638 61.0373
5.42237 15.3584 54.2838
4.71271 14.1776 55.5087
4.60503 13.6597 55.2216
5.11804 14.8056 60.1949
4.85361 14.5497 56.5427
4.94484 14.0393 53.442
4.90684 14.163 59.6123
5.24863 13.8313 56.5899
5.22732 15.634 58.3761
5.01477 13.2543 53.2274
4.77764 13.9391 54.8419
4.70103 13.4901 55.2671
5.11149 14.6651 54.8159
4.91423 13.1972 57.9143
4.85381 14.5533 52.7308
4.63733 14.1733 52.1874
4.51523 12.7376 57.3578
4.97358 14.4882 59.325
5.35984 14.6823 55.1779
5.04248 14.6467 56.773
4.88134 13.5268 56.5749
5.03202 13.7486 55.7122
4.83175 14.478 57.6528
5.10253 13.921 56.7527
4.80416 14.3075 56.9306
5.25812 13.2944 50.6142
4.38694 13.491 53.0559
4.90945 13.5064 56.1687
4.8448 13.9817 55.5779
4.81523 16.1164 62.6039
5.25977 13.8431 59.5012
4.93062 14.9607 52.7498
4.76414 14.4251 63.9885
5.37972 14.3625 53.1666
5.09578 13.8304 55.7722
5.0266 14.4029 58.366
4.88753 14.1249 58.2539
4.89208 14.7141 59.8243
5.24582 14.4591 57.1305
4.87654 14.8785 60.0485
5.13918 14.63 57.5287
4.89294 14.6548 58.1871
5.00951 14.3678 55.2452
4.78598 14.0982 55.3877
4.71475 14.9902 59.6553
5.3299 15.0308 54.9425
4.82729 14.8739 59.6601
4.86234 13.8604 59.5385
5.13606 13.9693 59.8483
5.30046 15.6645 58.4827
4.98185 14.0377 58.375
5.13052 15.3307 57.2389
4.82898 14.4826 59.3524
5.16034 13.9638 55.7094
5.15101 13.4662 56.5635
4.69494 14.6116 57.1891
4.75696 14.4519 59.1271
5.17453 14.4716 56.3177
5.09629 15.0751 61.8829
5.46643 14.3823 54.8648
4.69282 13.5958 55.7133
4.99353 13.7394 56.3338
4.75606 15.1465 55.2541
4.68647 14.1004 57.5475
4.5119 13.9005 56.6061
4.67337 14.0365 55.9574
4.8783 14.2626 61.4529
5.14817 13.9446 55.1661
4.59087 14.2436 59.4818
5.21261 16.132 62.9543
4.99421 15.3906 57.7236
5.19863 14.6842 54.861
4.81262 14.5621 64.2411
5.56914 0 0