# pn-170911/CsIIF-65-CsIIA-1280-1959.psd
# Power spectrum* (dif=0,1,2) (really just |FT|^2)
# NOTE: only the first half! (symmetric)
# weeks: 1280-1959
# 735 clock-days, 403 excluded
# PSD: 1441
31818.4 0.97826 0.0768233
2.11839e+06 41.1932 0.172103
9.06e+06 179.048 0.138218
2.35213e+06 91.387 0.129397
2.25532e+06 152.363 0.158666
807277 82.2079 0.140016
593336 87.7792 0.165985
434792 90.1603 0.165518
333653 83.4399 0.159439
284049 92.0381 0.176079
201169 77.4147 0.166171
179908 83.8012 0.176552
149915 87.4169 0.224144
119193 81.8524 0.205916
115695 91.5362 0.237686
92006.6 83.3789 0.230983
83687.6 87.4878 0.274183
71422.4 80.8823 0.279921
65035.1 81.8256 0.2697
63654.5 89.4384 0.307548
49911.2 82.4923 0.315363
48626.2 80.3351 0.303974
44698.4 81.9558 0.334978
40597.4 79.5298 0.364206
37681.3 82.6028 0.361082
33968.2 82.6203 0.410337
31844.1 83.678 0.406632
29431.6 80.14 0.394463
29054.3 85.8426 0.483719
26581 86.247 0.477189
23207.5 79.6112 0.509869
22041.6 79.0486 0.524453
20873.8 84.0008 0.557571
20323.2 85.8677 0.591396
19549.1 84.4882 0.598664
17794.2 83.1039 0.597604
16601.4 80.6005 0.654226
15313.5 80.3446 0.651046
14943.4 81.8414 0.730984
14600.1 84.4233 0.755297
13526 83.0456 0.762432
12816.7 80.9032 0.791911
13146 86.1813 0.889852
11331.6 81.5094 0.824728
10918.2 78.7955 0.824388
11212.6 85.1389 0.960842
10631.4 84.9094 1.01242
10174.9 86.1598 1.00986
9497.8 81.6176 1.01352
9076.46 81.3327 1.10285
8546.78 77.9574 1.10978
8348.08 79.9093 1.1152
7857.66 79.679 1.14653
8177 82.7172 1.22891
7450.96 84.226 1.31413
7314.27 83.5288 1.41087
6880.15 81.5214 1.37899
7054.8 82.6197 1.41723
6738.36 85.009 1.48351
6211.68 80.9325 1.50404
6263.22 82.7071 1.52089
6136.06 84.27 1.64036
6081.59 82.5215 1.64622
6011.95 82.2017 1.67371
5623.91 84.6315 1.7886
5405.65 81.5375 1.77956
5341.97 86.1436 1.92322
5175 82.1629 1.85315
5136.83 84.4913 1.98579
4566.19 78.8931 1.88173
4791.56 83.2287 2.10323
4562.56 85.9033 2.19412
4471.89 75.4825 1.9917
4122.7 81.2339 2.21061
4342.64 83.5078 2.30312
3776.39 77.2542 2.14233
4020.72 81.7548 2.31857
3701.17 83.9653 2.45076
3826.09 81.6866 2.49516
3492.83 79.3931 2.46212
3521.8 79.9519 2.50787
3315.47 82.3306 2.75139
3281.14 79.8588 2.67566
3176.5 84.0875 2.88427
3086.66 78.6849 2.78727
3038.42 77.8969 2.79652
3175.44 86.9226 3.19584
3117.31 84.532 3.14043
2729.88 79.2594 3.03671
3057.08 86.6062 3.38038
2731.45 82.4398 3.2752
2781.7 85.0545 3.44221
2719.55 83.6666 3.50648
2553.56 77.6707 3.29902
2427.96 81.4631 3.5642
2400.28 79.1348 3.55684
2255.43 77.8142 3.44657
2407.99 83.562 3.82334
2250.92 78.9017 3.70279
2095.5 77.0042 3.65786
2087.66 82.3771 4.02228
2041.84 79.5036 3.91754
2102.06 84.3095 4.28093
2084.7 81.8592 4.22211
2100.86 81.1974 4.19796
1965.23 80.863 4.33991
2068.7 86.6545 4.676
1958.72 81.5474 4.50258
1766.67 78.3495 4.41883
1790.84 79.7574 4.62516
1748.51 80.4393 4.69592
1833.39 84.0338 4.99449
1654.01 75.3333 4.58581
1847.87 84.4653 5.2042
1590.9 79.4013 4.90147
1620.58 77.5625 4.9219
1525.32 76.6751 4.92084
1511.81 75.0715 4.94615
1525.12 81.13 5.42035
1463.87 78.8319 5.3569
1477.41 80.1757 5.47994
1505.63 80.3381 5.63037
1407.7 78.7378 5.61611
1477.1 83.9463 5.9771
1330.63 75.5866 5.60796
1391.77 80.5459 6.08796
1361.02 76.7524 5.79112
1220.14 72.5956 5.6257
1377.03 84.8456 6.64055
1263.91 77.258 6.06951
1194.68 73.4637 5.95945
1242.87 79.5482 6.50942
1225.92 80.9694 6.66859
1246.3 75.9724 6.44335
1214.9 79.4013 6.75519
1163.31 76.308 6.68109
1119.42 73.8561 6.59042
1013.5 70.3472 6.23817
1116.94 79.6053 7.1625
1092.37 75.6735 6.89174
1036.82 76.3976 7.04396
1110.85 82.5541 7.76656
1115.12 82.5404 7.81217
1016.3 78.9148 7.59988
1045.03 79.5682 7.78316
965.405 76.2162 7.68712
947.19 71.9405 7.34599
1022.59 82.1251 8.38204
1006.11 80.7573 8.26291
907.586 75.1129 7.92568
951.019 75.4528 7.96467
892.069 76.399 8.22088
928.54 77.4575 8.4813
909.317 77.9609 8.48254
918.209 73.8423 8.31712
837.57 76.0332 8.62307
813.47 73.7738 8.4193
866.712 75.106 8.7506
877.906 73.427 8.65146
841.735 77.0933 9.31569
793.341 76.5959 9.31205
830.231 78.5543 9.49242
846.901 78.9216 9.71116
742.305 75.2847 9.52572
768.331 71.9862 9.17051
783.64 75.4775 9.69458
740.224 74.5386 9.80705
727.432 74.1836 9.70442
725.003 77.0456 10.1892
687.757 72.8822 9.9893
746.951 76.3626 10.3888
748.799 76.4392 10.3397
706.175 75.0459 10.4821
693.863 77.0187 10.8368
680.595 70.0634 9.91312
704.79 73.626 10.5546
662.895 71.8735 10.4115
684.745 78.4115 11.5865
645.029 71.363 10.5873
613.467 69.2382 10.3429
621.15 71.8935 10.9845
648.378 74.5458 11.5758
638.781 71.362 11.1321
620.213 75.0511 11.7751
624.334 75.0265 11.8557
622.905 78.1036 12.4424
614.876 73.6396 12.0769
639.107 79.5933 12.8448
596.98 73.544 12.2383
601.314 74.2625 12.4693
574.859 72.2576 12.1599
558.215 71.1954 12.1546
565.633 76.5937 12.9574
527.572 66.1748 11.5862
570.607 74.6299 12.9705
613.494 80.168 14.1911
534.923 72.9388 12.8767
540.083 72.3408 13.1437
529.458 69.8351 12.8176
551.186 71.1685 13.2183
531.213 71.6785 13.448
537.062 71.8496 13.5197
504.347 71.7342 13.5463
544.678 79.4768 15.3738
517.633 71.8344 13.8204
484.868 69.9704 13.7841
542.611 76.6346 15.0191
482.13 73.51 14.8507
511.062 74.0555 15.1028
468.305 70.5003 14.0841
523.44 72.4016 15.0342
451.955 70.3541 14.617
525.42 71.0339 14.9234
451.725 69.3332 14.7037
502.142 70.0388 14.8676
458.871 69.0669 14.9025
481.374 71.0215 15.4867
428.01 69.1999 15.2831
473.067 74.4734 16.5448
417.949 67.3316 15.0637
461.259 71.368 15.7794
461.637 72.1877 16.3776
445.545 75.8747 17.4058
470.406 72.774 16.7438
411.204 71.6291 16.658
439.201 69.1242 16.2668
426.56 70.8729 16.7436
418.922 68.794 16.632
406.169 69.0289 16.6324
440.005 71.7254 17.27
407.427 67.2445 16.8509
433.219 70.1448 17.2409
418.059 74.7359 18.508
383.295 72.9085 18.4424
389.985 69.982 18.1204
397.805 67.6431 17.2354
379.102 64.403 16.7562
364.675 65.148 17.1166
393.889 71.2761 18.5808
370.569 70.4457 18.7944
363.865 70.0236 19.088
367.425 67.9594 17.9679
361.296 68.1628 18.5924
395.579 73.8597 20.3667
352.258 67.7817 18.6534
337.262 66.6479 18.5878
337.98 67.1379 18.8757
327.212 69.8046 19.7282
325.382 65.0921 18.5896
339.477 65.4433 18.6565
307.295 61.1401 17.6235
320.248 65.723 19.1855
301.842 64.8552 19.1715
307.776 66.1338 19.7709
332.452 70.2546 20.7497
320.974 70.9953 21.244
312.77 68.4907 21.1622
333.54 70.9821 21.6783
315.684 68.5925 21.371
303.803 70.4008 21.6082
295.437 66.264 20.6921
297.92 66.7123 20.5338
321.119 71.0118 22.8406
309.281 67.681 21.8763
294.987 67.3961 21.668
307.098 69.2491 22.4038
309.423 69.0452 22.4008
290.938 68.0481 22.2471
303.955 70.5398 23.5661
294.425 62.6994 21.1155
257.026 64.3879 21.6733
291.213 63.65 21.7683
270.225 65.4422 22.2887
289.474 67.8856 23.5512
277.79 67.1975 23.6014
270.12 64.2772 22.8228
263.955 64.3833 22.6764
285.903 67.1094 23.6209
285.128 67.2782 24.0664
254.721 68.054 24.6055
263.627 66.498 23.7238
256.069 64.2664 23.5742
246.108 62.9748 23.1742
245.23 66.5261 24.6538
247.311 61.6237 22.7092
258.286 66.4328 25.0106
291.904 66.6609 25.0466
254.802 64.2572 24.9627
259.505 71.5032 26.7634
231.587 65.1297 24.8302
284.071 66.0323 25.8905
252.203 65.7217 25.1817
248.545 65.258 25.4452
229.68 63.1506 25.5123
231.969 64.3958 25.7242
244.907 65.2603 26.0767
247.119 65.2088 26.3184
228.593 67.1198 27.438
237.088 65.5258 26.4184
211.694 64.6516 26.8836
223.918 64.788 26.6189
239.151 68.4368 27.6986
230.229 61.4663 26.6248
222.432 66.9841 27.9084
218.225 63.1672 27.1537
221.096 66.5028 28.4624
223.088 64.4392 27.7455
218.627 66.2342 28.5048
202.56 59.5593 25.7994
208.495 63.1968 28.239
221.383 65.2306 28.3892
219.819 61.7355 27.2145
204.844 58.5032 25.5856
217.435 65.2427 29.0417
203.747 59.7725 26.9341
203.16 64.8648 29.3984
210.972 62.9481 28.9201
192.055 60.2877 27.5133
212.722 68.5278 31.5977
193.906 61.2958 28.6068
205.13 63.4148 30.156
198.777 64.6873 30.492
195.621 63.6727 30.7224
206.809 63.1381 29.5764
209.776 67.0965 31.7053
188.148 64.251 31.0272
181.355 61.6546 29.8196
184.993 59.0652 28.3398
173.439 57.3435 28.658
178.663 59.6279 29.6052
179.192 60.5272 30.1173
188.558 62.1451 31.4524
194.869 64.5487 31.7303
191.438 59.7905 30.1745
186.525 64.6327 32.9563
196.878 63.471 32.0321
178.947 60.1805 31.2046
186.265 61.8588 31.2047
175.316 56.3361 29.5918
176.221 61.5367 32.4033
184.551 58.8049 30.693
180.833 63.4228 34.3946
173.809 58.5183 30.92
170.27 58.3402 31.0201
195.484 61.8037 33.5521
165.948 61.5049 33.3762
182.698 62.4147 34.1424
172.448 62.6887 33.8359
181.179 57.2052 31.6252
170.811 60.0533 33.1738
165.593 57.7316 31.8212
176.297 58.8832 32.5012
184.094 59.7327 33.4825
173.623 60.32 33.9638
176.554 60.9413 34.6542
174.605 59.3498 33.2174
172.836 62.7975 35.7743
172.827 61.6425 35.7092
165.987 61.5412 35.8408
161.004 59.2168 34.3819
162.172 59.1554 34.527
165.588 60.7463 35.9117
160.936 57.2979 34.2819
167.363 58.2049 34.8476
161.482 58.8019 34.6469
157.804 62.2005 38.0577
167.596 62.117 37.6216
165.671 60.8916 37.0292
164.247 55.9898 34.0261
151.617 59.0035 36.1223
172.264 61.8426 37.8549
143.478 57.1058 36.3561
160.353 59.3994 36.5371
157.895 60.5313 37.5745
154.952 61.4276 38.6356
147.829 59.1161 38.552
159.353 57.7194 36.1812
139.646 58.4299 37.1964
141.715 57.9829 37.3268
143.93 57.5335 37.3684
161.723 62.7098 39.856
141.945 54.4269 35.5101
134.33 54.0314 35.8702
143.534 58.9731 38.5609
144.482 58.9437 39.3685
140.406 57.1916 38.0951
151.225 60.2045 39.2975
135.641 57.4465 39.0115
137.64 56.7381 38.1394
128.182 53.3337 36.8978
138.988 58.1359 39.5845
139.739 58.2112 39.5982
138.918 56.1791 38.9553
147.715 59.4639 41.0548
126.675 57.5849 40.2167
141.452 58.3457 40.4022
134.494 53.8932 37.8303
123.373 54.5123 37.374
130.649 57.9916 40.7896
137.159 57.5757 41.3593
133.949 53.5843 38.1514
130.939 59.6643 42.6939
133.052 57.2302 42.4851
133.232 58.6178 42.1631
121.146 54.8586 39.7627
132.33 54.5502 39.9732
117.115 51.2456 38.6555
125.119 54.3849 40.3194
130.174 58.9819 42.9163
123.33 55.5978 41.064
116.511 52.1451 39.1474
113.314 52.3796 39.6409
120.249 54.795 41.076
131.003 61.0548 46.0034
122.517 50.6256 39.0761
119.17 55.9718 42.115
111.232 52.591 40.4309
109.27 53.7462 41.9002
110.769 52.2698 40.8373
114.695 56.8157 43.6795
114.98 56.568 44.3856
119.05 57.8203 43.8051
115.163 53.7841 43.2636
116.547 53.2464 42.3334
104.636 51.7581 41.1802
116.786 57.083 46.0748
120.11 58.3447 46.8667
105.552 50.6575 40.3984
128.938 55.9112 44.7254
115.435 55.8779 46.0765
113.193 54.2664 45.2
110.481 53.8336 43.5468
108.887 51.6026 42.6598
101.089 53.3004 43.7828
112.225 58.8342 50.345
116.194 56.3416 45.791
104.713 54.399 44.9517
109.784 54.2212 46.1982
101.151 52.5338 43.6667
102.064 53.7025 46.2075
106.692 57.7433 48.5619
112.143 56.5728 48.626
106.228 52.7359 46.604
105.954 53.7662 46.3217
100.009 54.1624 46.0983
100.401 52.8018 47.1071
110.299 54.4521 47.3204
100.038 53.0963 46.8711
101.598 54.9971 47.3371
99.1321 54.0095 47.5774
97.3605 53.9746 48.5297
101.208 52.6798 46.5648
99.6447 50.6103 46.0091
93.6007 55.7836 50.6786
104.216 54.003 47.2543
102.151 57.6571 51.7037
100.688 52.5907 49.0514
91.0384 52.2145 48.6091
96.745 52.3004 47.1897
95.1155 53.5052 49.0619
95.2264 52.5751 48.2045
83.8116 51.5981 48.389
98.4661 56.7016 53.7358
94.8243 53.6521 49.8114
86.0849 52.1061 49.861
98.6671 56.1926 52.0158
92.6995 52.7296 50.4935
84.3053 49.1623 48.0039
92.4102 53.1892 49.7258
83.8794 47.6291 46.2218
94.1411 53.7592 50.0055
90.5508 50.1819 48.3893
88.5946 52.4442 52.1769
91.9964 50.3818 48.6446
91.1091 49.1666 48.5948
98.2491 50.6757 49.0875
91.5953 48.3311 48.3079
93.468 49.4441 47.3132
80.7706 49.2308 49.2471
87.1244 49.9552 50.6016
91.3223 52.0146 51.3669
85.3601 48.8775 48.8363
88.3373 49.9578 50.5025
82.8875 52.3527 53.4794
94.4367 53.5065 53.1197
83.7941 49.4838 49.4115
85.3409 54.6046 55.0905
80.9167 48.174 50.6488
85.7373 50.8783 52.8219
90.5792 48.1807 48.8418
84.9221 49.4692 52.275
82.7084 49.5114 51.4453
86.7063 51.5431 54.0101
91.7934 51.3891 54.3164
86.005 51.4782 54.185
84.0424 50.6373 52.1777
84.3776 47.3217 51.5947
87.2811 49.2069 51.8281
85.6045 47.8988 51.4983
81.5113 49.6479 53.423
88.2136 49.7774 53.2448
86.7719 51.9306 53.7292
87.4431 50.6165 54.4581
79.8275 49.6456 54.0977
86.9663 49.1226 55.0783
73.3703 50.4321 55.2182
89.0862 52.4252 57.8224
82.1593 50.2661 55.6811
86.7656 48.8684 53.0513
87.1263 48.6132 55.1009
83.2476 49.6411 54.4287
71.6536 46.31 53.0868
82.8718 50.2307 54.8954
78.5597 46.2999 53.8375
82.7886 51.2913 57.2425
77.2494 48.667 54.9511
76.547 51.1319 58.4825
81.048 49.5322 55.5352
81.2426 53.1823 61.6201
76.0889 48.1965 55.6126
77.372 51.9454 59.4638
84.3444 50.123 57.6628
80.776 51.4146 57.6088
75.6676 48.3953 57.6661
75.9093 47.9916 56.9084
76.7957 47.9493 56.8455
82.1108 45.7522 54.7031
75.6192 48.127 55.2306
71.7393 48.7176 58.782
79.0227 47.4249 56.2927
71.0941 48.9122 59.4418
76.6613 50.5139 59.5651
76.8537 49.7249 60.0384
70.5607 48.4916 58.5884
74.2175 52.9798 63.9622
72.5561 46.0918 55.9864
73.4035 47.2072 55.881
65.995 42.294 52.927
73.2252 46.68 56.4329
67.3548 46.3209 56.7113
67.5256 47.0548 60.6644
71.8394 48.4722 59.1557
70.0973 48.5322 59.0303
71.4708 48.3162 60.3541
75.3739 51.0031 64.586
69.3395 46.4302 56.3585
62.2922 44.4782 57.7841
65.1793 47.1555 59.5168
71.2334 50.6896 62.9763
71.1697 48.6079 61.9572
69.1751 49.1539 61.9455
66.82 44.4294 57.3433
66.0235 49.1379 62.7442
64.1049 47.2335 61.409
67.8353 45.314 59.1537
69.2118 49.8664 62.5661
69.0806 44.7759 59.7937
71.717 49.4453 61.8285
63.3492 47.5527 62.077
67.1147 46.2443 61.2002
71.6181 46.7257 60.9257
66.7482 47.5314 62.8636
69.062 48.4069 64.7013
64.7731 47.5801 64.2062
72.0501 47.1809 62.9329
68.3472 45.7765 60.9374
67.3545 47.0334 64.5883
67.5979 46.8771 63.1161
66.43 47.3159 61.0767
69.756 46.1452 62.3741
64.6957 47.2441 65.2674
64.6941 45.5179 60.6209
64.3593 44.9851 60.7458
65.9124 48.837 67.9559
61.1584 45.703 61.2676
60.3545 47.0949 64.9304
56.223 41.7692 59.0115
60.8058 44.4265 60.8734
62.2405 45.242 63.4478
61.6494 46.5019 65.1255
60.1443 46.6529 64.6887
59.5683 46.2683 65.1975
59.1728 43.807 61.9547
62.1519 47.9218 66.4663
60.9751 46.0075 66.0082
60.8824 43.0246 61.3514
58.2544 47.3111 65.6401
54.9542 46.7539 66.0756
57.588 44.7659 65.1036
52.4434 42.5866 62.157
56.7586 43.6559 61.4447
54.7992 46.1441 66.02
51.7947 43.2384 62.7894
55.5576 43.9803 63.3946
58.9221 45.9772 67.8348
57.3996 48.2642 70.9164
60.7067 46.5257 68.5687
56.638 45.4731 65.4444
56.2815 44.2888 65.3572
57.7679 44.3599 67.9225
60.4488 49.0913 68.368
52.6924 45.0287 66.9067
55.0992 45.1969 68.8883
53.5695 44.7452 66.7943
54.1039 44.0402 67.6404
54.9105 44.2426 63.9317
49.3596 42.2982 65.9052
55.7046 44.0938 66.1129
54.7967 46.9743 69.455
55.9692 45.3631 69.6969
51.064 42.4931 66.9267
56.2904 46.1747 68.9199
53.4334 46.0551 72.8366
56.042 45.8157 68.8146
54.6108 44.6329 67.0744
49.2457 40.5808 64.9505
55.8334 44.1647 68.4756
52.8418 42.4893 65.3218
52.7599 42.4568 65.1913
57.4631 46.0894 70.5019
52.7849 43.5435 69.2481
50.8244 46.7209 74.9984
53.0776 43.616 67.0869
50.5304 46.623 74.3613
48.9008 45.0005 72.2389
52.7408 44.4958 70.2993
49.3887 42.627 66.4735
49.4363 42.6634 69.6935
48.6343 45.47 71.9751
52.654 44.2046 71.1291
49.868 44.4887 70.1044
47.8768 43.8173 71.1598
49.5737 45.3495 73.313
52.6925 44.767 73.6661
52.4886 45.5812 74.3716
51.6365 42.8616 68.7178
48.9587 44.3643 71.2556
51.4637 42.007 70.557
50.1391 44.5062 71.9385
52.1494 43.2469 68.1448
52.6537 46.1822 77.0354
49.7161 43.0867 72.9384
52.5342 43.1802 70.6844
51.7839 43.7189 70.9422
50.8929 40.9893 69.4712
52.4085 46.6775 79.0402
53.6211 44.9444 73.0124
48.2151 41.373 69.6175
51.1013 45.8918 77.2972
46.4679 40.3501 70.1673
49.9659 42.4949 71.2732
49.1526 45.8579 75.0729
48.5022 43.1652 73.4206
51.3933 45.1117 77.1862
54.7979 43.9474 75.5724
44.327 40.5393 70.1933
48.8972 43.0324 76.0933
50.0765 45.751 76.5331
52.7127 40.1465 70.176
49.1765 39.3623 69.307
50.0555 43.9368 77.717
47.2634 46.0059 80.1271
53.9333 44.6808 74.0436
49.7737 40.2709 71.2958
43.5766 40.8742 71.0401
49.8607 43.298 75.3959
47.1179 42.66 76.4922
47.2459 40.5905 71.0268
45.4264 44.4117 81.393
54.0307 46.1341 80.2148
47.5384 41.1642 73.6949
50.7709 43.7008 78.1752
48.6373 42.4728 77.3722
45.3953 42.0857 72.9674
44.5354 42.2623 78.2716
47.4395 42.2574 74.785
45.1889 39.2914 71.7846
49.9997 42.2856 76.3963
47.8638 41.743 76.0588
45.3136 43.9178 78.8277
43.7526 43.3576 80.5684
49.4697 42.0434 76.0001
45.1295 41.2671 75.8425
46.8565 40.1725 76.3676
47.2378 43.6028 80.0194
42.8679 39.7873 76.1873
48.8684 43.1249 79.0095
43.3213 39.0947 73.0963
44.3506 42.3457 79.1879
46.5339 43.123 77.9659
43.6732 40.0879 75.7569
47.528 42.8591 78.4348
40.2779 36.8789 69.9509
42.8962 39.9247 73.7658
46.0457 40.472 74.6595
41.4183 39.9742 75.921
40.2716 41.8445 78.4692
45.2966 39.6744 74.5051
42.4388 41.0401 78.237
43.0043 40.6067 77.4371
40.4973 40.3085 75.5038
42.8842 39.9787 77.8003
44.1129 41.2618 78.8683
41.3919 39.5449 74.2108
43.2978 41.7139 80.929
45.5313 39.4084 78.4758
44.5892 42.8193 80.6061
43.4368 41.0337 82.4936
45.2207 41.2211 79.6158
41.8877 38.8794 77.9976
45.5895 41.6846 79.6953
40.4428 40.5046 77.8351
43.3975 40.8179 78.1989
39.7551 36.5081 73.1788
45.1989 40.4363 78.4631
38.5374 38.2048 77.9107
41.3736 42.1513 83.0868
41.1954 39.9321 80.6512
47.1914 41.0934 79.4454
35.2013 37.4484 78.3049
39.892 42.7015 83.9832
38.379 40.7798 82.179
42.6145 40.1361 78.067
40.2058 40.0624 81.6776
39.4413 37.8267 77.5148
39.4561 40.4175 80.6493
40.8529 40.616 83.4746
38.5719 40.6616 82.3331
41.5548 40.2874 80.019
39.6294 39.4012 79.7485
41.7476 38.8403 81.102
39.0831 40.0642 83.7302
39.8515 39.6787 79.6082
38.2293 39.6293 81.2985
36.4237 39.3192 84.2743
39.3452 43.557 89.2243
37.517 39.6016 79.0622
39.145 38.563 83.5664
38.9567 39.3345 79.1062
35.3176 41.7783 86.4973
38.2277 42.7251 88.2951
38.7846 41.2138 84.5803
40.1079 37.3799 79.1446
36.1787 39.0284 81.0803
37.2772 39.1178 85.1179
40.1728 39.5032 83.9568
37.5327 40.3604 86.6329
36.1718 39.5586 84.7017
38.9592 39.9629 84.8017
38.4158 42.314 87.6515
34.303 38.6452 82.4778
36.1987 39.3569 81.7409
35.7697 37.8887 82.4374
35.2031 38.9911 82.8602
37.8854 38.8818 81.1059
33.4918 39.3102 85.4278
36.4318 40.2512 84.6302
34.1003 39.3273 87.3743
35.2106 37.9384 83.2758
34.3449 39.0977 85.0266
34.8501 38.4276 84.7251
32.4829 41.2712 90.7643
40.0414 40.3776 86.8153
37.5011 42.1809 91.9477
38.2199 39.0969 84.3293
37.4456 40.2754 88.4091
34.1547 38.7859 84.3357
34.6864 36.6335 81.5911
36.2532 39.4291 87.8558
36.0184 37.8379 85.4156
34.4422 41.0144 88.3235
32.6498 37.5008 87.0832
38.585 38.4603 82.7237
35.4427 37.3461 80.3783
36.055 41.3141 94.4091
34.6451 39.0482 89.0197
35.6388 37.3089 84.9316
34.5821 39.5372 85.8409
35.7448 39.5318 89.7813
33.8888 38.4212 87.7956
35.7376 41.4904 92.9515
35.1537 41.0066 90.4806
34.2078 38.7899 90.0034
34.6405 36.7661 81.5516
33.0257 36.6164 82.3326
34.3727 36.3524 86.0894
35.9231 37.9331 84.8731
32.6045 37.7252 87.5461
35.2208 38.1857 88.9345
34.115 40.3806 93.2341
39.4751 42.6123 94.6354
35.6959 37.6073 86.479
33.7621 38.0957 92.1098
33.5928 39.8898 89.0884
34.9685 37.0395 85.4735
33.2521 39.1125 87.1906
36.473 35.7054 82.4565
31.9532 37.3341 88.8103
36.6393 36.408 88.2987
34.1305 38.4831 91.6884
38.2774 37.5881 82.8939
33.4917 37.7724 87.2477
36.3482 40.1081 96.0984
36.6043 36.9868 88.204
36.8354 37.9545 91.5292
34.5648 37.7027 87.0656
31.4367 38.0663 90.601
35.3759 38.0216 88.7451
33.177 40.0545 92.981
33.9512 36.9692 93.6306
33.9033 38.4646 88.1735
33.4266 37.8976 90.3201
33.0885 38.1247 90.7111
35.5001 38.1632 96.4032
37.4408 37.2801 85.3619
33.3057 36.9119 89.7812
40.446 40.855 97.7605
31.3085 36.8424 90.5368
34.8375 38.9743 95.5486
35.7614 36.5668 91.6461
34.7526 37.7848 91.8407
33.2619 36.5588 89.1546
37.4117 35.9837 86.3266
31.4791 34.6606 85.1231
33.7776 37.2595 89.1194
29.3945 39.8454 93.9484
32.9717 36.8482 91.744
32.1138 38.6535 96.9221
32.0916 38.3179 93.304
28.7347 35.8958 90.5485
30.416 38.4752 94.5258
33.2833 37.9449 92.2171
30.7666 34.7382 88.3349
32.0472 37.3818 93.6185
32.1758 37.2397 92.4032
33.6995 34.4643 85.809
31.4811 37.1911 91.5029
33.5762 39.0218 97.1442
34.3539 37.0763 92.9873
36.1538 37.6449 95.2449
32.6193 37.6314 96.2795
32.083 37.3128 93.4128
31.4307 38.2163 93.252
33.3307 36.6737 94.7286
36.4993 37.2717 89.8636
27.3947 36.4855 95.0197
31.7709 37.5706 98.5163
32.4624 37.9458 94.7268
32.3071 36.1868 90.0934
33.1269 37.814 100.944
32.0643 36.4895 90.7836
32.8356 36.597 96.3577
32.3503 35.8695 88.3332
31.6512 35.3167 95.7194
33.6218 37.9851 94.678
33.791 37.9452 96.5978
30.0762 37.6987 97.1759
31.1247 37.2917 90.7281
29.6422 34.2536 94.2534
30.8706 33.9422 84.2333
30.4974 37.8489 100.78
30.9636 36.5774 94.7761
31.489 34.6508 93.7715
33.9467 37.2517 93.0783
30.3276 36.048 95.5766
30.2589 37.5057 99.724
33.1286 37.2837 100.332
30.0392 36.6471 91.5403
34.4482 35.8754 93.1555
27.5309 35.6974 89.5738
32.008 37.0271 102.387
29.7683 37.0786 99.0562
31.347 33.3129 89.5319
28.5008 35.8762 94.0348
32.6886 35.3408 93.2564
28.8268 36.2283 95.8312
30.273 36.4505 98.2355
26.0336 36.6231 96.6469
29.6438 38.4707 100.231
30.262 37.192 102.136
28.4361 36.8835 97.7374
27.02 34.0805 91.769
26.1923 34.1867 93.693
26.0959 38.0802 101.595
26.1592 36.1289 101.938
28.8494 36.4262 97.7808
27.1192 35.6272 98.8872
28.2418 35.2761 95.248
26.5157 36.3875 100.63
26.6024 33.287 88.5333
29.5634 38.0493 99.8875
28.0989 37.1664 97.9062
26.9982 35.8678 99.1654
27.9551 39.3016 103.186
26.785 34.8904 97.459
28.0106 34.2519 94.4141
25.9765 34.4321 93.0219
27.3661 35.9052 100.375
26.4235 33.5254 93.2039
28.7443 35.9332 96.8404
28.8937 35.2336 96.5894
27.7907 33.3051 94.6085
27.6443 37.0869 99.0869
26.5035 34.456 99.8515
29.6336 35.2064 96.2236
25.5075 33.6556 94.3768
27.9465 35.6559 101.072
24.7529 32.9997 93.8563
26.0608 37.5474 102.992
27.0177 35.6363 99.2833
25.6167 32.6626 94.2842
24.8304 36.1784 97.8689
26.5585 31.8895 93.6458
25.8867 34.2913 97.7668
27.5598 34.4922 92.2524
27.0875 35.2594 98.8468
26.7765 33.3574 92.4061
26.04 33.844 97.3967
27.6436 36.0859 102.192
26.0053 35.0272 105.738
31.3947 35.6805 95.913
24.992 35.3646 105.453
28.73 37.476 102.031
24.2924 33.5456 96.7698
27.2035 35.5791 102.078
27.4887 33.7245 95.7452
25.3181 31.9069 94.3656
23.4352 34.4116 99.7347
26.9563 33.9733 98.4586
26.3015 33.8452 97.2026
27.1075 37.0273 108.954
26.7965 34.1348 95.9789
25.1202 36.8048 103.734
25.7917 33.3889 93.5713
27.3245 35.489 102.563
27.1564 35.5849 97.3587
28.8865 34.4751 104.564
25.5693 34.1128 99.2209
27.6163 33.7831 98.4676
26.0955 33.5057 96.974
27.5012 34.2885 97.9462
27.3162 34.42 100.208
24.4221 32.8132 100.52
27.3939 33.1072 89.4933
26.669 33.8046 103.068
24.3643 31.8634 94.8533
27.1412 36.2931 106.545
25.3758 36.051 107.794
26.4917 35.0062 104.026
25.4768 34.0232 101.055
22.7207 33.7587 103.4
28.0759 32.7704 97.7967
24.9674 34.2828 102.049
27.9138 33.8392 94.3782
25.0305 33.4021 98.0537
24.889 33.8825 104.179
25.258 35.0702 103.711
25.8997 35.0119 103.286
23.1568 34.2123 102.036
27.6784 35.4071 105.384
27.261 34.7946 103.897
25.1179 34.702 99.0588
23.6632 31.6145 96.7417
25.0395 34.7487 105.968
25.8062 34.1701 102.574
24.6078 33.5501 104.361
25.8503 34.6721 105.858
23.1939 36.0226 107.092
24.5105 35.4764 106.232
25.5099 32.8222 104.023
26.4618 34.3241 101.803
26.1621 35.1071 104.732
27.4508 32.7482 102.714
25.1795 34.4572 106.808
24.5069 36.3694 106.574
25.823 33.1276 102.454
29.4727 35.1166 105.744
25.3717 33.7412 107.968
24.5551 34.6396 106.394
25.3716 34.2986 102.5
23.369 34.3906 108.149
25.8789 32.6101 94.9367
25.7966 33.291 105.805
26.8335 31.9669 101.342
28.1665 34.5491 110.773
26.2364 36.2759 105.842
24.9474 33.1846 98.659
25.9009 33.292 109.101
24.1924 33.4799 102.192
25.0698 31.6599 97.1863
24.9195 34.5744 110.385
27.7957 33.9865 101.77
23.9747 32.4464 99.1815
27.8678 33.6447 106.402
24.1301 33.945 104.55
26.2522 32.0458 100.758
23.1587 33.3023 104.083
25.3647 34.4598 108.874
22.8484 32.6685 104.62
24.7564 34.3843 108.797
27.2989 33.4031 107.367
25.1423 34.009 101.662
23.8445 32.8732 105.362
25.332 34.4764 108.651
24.9507 32.6163 106.36
27.0054 32.9248 103.659
26.9491 35.1943 109.935
25.9981 33.1709 99.3411
30.529 34.0486 109.616
23.8734 35.3727 112.885
26.7952 36.1584 110.175
24.9763 34.6723 109.772
25.3644 32.8758 111.53
24.7167 34.3411 109.876
23.8686 32.8292 105.901
22.9213 32.6841 100.104
25.3305 31.4819 106.265
25.2971 32.7366 104.894
24.2639 34.5904 108.28
26.0089 33.6269 107.861
22.7275 31.3106 101.44
23.129 31.2619 101.158
24.4008 31.9694 107.731
24.3997 35.0665 108.435
24.3079 35.1253 110.591
23.1572 34.0316 111.602
24.0023 31.3962 99.3421
22.2994 32.3718 104.653
22.9311 33.113 107.805
23.4294 34.0627 109.049
22.6601 34.4099 112.309
21.6542 32.1811 105.484
25.7175 33.1752 107.785
23.6707 33.1447 105.159
20.808 32.2316 107.758
23.2679 31.2395 106.696
23.5637 32.7787 102.856
21.9355 32.1935 107.126
19.3783 32.3114 107.555
22.8075 32.8827 102.732
21.2523 33.4159 107.569
20.3359 31.4538 107.383
22.746 32.1932 101.929
22.2232 33.4227 108.1
24.3604 31.9588 105.179
21.526 32.5625 111.412
21.5242 33.6373 113.209
22.9152 34.7337 111.709
21.1784 33.1272 110.026
23.3108 32.9416 110.416
23.0011 31.9871 103.054
25.0174 31.9552 109.634
23.199 33.6694 110.127
21.6417 33.9462 113.696
21.6298 33.6551 106.977
23.4402 30.5275 103.518
23.3913 31.8986 105.209
26.3869 32.2471 105.632
23.3597 30.5101 102.85
21.5868 29.1569 100.273
22.0767 30.7955 103.91
22.3166 31.4592 108.425
21.5423 31.721 105.824
22.9645 33.0153 110.743
21.3706 31.8032 103.701
22.1897 31.9746 105.767
20.9373 32.8838 109.472
22.6872 32.6968 111.773
21.4487 33.2027 111.454
23.3331 31.517 107.459
22.7505 31.917 111.423
21.704 30.5607 104.101
20.1711 31.7977 111.684
22.1403 33.488 104.49
20.2512 31.2883 106.405
21.9364 31.1201 106.695
21.3598 31.5028 109.082
21.296 31.5509 102.481
20.616 32.1277 108.734
19.6973 31.6556 106.61
21.1011 32.2814 111.029
21.8255 31.4754 112.672
23.4459 32.975 112.464
22.0993 31.1297 103.816
20.6586 32.7372 115.399
22.1031 33.2067 111.283
22.5566 30.0781 101.679
20.7965 32.5914 111.02
19.5445 31.0833 105.998
21.2868 33.3581 114.998
21.489 32.025 113.877
23.308 32.9566 115.662
22.5001 31.9914 104.441
22.0822 33.0544 114.815
22.3361 32.8612 115.653
21.4263 31.3753 108.339
21.6213 32.5943 107.661
22.683 32.7579 111.391
22.83 29.3265 107.894
21.3018 31.0822 110.902
20.9711 33.1766 110.533
20.2648 31.1348 109.52
20.2983 32.2287 113.552
20.7385 34.1699 114.591
20.1258 29.8028 106.652
23.0521 30.9276 110.485
21.072 33.7144 120.043
20.5813 33.5535 120.504
22.1225 31.439 104.174
22.0368 30.0175 106.052
22.112 32.0138 110.416
21.5265 32.4146 115.525
21.0836 31.9497 107.333
21.3523 32.739 108.419
21.5517 30.1188 107.193
20.6097 33.3219 115.958
20.933 30.8713 118.913
21.9892 32.2467 104.669
20.3939 30.5703 103.207
20.2303 30.1446 105.84
20.1876 33.0474 115.83
21.7042 31.6349 111.055
21.3928 30.91 111.214
22.1665 31.7975 115.918
19.1618 31.2186 117.865
21.924 31.9174 114.022
22.1112 31.9019 109.02
22.0466 30.3918 105.727
18.9316 30.2966 115.919
22.9453 32.4523 112.127
22.6722 33.1343 112.436
21.858 32.3953 111.773
23.8064 29.3733 107.277
23.6826 30.4917 110.24
20.449 31.3464 111.601
22.7125 29.8485 107.854
23.3654 33.6086 116.729
22.0741 31.2623 114.944
23.7809 31.4309 111.163
21.7521 31.7569 114.088
21.9484 30.3349 108.27
21.5378 30.5797 112.062
23.4385 32.982 119.876
20.1749 31.2926 114.523
26.7087 31.9986 110.887
22.1338 30.1996 113.426
25.2593 33.0114 112.727
21.3665 33.6332 123.299
25.3558 32.8599 117.25
21.2147 30.7138 110.877
23.1922 31.1332 110.83
21.76 30.3241 113.048
22.3626 32.7858 115.186
22.7531 33.2975 120.081
23.1098 31.3234 116.889
20.6127 32.5644 111.782
24.3551 31.5304 115.311
21.5999 32.2991 118.33
20.4077 30.6809 113.729
19.6705 33.5113 116.657
21.5493 30.961 113.974
22.7574 31.71 113.501
21.2964 30.2812 113.813
20.8906 31.9323 116.887
21.2037 32.6657 119.628
22.8829 32.9018 114.789
21.0467 32.5806 116.487
21.5664 29.9764 116.909
24.4315 33.2414 120.41
21.5935 33.743 121.621
21.2286 33.5578 118.405
22.3767 32.6048 117.293
20.3201 29.4758 111.331
20.6316 30.5266 114.726
20.0992 31.4837 114.1
20.0677 28.7637 110.22
20.7856 30.5993 112.542
20.9941 30.0262 111.793
19.8546 31.3316 109.002
18.9291 30.6942 115.546
21.5932 30.5506 111.86
20.7182 30.6712 114.571
20.8465 33.4799 116.599
19.8836 31.3599 119.256
19.9725 30.7547 112.41
20.6597 30.5506 114.484
21.2522 30.3135 118.644
19.1479 33.3379 117.624
20.2287 31.5655 117.863
20.5066 30.7428 111.423
19.7696 31.0864 112.969
19.5347 32.5606 117.83
20.8391 30.9483 113.003
18.9322 29.6849 112.34
19.7002 30.8608 116.999
18.7819 32.0248 120.254
20.775 31.1044 112.404
19.0904 30.564 119.263
20.5709 31.5584 113.761
20.2274 31.7468 112.863
19.0879 31.6084 120.968
19.432 33.0464 122.659
20.1357 30.142 111.108
20.4079 30.9621 111.486
19.2835 29.0805 113.696
17.866 29.1165 107.827
19.1018 31.0674 112.326
19.3611 28.8047 115.396
20.446 31.3354 115.849
19.1796 32.7363 121.053
21.4662 28.7538 106.303
17.1919 27.7995 109.488
19.2834 31.7046 116.419
18.5383 30.3213 111.217
19.9567 30.0975 108.884
18.4661 29.3148 114.124
19.6031 32.211 125.127
18.637 30.9134 116.495
19.5704 30.5879 110.935
18.9947 28.8522 109.008
18.9412 32.8922 119.488
16.867 30.0611 122.083
20.1703 33.184 122.825
19.3367 30.5779 114.705
18.9638 29.7699 115.584
18.7783 31.6163 117.192
19.3313 31.3051 113.518
18.7218 28.9035 116.157
20.6355 29.7895 114.785
20.5286 31.4989 123.191
19.6999 33.2463 116.8
19.1164 30.8582 119.591
19.5741 31.6192 117.303
17.1095 29.4728 109.61
19.0524 27.1255 108.415
18.4059 31.0284 118.822
19.0906 30.608 125.136
18.4165 32.6629 116.032
17.7464 31.1471 122.352
19.5184 31.6112 115.134
19.6757 31.9709 118.752
20.6552 32.8132 113.381
19.9384 27.6877 116.289
21.7113 30.2204 113.405
19.4879 30.285 116.057
18.8818 30.0812 115.871
20.3509 30.1452 116.314
19.2166 31.3297 118.393
20.7579 29.3517 110.578
17.848 30.1026 114.627
20.125 29.1545 118.072
18.6986 31.4305 119.037
19.5878 29.1327 114.212
19.7363 30.2939 114.045
20.9939 28.8448 115.2
18.7155 30.9319 113.268
20.2264 28.6682 110.981
19.2043 29.642 107.732
19.762 28.837 114.299
18.7098 31.6554 117.258
21.1792 29.8199 120.54
19.8331 29.9069 113.797
19.4723 31.8993 125.16
19.2252 31.9631 119.665
17.5776 30.3849 125.672
21.0903 31.2608 110.153
19.4607 27.6628 104.625
19.5635 27.9887 113.455
19.0805 30.0304 118.738
18.3744 30.0116 117.583
18.5232 29.5097 124.855
19.3325 31.5404 119.965
19.3786 30.3594 109.733
17.4282 30.8992 113.548
18.9803 28.9096 118.37
21.1966 30.1922 110.803
18.5143 30.8448 122.375
21.6378 28.8093 116.303
21.8168 30.6801 111.266
18.528 30.3899 114.246
19.4347 29.1114 114.258
20.1776 30.1338 120.019
20.237 30.4848 118.74
22.2184 30.3017 118.12
20.0346 30.527 110.512
18.1836 29.9013 120.279
20.3253 28.3738 117.41
18.842 30.6531 116.274
20.0592 30.3165 115.668
20.4268 30.9619 117.086
20.1803 29.9985 118.334
19.6436 29.5775 111.869
20.4402 27.9945 112.2
19.2815 29.5177 122.272
20.7661 30.1196 110.74
19.2993 31.694 119.939
20.217 30.3191 117.742
18.7754 30.6283 116.916
21.9219 30.252 120.669
20.092 29.6385 116.601
19.8487 29.6086 114.683
20.5609 29.7984 114.603
18.9679 29.7512 115.781
18.0367 29.1658 114.358
19.4607 31.6039 117.127
18.197 28.4959 115.172
19.6099 30.2126 119.703
19.9731 30.6394 119.207
19.8253 29.9352 122.388
19.9803 33.4089 122.921
20.3428 29.9076 121.984
18.8041 31.8998 122.015
19.9442 29.7189 119.479
20.202 29.0684 118.864
18.1114 32.5692 119.821
17.6758 30.4123 123.719
19.2125 31.5821 124.56
17.9796 31.1465 118.603
20.0575 30.2029 124.851
18.3348 28.6196 110.658
16.9487 29.3852 118.363
18.8771 29.8683 117.019
18.8436 30.874 119.786
19.6399 31.1742 117.283
17.9741 28.7237 115.364
20.5737 29.5931 119.782
17.4254 32.4002 118.646
19.3497 28.9865 115.007
18.8819 28.9626 124.475
18.8166 31.4071 123.572
19.7247 30.7691 120.449
19.3787 31.3707 120.138
18.5863 29.9897 111.308
18.8724 31.5282 120.061
18.1799 28.5627 122.125
20.3537 29.1231 109.952
18.0566 27.8374 114.371
18.6052 28.8454 110.184
16.7638 29.4549 116.121
19.3356 31.7338 111.005
17.493 28.3449 122.361
19.2904 29.6787 111.345
18.6451 29.0841 126.203
18.625 30.4981 119.255
18.2685 28.1716 113.145
18.3078 29.1238 114.201
18.2032 31.1171 119.332
18.6192 29.07 115.499
17.6428 29.9224 120.313
19.274 29.8577 119.443
19.0132 30.1438 115.782
17.373 29.0396 111.433
17.9918 29.2993 119.97
18.71 30.2373 121.488
17.7797 29.733 117.959
17.4155 29.3491 120.704
18.3244 30.4728 119.313
16.5307 31.5824 123.079
19.6679 28.7602 113.998
16.785 28.924 117.632
17.9342 29.383 106.012
16.3615 29.6894 124.106
18.143 30.35 113.833
17.2795 28.5852 125.183
19.0108 31.9454 118.12
17.9176 31.5384 122.491
18.1731 28.7909 122.983
17.3167 30.7283 120.032
17.2778 30.1467 111.42
15.9791 29.431 118.963
16.6106 29.3232 123.067
18.3317 30.6882 119.411
16.5935 29.2611 114.753
18.0589 28.9762 119.318
18.2193 30.8476 119.855
17.4769 30.0589 118.555
17.879 27.1874 114.37
16.7052 29.0123 106.865
17.7996 28.6637 122.811
19.2032 32.4145 123.971
18.4071 30.2023 115.725
17.1788 29.2357 116.337
18.8992 30.7985 121.062
18.6822 30.3985 122.116
18.4483 29.3904 115.361
20.8811 29.9198 116.699
20.1517 28.6149 123.925
20.703 31.1086 120.308
19.2018 30.1019 114.194
18.7837 29.379 122.4
18.0198 30.0669 114.54
19.9198 28.773 116.769
18.977 28.8006 118.086
18.5885 30.9149 123
16.8726 30.4587 120.931
18.857 30.5 114.939
18.0474 29.0484 116.702
19.8878 29.4396 114.675
18.0225 29.9489 118.019
18.5261 29.5669 119.086
17.7759 29.691 114.434
16.4266 28.5496 119.571
17.6309 29.7114 122.364
19.0201 29.1384 116.206
19.254 31.9815 117.848
19.5166 29.4892 121.536
18.3672 30.9131 120.786
17.4189 29.257 117.469
19.2099 30.7604 127.972
18.6484 31.7045 122.238
18.0447 30.2428 120.309
19.1296 29.5045 116.987
17.643 28.1359 111.2
16.6176 29.612 127.297
18.4662 29.3788 117.818
20.2905 28.8209 111.712
19.2422 30.3784 118.938
19.3881 29.9152 116.999
17.943 29.8538 122.115
19.8934 30.641 122.658
18.6654 29.4897 118.334
19.1145 28.4735 117.478
20.3725 31.0053 118.766
19.9355 28.9836 114.935
18.2716 29.4992 114.72
19.9658 28.0366 116.018
20.137 30.7241 117.637
17.8898 28.8089 117.142
21.7303 29.2396 122.81
18.7369 31.9724 111.687
20.716 28.8158 123.283
20.0076 30.2368 116.909
17.5469 30.258 124.278
19.5632 30.7178 118.328
19.4423 29.7642 129.756
20.5179 31.4392 127.921
20.836 32.6906 122.303
20.0025 30.6068 121.477
19.0517 28.5059 128.067
19.7515 32.9028 122.477
20.0166 0 0