# pn-170911/CsIIA-33-KOKB-1280-1959.psd
# Power spectrum* (dif=0,1,2) (really just |FT|^2)
# NOTE: only the first half! (symmetric)
# weeks: 1280-1959
# 3 clock-days, 3 excluded
# PSD: 1441
41635.7 0.111383 0.0119076
2.10497e+06 10.0609 0.0021791
1.09482e+07 246.371 0.00772431
551936 46.3902 0.00538573
436606 36.6195 0.0039401
74675.1 15.7388 0.00360085
537702 94.2245 0.0193503
534962 82.4107 0.0246208
118367 53.8797 0.0205638
196745 61.2266 0.0293575
50599.2 25.4727 0.00767453
17034.1 16.3346 0.00888211
25976.6 24.9157 0.0238446
26252.9 7.72535 0.0103782
36206.6 52.3471 0.0444441
16427.7 17.2476 0.0260348
42864.7 44.2474 0.0454132
26773.1 34.3889 0.0431974
22712.9 21.9701 0.0255934
18153.8 29.8969 0.0568751
24854.3 46.8271 0.0997378
13823.1 43.386 0.100972
4539.57 12.8519 0.020815
7715.89 25.1735 0.0473721
20758.7 49.4845 0.123033
33872.9 75.437 0.215994
50318 116.168 0.401369
17854 80.171 0.257672
14616.7 45.1711 0.161528
14156.4 67.0505 0.268147
4462.51 35.136 0.141753
9017.42 33.5902 0.157273
11295.2 60.4901 0.311326
10086.9 56.8101 0.343832
4157.47 29.9986 0.13613
10090.9 57.1195 0.378521
11971.3 70.6846 0.497603
5668.12 39.07 0.21871
5066.19 53.6401 0.349508
14304.5 78.9847 0.58528
10495.2 78.2604 0.664912
3142.32 21.0427 0.131776
5185.53 51.533 0.39221
5695.06 35.868 0.297002
10288.4 66.2103 0.654924
6035.41 58.3862 0.531328
11843.1 124.937 1.22636
3949.84 38.5461 0.414925
4683.92 43.3511 0.521689
3469.27 23.1808 0.265964
1940.57 19.5333 0.240425
6797.37 54.2395 0.694435
7690.92 73.1662 1.03271
2681.58 40.3749 0.514122
2791.07 57.523 0.849845
7215.6 106.443 1.38329
4738.07 69.3176 1.07219
7610.61 85.3796 1.21089
5647.37 88.4612 1.41022
1315.2 31.3884 0.48925
6614.41 106.099 1.88478
2272.72 35.5864 0.65436
3279.9 40.5666 0.719705
2652.8 51.8951 0.949868
851.691 9.14904 0.19486
2646.76 56.0669 1.14429
3847.02 51.819 1.07076
1299.38 19.1037 0.412236
924.695 20.1273 0.481104
5249.85 77.5658 1.68825
1146.31 11.8615 0.274231
4462.35 74.2581 1.84306
933.558 31.3794 0.747278
1210.93 18.4442 0.468041
5745.55 132.751 3.56199
1462.66 22.9013 0.652047
899.051 25.2701 0.712387
1727.09 40.9548 1.17741
5717.95 117.878 3.66988
852.43 31.1045 0.777297
2057.23 64.8668 2.12363
1547.92 42.6867 1.45327
2947.45 84.4701 2.69264
741.238 21.0645 0.609135
476.16 34.3279 1.0333
900.607 32.4376 1.05462
1645.73 71.0919 2.32605
395.482 8.84696 0.298702
225.485 9.99752 0.364772
1707.33 96.2267 3.7538
3536.74 125.663 4.65708
1615.65 85.9262 3.39246
1269.78 45.7616 1.83896
2107.07 82.3774 3.4289
1945.61 71.585 2.72032
2382.02 125.146 5.57175
652.398 46.648 1.92504
946.762 55.296 2.53173
1967.22 69.5403 2.96755
532.467 31.0271 1.63361
721.283 29.1081 1.3225
1735.45 82.7953 3.94894
787.372 28.9866 1.63135
1523.62 54.8099 2.62014
458.969 15.8627 0.888016
808.568 37.2657 2.01673
1367.02 59.1969 3.15655
1474.2 79.37 4.30299
1159.7 35.4827 2.2204
1414.51 90.1776 4.5806
931.98 68.0395 3.73226
765.281 48.3365 2.92633
560.149 23.3667 1.37614
580.291 41.4143 2.46089
342.87 17.6159 1.05365
1138.87 79.8422 5.21579
1163.67 47.9961 2.91313
244.704 14.2699 0.837889
988.264 98.2299 6.59486
739.424 36.4702 2.43714
272.829 14.8759 0.8826
1053.06 48.2807 3.62158
637.716 78.1115 5.32221
314.173 14.5397 1.25531
1009.23 78.149 5.34535
1231.58 81.7488 6.1769
865.511 57.9204 4.77379
935.694 71.9244 4.73585
399.391 52.1574 4.32082
632.484 44.941 3.51793
633.666 65.5401 5.07761
432.413 18.1295 1.32785
110.794 4.97081 0.552904
472.257 39.9546 3.09697
259.367 33.5996 2.98841
590.942 56.8106 4.4044
683.612 82.2513 7.73781
209.497 11.2058 0.989415
622.217 56.4567 5.35267
587.608 23.5953 1.94311
263.279 23.176 2.09548
341.57 19.27 1.81488
580.617 56.2689 5.354
716.136 69.1224 6.8739
349.424 20.1533 1.9307
342.626 24.0461 2.77169
192.967 17.5871 1.80503
225.546 48.5529 5.57697
597.941 60.2816 5.77467
962.357 74.2372 7.48182
591.173 43.0789 4.81557
612.746 55.9552 5.55163
147.689 28.6896 2.76265
403.137 66.0536 7.3491
441.303 52.4196 5.48638
433.868 49.2993 6.03148
286.032 36.5616 4.81653
798.579 62.53 6.1899
599.098 62.1455 7.17839
665.037 92.774 11.4556
185.755 35.4734 4.45064
182.295 15.366 1.45735
713.597 98.4335 12.9685
367.737 44.5039 5.98643
629.835 41.7549 4.56473
215.224 14.7787 1.94759
581.16 66.0726 8.76865
578.805 49.6703 6.59505
231.678 44.9874 6.3088
424.428 34.9675 4.58088
111.932 30.1891 4.35033
552.11 49.2714 5.84522
451 76.3239 11.0844
600.523 71.8253 9.51744
483.076 57.1743 8.41129
530.561 79.6147 11.4203
206.078 39.2735 6.61037
171.667 27.7721 3.8068
879.892 92.2544 12.5112
287.071 23.046 3.55573
546.43 70.28 11.8242
439.231 54.8289 9.01663
796.458 143.522 21.0942
123.77 37.4813 7.04746
730.974 104.693 14.5511
365.531 69.3056 11.6586
355.061 37.7429 6.36328
146.488 33.986 5.72191
165.317 17.5992 2.9229
580.825 80.4351 13.8382
169.499 36.8551 6.64967
406.064 67.471 12.0218
189.299 43.3087 7.71309
51.8122 16.4746 3.55741
179.95 19.722 2.86142
238.614 30.2579 5.70865
608.951 117.412 19.9634
118.39 7.59321 1.87687
386.317 61.2803 11.0827
250.645 35.2191 6.02519
166.81 25.9719 5.05254
277.926 64.2062 12.4965
157.796 25.2721 4.81612
257.387 33.9416 5.54128
141.701 29.0407 6.09562
416.874 96.1777 21.5297
553.91 64.9908 11.4181
513.976 66.5071 12.0218
324.445 58.4685 10.4284
533.05 88.07 17.0958
395.602 59.5944 13.149
240.208 43.8558 11.9877
299.599 54.385 11.2493
680.179 153.576 30.2435
236.333 91.5191 23.1443
303.727 39.8229 7.94673
263.75 45.3345 10.1983
567.563 129.375 28.2198
319.701 43.2452 10.3248
128.781 43.7579 9.21894
323.894 50.6544 8.81967
277.483 80.0238 18.69
146.561 28.3283 6.11477
247.463 36.0196 8.19669
109.377 17.1069 4.38821
169.643 26.1491 7.2295
228.007 53.6176 11.322
39.7861 15.6787 4.75565
261.472 66.1426 16.1573
292.961 57.3777 13.6452
95.233 22.1992 6.93567
152.942 21.5722 3.99237
241.136 40.8606 10.2217
118.283 13.7933 3.05013
162.952 38.8037 10.272
258.233 43.1796 11.1843
110.008 17.0897 4.09969
189.088 28.565 8.13015
103.204 22.9573 5.59611
54.6749 19.4356 5.77792
148.868 46.2615 11.3612
181.324 34.0085 10.7937
107.133 41.6681 13.7807
457.295 114.25 27.4318
146.202 44.3758 15.183
102.12 10.5819 2.20654
116.879 25.9506 8.04657
323.813 58.1887 14.0499
351.219 88.3978 26.2822
130.938 37.72 10.9891
37.2977 20.939 8.53193
130.146 16.0853 4.09831
293.038 58.2185 14.8139
45.958 12.7792 5.04672
346.831 65.9553 18.9632
111.081 25.992 8.03894
148.014 36.3258 10.0156
148.738 49.4876 14.3515
95.2635 32.5391 9.57777
203.367 41.9395 11.7951
258.894 66.7822 20.3303
70.7568 23.6033 8.76716
136.593 58.5112 18.7033
155.357 42.1149 11.9401
63.7634 20.2444 6.83241
286.243 67.4836 21.718
187.492 67.2783 20.8793
150.421 78.146 30.2208
214.393 52.0003 16.3165
100.918 31.3282 14.2066
254.875 51.0045 15.1751
56.6704 24.4753 10.7326
124.52 24.1192 6.60035
36.6575 17.4114 6.70847
160.069 35.3433 9.4301
188.018 64.4328 25.6876
63.764 17.6986 8.17385
105.653 31.1466 11.6652
113.692 39.3159 12.0741
136.928 58.4876 21.0588
142.417 39.0654 12.4312
170.296 54.1338 21.2163
192.614 73.8188 24.3622
93.3273 44.0514 16.6675
243.668 64.1509 24.9669
62.1765 14.2781 5.19066
106.606 32.8772 15.2536
168.121 67.2215 20.9523
69.6446 69.1084 31.3455
144.541 25.8335 7.99511
107.928 40.5568 15.6236
213.889 64.0982 22.3469
86.9899 23.8438 12.7467
98.3412 53.6773 23.6246
153.746 28.7098 11.0231
113.163 26.8025 11.3422
70.4646 29.4663 8.69648
93.1388 50.8377 22.2655
126.486 57.5137 21.3398
122.205 54.0985 21.7763
78.4349 20.934 8.92321
80.5386 16.0639 5.04853
121.009 65.6573 30.1774
88.4535 25.6856 10.205
271.22 85.1028 33.6563
141.642 38.8018 17.6221
59.0928 19.2182 6.51824
118.277 41.4404 20.3527
116.511 38.9232 21.7493
241.306 80.1396 28.444
88.5502 16.8275 7.05068
261.163 91.1154 37.1189
124.363 62.8662 34.0977
45.3833 32.7039 18.3726
166.458 68.0789 26.898
173.039 65.2724 28.3758
73.5911 33.2228 13.1172
73.7813 32.3823 17.154
63.1299 23.8361 9.53452
46.2991 15.8059 7.46638
51.3215 45.6189 20.2084
164.651 82.6316 38.8537
15.3206 9.71676 10.253
78.8659 34.1091 14.9214
175.015 79.7494 31.2403
44.5264 19.9584 10.9629
120.102 38.0375 15.7584
150.289 76.7469 41.0284
37.0174 20.8979 13.4036
58.7352 15.9698 13.5468
152.385 61.182 22.0095
98.5329 71.7884 38.598
41.0011 9.73814 5.90767
195.973 81.815 37.1523
177.03 56.8257 27.7011
95.0918 58.6436 33.2756
100.818 43.3675 24.3499
107.055 32.7346 16.8739
106.541 55.9889 29.1371
67.7227 43.1242 19.6558
80.7178 41.8869 22.5325
100.882 40.3102 21.2
48.5031 40.9321 24.4838
270.909 109.325 60.0778
48.4844 32.8823 17.5158
68.5867 42.8951 30.8953
152.807 63.5365 24.0499
59.6793 38.3747 25.5085
154.391 110.197 54.209
171.21 68.7153 35.0797
117.966 47.2718 29.8742
116.244 70.0721 40.3803
57.2239 29.8542 25.3356
102.435 50.8862 22.1262
111.227 79.0895 36.9989
25.4592 42.5871 32.1562
155.205 44.6663 19.2032
67.2789 45.4125 30.6805
60.8945 66.2756 49.912
118.959 26.9448 9.90216
135.74 48.9417 23.4537
77.0592 41.6202 26.2431
18.9729 12.5999 10.3113
33.1825 14.6351 12.1964
85.9444 29.8094 14.1986
67.526 45.2794 21.78
28.3971 29.0729 22.6397
73.9711 27.5047 21.6122
121.661 73.5818 40.8102
77.0208 48.7466 30.7463
72.4233 38.664 21.0311
58.4757 30.687 16.0036
3.90714 5.56305 6.45693
34.8967 20.5151 15.3322
61.3099 29.8728 23.1659
161.969 55.748 24.8071
39.3623 12.5918 9.95098
133.992 61.83 44.3853
63.4015 27.4195 14.8308
53.4471 23.2236 9.58527
72.0069 51.381 35.8537
177.782 76.6259 41.8104
27.7343 28.4886 16.9015
34.3109 33.3292 23.2631
87.9379 32.1696 26.6353
161.83 103.49 55.6213
39.2527 53.7252 44.0468
108.344 54.236 32.7179
132.05 58.7583 39.9199
78.0182 31.1055 19.4948
53.1459 54.4136 42.3437
9.34868 6.17402 10.3257
112.126 57.4205 30.5241
74.1003 39.9356 28.4382
66.474 29.1985 24.0586
20.2717 22.3445 20.8454
35.8883 23.8171 13.3061
59.1548 28.2137 20.0506
75.7807 35.027 26.8411
47.7603 31.2807 24.4891
57.5127 49.4349 36.0589
116.498 77.0051 51.5027
59.8647 30.3467 17.2189
47.1355 72.3372 60.9008
78.7292 44.1002 29.3139
55.3406 39.4915 32.6262
70.3186 29.3376 17.7237
65.7894 21.6618 15.1981
67.1959 40.9974 28.7156
41.0237 25.802 20.7585
106.149 40.4182 23.8724
12.7752 9.27581 11.7808
106.081 46.7982 31.6227
47.417 33.7316 30.1323
152.319 76.8458 49.6086
95.4121 68.5466 59.9444
110.505 90.307 74.0971
39.2285 34.0428 31.8422
102.036 66.2028 44.0596
19.228 6.63498 8.70767
72.042 68.4868 53.7913
98.032 69.8637 53.2233
25.6337 29.7995 33.0429
58.1093 36.582 33.7542
63.1405 39.1224 21.2803
77.2797 50.8948 38.0924
58.4666 44.5169 44.5709
129.425 87.1413 55.0485
48.2791 25.8121 29.5615
134.308 84.255 62.5327
37.2453 31.3477 34.7527
93.0352 64.336 41.536
91.8546 60.3847 54.067
28.7285 14.8866 8.53957
82.3182 40.833 30.916
59.9296 39.4777 28.9381
88.6884 59.1262 51.7697
46.9859 44.7697 46.0343
78.8394 77.0171 56.0673
98.8448 48.346 38.1296
82.2086 67.5086 57.0842
32.0432 20.9737 19.377
61.5242 41.85 37.5663
102.912 56.2641 45.9583
93.6366 74.5446 67.9468
39.821 23.1067 32.2283
21.6455 14.74 9.2939
65.8845 62.5564 55.2504
42.8511 21.5621 15.9056
78.2477 58.0912 45.6203
18.9732 35.2725 33.0365
101.235 67.5497 59.105
42.5927 50.5444 56.3922
112.477 110.46 113.779
97.2199 72.4597 49.7937
40.318 35.7656 32.3157
57.3767 50.0858 38.6995
28.728 50.7324 47.1887
53.1124 38.4993 48.6124
9.26743 7.71636 30.3366
60.5128 55.6061 28.9893
20.6789 30.6337 46.435
130.091 95.0661 71.2195
18.104 10.8657 4.27348
49.8296 50.077 44.795
34.8903 18.5265 16.567
80.3684 77.9111 85.1492
58.8684 61.4642 58.1896
45.8493 19.6548 26.2382
45.6211 46.3499 31.3816
23.7183 34.9899 35.2802
59.1764 35.8364 28.3373
88.7435 72.498 63.8224
50.2974 38.5215 37.1144
44.9908 52.039 52.8236
59.4978 56.6087 68.1919
74.8118 49.8394 52.6016
10.1104 10.0233 6.6424
41.5597 57.8101 37.4461
60.068 95.3942 120.989
65.6767 42.3565 35.9394
63.7406 35.6698 33.069
73.3199 64.4314 47.8878
15.8064 10.002 19.791
67.9817 93.7845 82.0194
62.9005 81.2425 94.263
30.7801 31.476 65.5955
115.974 93.9714 54.1974
11.5847 31.2276 37.4071
87.8711 83.9022 88.2544
40.5067 20.8583 21.3329
19.0542 16.8994 14.5292
20.7119 15.2992 18.9031
12.5972 7.34715 6.15362
42.6171 60.2221 62.3161
34.3392 33.7271 34.0649
54.9768 56.8944 65.876
41.0688 55.062 55.4456
66.7996 56.6028 63.8512
27.037 12.4408 10.3762
35.0869 44.0121 39.2098
38.2888 62.6759 82.7002
62.5913 48.5813 56.9646
42.9578 37.9635 43.1184
141.628 95.8695 87.7098
40.6685 61.4289 64.617
63.2069 39.8459 37.1497
23.8496 22.6972 23.1951
23.5665 29.785 31.685
29.6329 38.2253 40.1381
44.7797 52.4198 67.069
19.0079 25.4283 26.736
58.7031 53.9996 64.4979
7.43454 12.3722 14.5763
22.8906 43.8466 58.3529
84.3959 79.8079 73.5313
22.8453 43.7543 65.6644
29.0824 28.0721 61.5268
140.209 95.149 73.8155
15.5577 17.4022 19.4946
10.8582 24.8778 43.5812
64.1362 34.0358 30.9365
25.3401 39.9283 52.0656
51.5699 49.7435 52.0933
50.4187 44.1428 48.3445
24.2032 19.2397 29.2336
42.9562 25.1242 25.2191
91.1295 85.8689 92.3503
32.0586 33.9987 73.3055
74.0678 87.3581 93.9494
46.6465 37.7252 29.1302
27.0162 37.9058 67.1917
97.2692 109.05 133.379
23.0636 24.9492 36.7364
19.5319 30.3439 22.7963
24.9861 37.6415 28.5458
13.0705 35.8656 49.1807
36.9721 19.0488 17.6879
16.6328 25.7253 45.5451
44.5581 33.0896 29.3262
22.1058 41.7114 49.6424
20.3411 33.7039 35.1862
29.2026 33.8636 38.6495
40.0688 53.6588 62.9221
35.0614 31.754 34.205
10.2462 9.90088 26.1364
49.1574 91.8581 116.172
59.6453 68.1425 78.4253
23.0853 7.82581 5.15864
24.0539 27.6202 34.1727
22.142 35.078 66.623
35.2641 38.2442 38.4453
14.5363 15.5828 19.0717
8.99074 38.8845 53.5263
22.4582 24.9468 43.6976
23.0479 20.2063 35.9063
38.4893 38.6652 59.3854
19.9917 15.3043 28.793
37.1899 40.9217 55.6928
30.683 49.2807 63.2764
30.1177 23.0078 25.7235
58.7178 65.3336 83.9114
42.1286 64.8434 87.2529
23.2602 8.47911 10.1588
24.0818 44.3379 90.6496
112.494 99.9325 113.697
41.0484 46.7077 57.4018
19.1064 24.0911 44.2983
25.1328 21.1626 20.962
8.99738 10.1922 26.7042
53.6803 46.6376 78.3033
37.5475 13.8915 19.6573
92.5202 87.3025 71.1112
46.4721 46.4454 63.7852
22.524 31.6128 78.3596
73.3782 91.2902 96.279
8.77336 17.513 31.3046
57.3729 77.204 87.5818
17.0318 10.6025 23.3235
59.3116 59.1634 74.2878
17.5931 27.6278 43.0848
28.0257 22.5654 38.4303
46.2744 27.3449 30.5218
27.9942 23.4963 19.8747
34.1373 49.9838 41.5647
20.3958 52.3772 92.9036
37.8078 20.1431 23.5721
51.0551 66.0917 102.569
67.4886 86.0984 117.687
36.2509 43.6805 66.1351
7.95656 26.6233 87.9172
76.871 87.0248 97.312
15.4163 50.9582 78.9775
34.8827 36.4054 66.3009
41.2698 52.4666 52.8594
26.4854 30.556 41.3916
27.1969 46.4352 58.8569
64.8203 60.4707 73.1028
37.9122 67.6787 103.797
24.4762 63.8203 116.694
35.3473 31.4033 34.2895
4.35009 18.5654 32.169
17.358 7.69102 6.14086
8.64057 28.2788 51.75
23.5893 56.1534 93.8715
64.0024 78.9025 123.634
46.3278 21.3805 12.6663
39.9285 74.7326 167.323
71.2871 110.332 126.812
14.4612 15.2018 34.1077
32.7236 29.2858 48.0061
69.6859 125.331 180.924
30.5339 27.7849 44.3687
43.849 45.5533 65.3626
12.2512 28.5441 61.3969
29.0464 19.8332 31.9069
45.9239 53.0658 83.1049
41.573 34.7696 41.0234
49.2016 51.8408 65.0966
8.3263 15.8487 32.2913
13.3096 20.5046 24.466
27.582 21.8278 31.6365
34.0099 54.7636 70.9744
34.912 61.5102 115.231
27.9403 36.6384 50.186
12.2989 25.6319 72.3892
23.4159 23.8709 40.9565
17.3122 22.3507 82.1228
70.8665 93.3803 102.411
23.3462 48.7464 68.8101
25.7262 81.8469 140.277
20.0566 13.2583 42.1592
27.4155 19.4245 16.218
24.8712 27.213 31.2748
16.4582 14.2993 37.7347
74.3562 110.53 137.584
20.1404 50.458 77.1549
12.527 12.2293 25.2906
15.489 13.264 30.5663
24.9553 72.3923 112.415
20.0026 36.2135 106.853
49.33 45.3255 58.6717
37.142 48.4834 88.2384
23.2888 19.2389 23.7952
28.8539 38.7122 59.252
14.0803 45.9401 88.7074
26.662 35.9379 41.3094
7.49159 26.9424 58.0501
31.0435 24.6262 37.7032
25.5608 14.6831 26.8688
70.5932 109.639 128.326
26.3059 95.3095 251.027
36.2748 37.2118 58.4651
23.0871 8.09797 14.9285
37.1 63.3895 99.4106
43.3983 53.7648 69.188
36.923 50.7053 83.5866
21.5144 54.7918 90.4407
42.5975 73.7909 124.37
41.6349 45.3531 82.6033
17.2452 24.7032 35.3684
4.74442 9.64798 14.7709
23.4192 39.9555 90.8211
31.455 52.9545 87.0436
13.3013 26.3799 61.0862
23.9511 10.6807 26.9725
40.7893 75.7828 104.816
19.1156 26.9628 76.4823
72.5377 85.9673 107.957
22.1949 36.6147 75.9271
13.9246 23.6264 53.1068
32.2584 61.2519 97.1155
33.869 27.8366 37.1098
6.58322 11.5928 28.4338
21.7694 31.896 66.6799
12.9334 6.79786 6.2603
23.0689 36.4339 71.436
11.1319 16.7332 15.669
11.087 40.1683 85.4489
22.1642 31.0174 35.1219
10.289 12.8418 37.5098
6.84409 8.61172 27.9958
27.2465 63.8631 130.239
54.2505 60.333 85.9222
20.1217 19.9069 49.0228
5.10544 7.03423 6.0306
3.5796 8.35246 19.3874
11.5524 19.3694 29.0869
10.1227 13.6453 41.2585
22.9815 30.8683 59.1196
20.6459 15.0993 24.0667
21.4034 28.0869 51.5594
30.3485 57.409 125.869
22.5402 55.8171 62.8469
7.29389 31.8386 84.9209
31.3761 50.119 131.325
50.9068 55.1137 85.2135
16.1438 18.4197 23.2604
13.8791 62.5379 179.492
72.845 65.1041 58.9102
28.818 36.4658 48.8461
13.4978 27.3186 69.5398
18.3153 25.2383 62.6656
9.99942 32.2299 102.992
34.1454 58.3137 68.0808
12.1353 24.8988 64.9954
45.664 48.357 66.9344
18.2564 27.7473 54.8666
22.555 42.9076 71.7417
5.06232 7.99869 19.2168
4.53186 21.3833 69.3231
27.6779 50.0125 85.5354
13.8382 21.9263 84.6719
23.4122 35.2513 42.2518
10.2496 13.8474 53.488
20.1112 37.5935 72.4033
25.1738 44.8522 88.8636
32.9228 65.3833 139.093
20.7247 32.3035 37.0824
13.4815 34.6668 86.9308
24.5454 31.018 46.8051
27.3735 43.9992 90.3736
13.0416 26.4568 65.6233
29.2829 64.9631 117.144
35.9936 42.6756 52.1412
12.6239 29.9433 58.7948
13.9403 36.914 75.8591
10.7924 15.4509 65.5477
31.0735 84.9512 146.256
28.1782 46.2778 81.8143
6.85363 29.0643 70.7885
25.1565 18.5846 33.2008
11.6041 20.3455 42.4228
27.1029 43.2171 89.5887
18.4707 17.2081 37.3204
6.3586 7.5943 8.16963
5.96244 14.2019 57.2057
34.8409 35.6966 38.5176
24.1493 68.2892 134.798
28.8669 47.721 96.4448
9.88301 9.7979 27.2979
23.1548 42.0906 80.095
18.5676 50.3252 122.01
13.0785 14.1828 38.8498
11.4186 24.8059 51.268
2.79391 4.8283 26.7155
20.2183 27.5649 65.5822
22.6897 40.684 101.336
15.9396 13.166 10.8665
5.93672 22.8242 38.3407
15.002 23.5708 50.8255
10.1327 11.4146 12.7654
4.17413 10.5178 33.1403
7.11535 20.7986 43.3133
19.3017 48.9951 88.4349
20.526 31.6867 79.0137
9.17998 11.7659 19.9639
7.73995 20.9675 90.7596
29.9569 73.1438 113.201
13.1558 25.7104 42.3137
6.94969 11.2349 69.2249
40.1389 57.4337 89.6135
20.4593 31.7366 41.0624
6.55121 3.26257 10.8123
27.7408 63.0873 159.653
11.4623 18.5319 46.317
27.6529 75.8028 143.877
22.5902 28.3805 68.5415
10.2502 24.5721 63.9018
18.1322 16.7435 30.2664
9.72834 12.729 35.1498
29.0323 80.0781 187.117
20.2461 20.0879 71.1307
11.2806 21.0399 38.0588
10.9762 31.2069 55.1981
4.59656 8.83944 29.5589
17.0122 20.6746 26.8596
10.0945 19.0883 28.6765
6.39234 29.5752 80.1049
10.6626 16.7676 59.9156
10.65 24.5839 37.7111
8.41091 29.8692 111.067
32.6531 49.9219 101.765
22.9019 27.4102 75.8846
21.648 35.0942 93.1327
17.1936 38.5442 83.8245
39.4777 68.001 86.3796
8.02694 49.8592 172.051
17.899 13.0847 17.1927
15.8081 47.2902 103.996
8.00662 21.0978 60.8689
18.278 17.0285 30.3467
5.58694 19.3453 48.8695
17.5048 19.3965 53.4751
17.0843 16.6444 27.3195
7.70843 21.2994 85.1725
20.2811 27.764 40.929
19.5912 45.8902 83.7628
12.6043 16.6414 28.9363
14.2829 30.8415 71.2524
6.10239 5.43888 32.6382
28.3286 34.2543 32.9884
9.65879 24.6393 58.1865
3.53438 16.6363 72.3737
10.5862 53.3039 153.915
26.2097 32.0777 81.9687
12.3195 28.2186 44.4181
5.42464 15.8012 67.1389
24.7142 35.4253 30.0911
5.87481 45.0517 167.525
29.1382 33.627 82.7623
14.7057 33.79 38.9372
5.0461 19.4056 109.457
29.2121 47.4186 44.7743
5.48724 12.4459 30.1481
7.95907 13.3496 24.7872
9.45215 18.9496 62.2655
9.93346 6.64096 41.4216
38.6459 70.69 94.9951
7.73551 55.6519 169.608
23.7462 26.6527 43.6915
6.97598 12.2512 63.4946
17.7238 36.4088 71.0797
10.6824 16.6233 37.3152
6.39499 21.3538 48.6798
14.7236 31.571 103.703
26.7476 44.0529 81.0657
5.92125 14.9771 51.1074
16.4941 18.9946 50.362
14.4482 35.0724 94.5613
6.09065 3.67535 66.1644
28.2836 61.9492 139.75
8.18175 30.3896 82.9323
14.744 34.7288 106.736
27.5729 52.3855 129.812
27.9632 64.1811 105.052
7.88328 21.243 91.5349
33.1262 53.2477 77.6647
7.01208 18.6606 75.6029
20.6409 38.0541 53.9042
6.54563 52.3501 153.197
20.0028 36.6883 73.2605
8.22242 31.6866 98.1198
15.5125 18.1276 57.4625
12.4548 16.5163 36.5638
8.8853 29.2185 84.7324
11.7137 21.6909 45.9778
4.13948 10.8083 21.1316
8.67429 37.2913 134.452
22.6492 38.3939 58.7588
11.2351 21.3624 83.8159
15.4831 29.3495 56.9234
12.1409 17.7817 92.2158
33.6376 58.6855 66.5947
4.96572 17.2984 70.5486
13.4639 36.0858 108.207
18.8938 34.3114 58.8197
8.25419 28.0485 82.9293
3.50582 13.6546 107.973
16.2603 52.6027 114.768
25.0931 35.2006 39.5802
6.23557 49.1928 131.494
14.7911 12.8832 40.9043
19.1207 50.586 144.586
14.915 18.964 114.565
17.6301 34.5387 53.4202
11.5974 30.2558 76.8865
9.99922 21.8129 89.5781
38.2769 58.343 101.016
11.1536 28.5727 60.1398
13.482 28.7575 87.2927
11.7077 36.6227 80.3077
10.2198 17.2529 40.1582
2.125 12.2856 69.0423
12.6445 36.1539 77.2353
10.3933 19.4587 42.1905
4.02814 7.07465 17.1436
1.55527 6.90956 42.1717
18.3543 28.0322 45.1954
9.44107 50.1718 174.712
18.5551 25.9937 60.9569
10.0346 12.2714 40.8603
10.4339 33.3595 130.787
17.5407 39.4934 73.6167
6.74125 18.1237 49.8148
11.7693 29.434 38.1539
1.25829 20.4994 63.8428
17.4383 45.5705 130.522
17.4498 24.3722 97.9371
11.9183 37.2994 55.3776
6.31576 12.7339 39.9444
13.1618 45.9709 85.5663
8.67064 17.6982 43.1477
8.3834 23.0346 74.5672
10.0566 13.7414 73.9202
12.6153 21.4906 63.8891
5.21386 16.0134 39.368
6.23149 35.0864 94.3428
21.8106 30.7623 66.9606
5.64654 22.4538 77.905
10.2769 16.1162 33.069
4.3373 15.18 22.3667
5.8817 36.03 105.328
13.0767 38.5561 121.503
22.6335 36.0275 116.346
16.2039 31.3809 43.169
4.88307 23.0236 75.2632
7.84559 16.2335 54.2837
7.98456 24.5644 100.364
18.4215 44.2264 57.8962
4.37026 37.8567 164.17
25.9716 45.8377 112.282
14.3775 27.4804 104.491
17.7211 36.2226 109.333
15.626 22.5985 51.6301
13.9709 18.7087 67.9585
23.4264 32.9136 73.2719
15.5131 41.3065 129.131
23.3524 48.5405 103.936
16.4717 39.9803 137.944
11.7053 52.0409 125.839
13.6956 25.5646 76.1425
6.32021 26.1353 130.457
22.2104 36.5743 50.9039
4.46203 38.0376 102.805
10.8926 15.6689 83.4106
18.5797 17.3598 40.0902
19.6961 43.1129 111.235
8.01264 16.0777 20.7214
8.95547 26.8305 57.45
3.91436 14.1177 66.9569
8.89239 27.1419 100.558
16.8386 20.4405 60.5863
14.4324 37.1257 92.1383
20.0279 18.6347 35.4242
23.5501 63.3856 128.12
0.526901 5.2427 53.4968
9.28151 19.5605 38.7922
1.31107 9.31177 45.8613
9.16841 22.4845 48.9816
8.22569 34.7221 171.803
17.8989 27.4308 73.0546
15.2777 71.0266 116.658
9.45347 21.8213 100.517
19.1787 56.4311 142.286
14.7036 19.4825 79.8851
24.8657 116.099 374.644
23.2205 27.167 160.68
28.4539 22.4931 19.805
10.0089 38.924 88.3171
8.70662 25.9243 111.97
13.6223 9.7628 50.5282
19.2207 26.0865 101.004
19.2328 53.2132 70.1383
4.48039 21.0035 81.0763
6.17881 6.25742 20.4213
3.73854 13.2788 44.2112
7.43375 5.21428 40.269
12.8536 29.8491 110.661
11.3575 31.2082 51.3366
8.95772 21.9144 99.4767
16.5424 36.7969 62.9051
11.5011 24.5133 52.8423
7.89332 31.8237 68.0428
1.87611 22.3956 95.9452
11.4763 15.0705 87.8209
11.1968 20.2607 26.5242
3.49494 21.6375 126.414
17.529 23.4649 71.1226
15.1663 10.8565 62.537
17.3358 19.1853 40.2853
27.2765 104.455 292.743
18.8516 26.8163 56.4003
5.95753 18.4319 52.9454
13.0278 47.252 158.408
6.18437 7.75323 59.3681
5.96634 14.1023 9.02942
6.747 40.344 189.19
19.9776 31.6472 38.1655
15.5604 58.7349 70.6132
4.06331 24.8192 39.0194
3.57965 27.5595 91.426
6.26563 63.0908 244.564
19.3587 33.8718 157.955
16.34 27.2944 142.603
22.1354 37.7715 77.9986
13.3285 18.4653 50.3772
12.8853 67.8343 162.215
9.42008 13.3069 97.9718
18.5885 23.8101 48.4764
9.4424 34.8506 58.6296
2.75746 12.3988 92.7301
15.5469 30.4983 128.644
14.9037 42.0808 89.7879
8.52822 28.4349 91.177
16.1203 24.0325 82.8966
15.2619 18.6806 55.1224
8.39266 29.8228 93.4765
9.63128 37.8773 104.899
12.6069 21.7758 81.5391
15.3207 26.0613 74.9503
5.53399 16.4741 61.7227
12.8906 29.9016 146.24
12.8869 44.8519 204.301
22.5124 88.0204 183.607
24.8532 51.7246 93.5077
9.59204 27.1566 211.477
31.1863 61.3225 125.605
12.4582 19.4446 25.3645
6.47372 25.093 57.6819
4.60973 47.3179 133.738
8.91208 15.0838 70.9436
14.5604 30.2624 51.4314
5.57887 51.8254 127.102
6.79944 42.2847 361.284
43.2563 54.4987 124.746
21.8293 35.0438 54.9084
13.0112 54.1034 191.373
14.3334 29.2464 44.262
9.43875 18.182 43.5659
11.0988 19.2372 48.0655
12.1283 53.2145 136.5
2.63391 13.1715 120.893
11.4962 11.4917 13.1796
7.2561 8.52489 39.0672
6.16325 12.437 34.5516
5.41797 52.6821 241.328
22.1757 33.387 34.9257
5.52384 17.2668 48.1228
12.9028 41.4619 136.636
11.3217 18.9655 76.9843
8.00101 42.3165 106.009
8.39415 19.1298 123.974
15.4256 16.324 57.5588
12.4259 34.0781 99.0695
6.80055 11.1495 14.8189
3.02926 9.78538 36.4222
6.81865 13.2328 56.1678
8.7116 19.5215 86.4428
10.26 42.8737 134.958
6.41217 22.0769 63.4052
3.90659 34.9542 139.619
9.14482 14.1266 141.515
20.837 50.9615 76.5149
15.257 86.0224 170.346
4.85584 14.1645 78.4355
9.01957 12.6137 82.4815
9.19912 25.8027 48.0498
4.78306 9.90687 59.4295
9.97323 15.7679 57.6608
4.83268 14.6556 27.7474
8.15348 38.6302 139.572
9.58921 17.3071 66.5702
9.45494 25.7299 62.2472
5.44411 15.1027 64.5343
4.45108 10.4313 51.9689
9.21259 20.7732 64.4752
6.84149 19.3269 84.3508
14.2166 39.51 101.043
8.97844 12.8532 69.4598
8.47131 16.1995 24.6633
4.61088 16.8151 104.627
8.07359 30.0032 39.9771
2.3659 5.37804 14.7098
2.41991 22.353 67.3797
9.47652 9.85324 42.3077
7.00257 43.0832 145.84
7.72026 9.38915 36.3755
6.26576 16.6263 54.3132
6.98377 6.39873 46.1818
5.50346 28.6975 130.053
10.6882 22.9544 109.018
18.1049 18.2099 96.2533
20.9974 55.2797 175.773
17.1284 47.9873 122.676
7.63834 17.8387 98.1071
12.2068 29.416 87.8324
14.2792 32.0708 58.3056
3.94726 0.797531 11.7251
7.20436 34.9443 90.3054
6.73818 14.9156 137.197
19.0076 53.6412 170.007
9.84782 18.2511 41.3641
4.10255 16.9809 56.0095
12.6537 36.8063 117.731
6.60699 15.0474 117.962
12.0327 44.6861 135.916
8.61427 13.9269 24.0482
5.89509 25.7559 111.084
14.2018 9.40862 33.1022
3.64387 7.19784 61.8366
13.4162 23.3472 18.9584
2.48098 15.7753 117.081
14.5134 20.3071 27.057
6.17991 45.5104 85.2308
5.6507 14.418 167.409
25.4391 28.1487 65.2722
14.4562 48.1318 169.862
12.12 27.4979 33.3998
6.53797 17.2177 64.7546
6.44628 31.1856 182.081
25.1632 52.8778 82.6767
6.07055 31.9694 75.5551
0.867131 10.0064 98.3187
6.83148 33.2701 75.1267
9.13409 18.11 97.1813
14.4995 40.9099 157.134
6.96698 10.4453 48.4575
6.99663 22.937 28.8169
7.2332 38.2414 144.672
12.6063 19.2717 79.512
12.2321 41.2865 104.193
8.1212 16.987 115.727
8.83339 7.63283 77.0269
17.5491 63.5252 123.012
9.05005 40.6775 198.655
9.31356 23.0959 52.3742
10.0863 33.4839 78.5006
2.50127 9.73022 68.5057
9.64414 32.736 88.8563
2.70391 3.23192 52.2473
8.60027 26.726 117.952
3.79049 25.1726 144.99
19.2977 46.5419 91.0272
3.96494 26.5782 94.9988
7.18908 24.5476 69.5588
7.62162 1.35769 40.1007
12.6015 23.9014 55.2716
3.22235 13.2658 37.3489
2.32927 4.10315 35.189
5.32715 12.2664 59.9141
5.31716 34.1004 134.204
11.976 9.69445 134.405
15.5844 49.3623 71.4213
6.59376 17.4319 48.9781
5.36092 7.05892 43.8291
6.23708 13.1343 57.5789
7.65746 26.9189 35.9205
2.03642 12.7556 130.811
8.9761 37.7302 130.337
9.58882 55.524 194.682
12.8695 18.3164 52.4218
3.12958 7.99098 31.7986
2.71494 40.9985 99.5504
8.25496 15.2577 50.2643
5.73803 30.7887 136.753
15.9917 11.6866 103.274
20.014 46.3299 62.8206
1.8701 29.2743 102.58
7.51762 23.3272 144.511
14.3359 29.3421 101.217
4.60914 15.2387 80.0435
14.2637 42.6218 151.8
8.8598 39.2625 107.687
5.15622 14.1503 33.7039
5.99846 36.7816 150.136
11.6766 25.8415 115.366
11.1496 24.7223 107.885
8.01524 13.8081 22.367
4.5052 31.1903 111.682
6.53039 25.5109 102.349
7.63069 32.5831 79.2848
3.47496 7.21804 73.666
9.86624 28.6954 172.688
16.1309 75.6596 132.894
4.23724 32.2096 155.645
15.719 11.7203 121.586
15.8273 17.5913 8.37013
3.66331 7.96402 30.2624
2.92855 17.6188 46.1011
7.24761 19.3267 58.5225
3.59035 9.08161 106.593
8.04241 20.1214 90.6753
8.11259 22.5449 74.6333
14.334 45.9453 117.399
8.73734 29.1185 28.8791
3.06684 10.7076 117.913
19.6011 86.8536 168.333
8.59939 17.7982 145.591
8.83765 16.1275 78.8356
12.4451 25.5527 101.827
4.10078 12.2157 43.2156
7.11222 12.5451 66.3924
6.05449 15.7063 60.0153
5.00844 16.5788 51.134
2.70812 7.28855 74.2367
9.05662 18.2888 68.2766
6.83913 17.2256 50.661
6.8856 10.8964 72.8358
8.77756 41.257 107.892
6.48762 13.3974 54.9047
7.82343 22.658 102.354
5.62867 16.9434 37.248
4.02864 19.3994 110.632
8.96593 36.4389 151.206
10.5361 25.7411 90.2063
7.31985 28.5857 164.313
12.9646 34.124 22.3585
2.60388 32.4705 86.159
7.5091 15.0326 117.394
13.7729 10.5388 48.1884
8.95271 9.25181 119.744
18.0507 68.211 195.689
15.8501 30.0283 127.307
10.7524 32.0148 18.7121
3.38751 19.6454 79.2489
2.85001 16.5769 95.8983
6.16833 13.2718 24.6788
5.76134 20.1895 57.0169
2.36236 10.3864 41.4803
2.21714 14.5427 105.811
11.1181 25.9742 40.5412
4.03192 8.47355 18.8625
6.86545 40.734 197.648
5.11035 17.6854 196.045
16.2676 65.1938 93.5688
7.159 5.11013 53.2503
5.81371 40.7378 181.41
19.6955 40.7005 108.568
9.68221 17.5531 46.6941
5.45563 19.9132 69.2656
7.5956 21.2092 144.129
7.54657 33.6844 111.711
11.5856 17.9738 64.1707
7.1927 8.06688 60.3541
12.3843 56.6332 166.999
8.43664 46.8858 178.413
8.90689 32.5225 86.3298
6.26446 12.548 19.8154
1.70599 8.54157 95.1348
4.27832 22.1952 143.888
9.70873 22.3197 33.3187
4.06446 62.4008 239.943
22.0098 24.4014 55.0045
4.74609 21.2318 74.7219
6.49951 9.35569 43.2119
2.95953 9.40728 137.718
11.8468 24.9631 67.8855
10.0043 30.831 73.7009
5.74055 23.1025 91.1733
6.22081 30.5018 75.8168
3.342 3.91325 96.214
5.00299 24.768 66.7008
4.36704 5.20857 69.1163
8.14973 27.7932 48.9111
6.4244 18.2087 70.4416
3.71707 21.2873 104.478
13.9592 17.2632 43.2135
6.99571 11.0314 11.9095
4.43012 28.9137 146.881
10.0045 2.52877 79.7231
10.8248 26.962 65.5157
4.43966 11.5668 24.2913
3.52708 3.49528 109.91
11.6429 41.9462 38.1925
2.44937 15.0852 70.1817
3.61467 15.7733 107.765
11.6374 55.7812 136.978
12.2932 17.7053 123.456
10.9111 29.3461 88.5161
4.31046 12.748 61.3595
9.68317 36.6827 125.966
4.90624 32.877 192.014
9.43099 39.7589 100.49
6.12933 11.2462 82.5906
5.82221 12.5694 61.8836
4.10754 20.208 63.7845
4.59709 30.5908 46.095
1.20198 26.3501 142.066
8.73659 3.57075 36.3383
3.40786 9.56093 35.9141
6.27534 13.3134 71.9934
4.7829 9.69648 50.9767
2.84161 9.77694 97.3241
6.70671 17.0413 39.026
4.27526 20.7205 25.3277
0.666573 15.7301 96.4829
7.26424 58.812 150.952
11.5827 10.0057 83.1531
8.27591 13.9297 20.9655
3.37597 5.23328 69.6274
4.38428 19.6742 128.661
6.27853 20.6537 50.2834
6.95468 24.8269 50.8918
4.84805 29.2823 43.3465
3.23337 15.3658 129.753
7.68845 16.6546 21.523
1.48416 22.2572 198.792
17.8573 23.9975 42.9891
5.80666 58.8985 171.839
11.8595 12.3162 73.4599
3.11758 28.3021 46.6357
6.3802 38.9514 182.875
15.9967 30.8202 121.139
9.71309 23.1123 40.8886
3.7381 40.6596 81.7725
4.73113 4.68155 52.22
6.95192 29.2614 105.5
9.45702 55.2138 171.76
8.11079 12.2559 164.654
13.2704 18.4097 60.4576
5.43998 23.1272 68.3024
5.78482 28.4016 39.2962
0.931919 26.2174 94.6983
10.077 26.6236 104.871
8.21766 6.69941 65.2638
10.6789 31.0772 118.68
6.72388 8.80361 42.3877
2.59554 29.5514 135.576
10.1239 12.025 96.4236
5.60968 35.5708 50.847
3.57297 39.4052 197.011
19.8898 25.8377 41.7295
5.33418 15.8569 121.804
8.6562 16.6715 88.8728
9.193 37.1096 61.8535
6.12903 17.0275 108.143
10.8169 8.88383 75.9248
6.58277 30.7696 77.7277
6.98306 21.8391 152.769
9.12389 22.0313 103.118
9.91339 27.8755 71.8518
10.2676 14.6825 59.2234
4.94202 12.8102 64.2761
5.99154 39.6561 142.705
7.14259 15.5772 26.2738
1.47226 26.4168 135.968
11.5306 19.9164 68.3109
9.2961 16.484 56.8274
7.70505 43.7168 185.374
15.8429 13.4605 57.1988
10.6279 28.5817 97.3346
8.29545 23.7077 143.248
12.0607 55.8881 135.697
7.98521 16.0881 103.762
4.63948 22.279 154.863
10.3361 27.0103 83.9705
11.2226 22.1424 52.6845
1.9628 26.1334 83.1928
3.65454 13.3999 102.813
6.53808 19.1137 224.462
22.2068 56.8493 134.16
6.83495 56.4187 135.962
6.2405 9.17409 131.845
6.94333 34.7015 43.7451
3.20937 16.3947 54.5763
6.14763 20.7061 153.677
13.9368 24.3988 98.2582
8.43839 28.6435 79.1917
10.6329 42.6749 131.484
7.7123 11.989 57.8942
3.03938 18.1403 38.7187
6.24695 1.59383 52.2234
5.4721 30.2386 85.3799
9.63915 12.5523 59.4411
8.5469 10.0318 43.5337
2.76329 21.2375 123.184
12.4152 19.4244 99.7758
10.6045 14.3246 23.4614
4.37628 10.6869 88.5898
8.88761 27.0699 64.8532
4.80677 6.30784 70.1396
6.40628 29.9689 148.935
12.2019 34.7916 244.282
26.8102 82.6226 149.904
10.1968 45.3753 186.685
9.54311 32.8366 155.473
7.76392 25.5152 43.9845
5.36171 8.04863 31.2579
4.47636 9.34672 156.73
14.2276 20.6527 96.515
6.04114 13.8438 35.3086
2.07626 25.3039 21.0895
1.31717 7.45631 65.8908
7.70909 31.3386 115.164
8.14421 14.5822 75.6017
4.10515 19.4995 36.5898
3.37087 25.8051 47.5238
4.33547 28.5814 124.13
11.3567 9.59753 101.966
6.63996 23.109 80.4937
9.18177 14.4007 30.675
0.684448 2.72447 23.1022
3.52473 30.3957 132.826
7.48166 30.0839 114.583
4.28473 22.0532 44.7704
3.38348 18.6661 93.4059
7.76941 16.7127 37.5293
5.37324 9.72749 125.661
10.3331 23.9767 66.5955
3.31562 26.4352 46.0356
7.78057 47.4745 113.124
10.2259 37.6108 176.288
10.1903 10.883 112.064
13.0931 36.3421 105
4.59898 12.1043 50.7591
3.00694 20.9919 76.1976
8.12545 3.35484 49.3312
5.5917 21.9996 115.454
9.50569 24.8059 68.6206
9.4185 4.11501 21.6451
4.96957 15.202 90.3027
4.66423 33.1063 153.412
15.24 19.484 75.5235
6.61399 17.7448 87.0909
10.526 28.6008 68.1723
5.76395 12.5689 37.1502
7.19214 12.4605 38.8856
3.54497 17.6275 65.7282
6.29946 15.412 49.2346
2.82164 18.6155 60.2651
7.49647 20.6932 63.297
3.87547 6.41985 60.3911
3.97596 39.1235 133.716
10.3839 9.58199 90.5924
7.63229 18.4929 46.5495
6.1615 18.2265 27.964
3.27128 28.9809 154.624
4.65664 25.8584 149.217
12.4241 33.5262 158.013
8.6125 21.4108 29.6165
2.18837 21.5222 159.192
7.13888 19.0103 128.088
10.1105 55.1719 78.4683
5.20308 15.6689 101.11
11.6258 29.1944 51.7778
4.24066 3.98064 78.9922
2.41269 11.2488 39.4525
3.81245 22.7762 67.5008
6.11381 8.98379 74.3941
8.25426 23.782 42.4741
6.66205 7.83048 43.4322
6.30611 10.8277 44.6776
1.53251 22.6487 93.4664
8.34716 11.7323 38.9013
5.19989 9.9227 73.4458
8.72968 29.1671 103.462
5.62854 14.5665 105.04
8.15017 20.1813 71.9145
6.0858 24.1337 70.5747
5.59708 0 0