# pn-170911/CsIIA-30-USN3-1280-1959.psd
# Power spectrum* (dif=0,1,2) (really just |FT|^2)
# NOTE: only the first half! (symmetric)
# weeks: 1280-1959
# 1369 clock-days, 420 excluded
# PSD: 1441
25151 0.901895 0.0377876
1.65623e+06 32.6666 0.0283475
5.62488e+06 113.614 0.031263
1.83652e+06 70.4932 0.0325021
1.42057e+06 99.6107 0.0376465
732690 72.9428 0.0370695
503914 72.5825 0.0411252
335621 66.306 0.0428051
289944 75.8113 0.0519276
225460 74.3994 0.0547485
179665 74.1614 0.0616451
154669 78.6196 0.0734296
134701 80.0454 0.0823651
108958 73.5084 0.0847391
96489.6 77.5038 0.0958538
86490.9 77.2454 0.103381
65896.5 66.9103 0.106364
58895.7 69.413 0.121814
58855.7 76.3204 0.141642
48843.3 70.9942 0.148408
44649.5 72.4596 0.161802
39879.7 70.7108 0.175057
37198.6 72.9336 0.191228
35327.8 76.0645 0.214817
30230.8 69.4648 0.214199
29511 73.7175 0.23819
26864.2 71.6871 0.254488
24100.6 69.4106 0.263868
21995.9 67.4686 0.275149
20818.2 70.5457 0.307997
19395.7 71.2425 0.328093
17827.8 68.4754 0.347542
16031.8 66.41 0.347619
15964.8 68.5452 0.376069
14831.8 66.4274 0.386151
13735.7 68.06 0.417979
13023.3 67.1267 0.442307
12577.7 68.36 0.474318
11811.9 67.201 0.483869
11856.7 72.3682 0.553776
10600.3 66.4801 0.520161
9912.17 64.3274 0.524924
10266.9 71.494 0.618141
8870.8 64.1799 0.583828
8673 66.0731 0.631373
8575.12 67.912 0.680782
7800.63 64.9053 0.662928
7789.3 68.7941 0.741149
7093.93 64.0236 0.723317
6495.17 63.7649 0.758445
6915.78 67.8746 0.838377
6421.59 66.4156 0.847245
6510.83 67.6093 0.895918
5918.46 64.4032 0.888087
5589.05 63.6753 0.905249
5504.69 66.6206 0.975223
5419.43 67.8591 1.04364
5014.61 64.4604 1.00628
4796.93 63.3009 1.03179
4838.21 65.025 1.10134
4764.73 66.7781 1.17627
4311.26 63.7831 1.14943
4387.34 67.2229 1.24228
4068.69 64.7914 1.23484
3774.75 60.93 1.19662
3855.85 64.1597 1.30753
3631.46 60.7545 1.27772
3629.88 63.8505 1.36652
3551.73 63.1181 1.41062
3407.58 63.2524 1.44592
3343.4 63.9492 1.51757
3286.28 64.3449 1.5631
3166.06 64.4948 1.62797
3006.6 62.3877 1.59079
2996.23 65.3622 1.71521
2798.87 62.6594 1.692
2780.39 63.6482 1.74894
2600.49 60.6871 1.74145
2713.57 64.1759 1.86739
2615.58 64.3023 1.91997
2540.35 64.281 1.96314
2328.24 60.4362 1.90989
2390.9 62.1025 1.98917
2235.77 61.1429 2.02592
2321.92 63.5761 2.14737
2184.94 63.4909 2.18239
2191.88 63.9483 2.25116
2119.18 63.032 2.27717
1994.19 59.1329 2.21396
2099.06 64.1558 2.43151
2009.6 64.2897 2.47917
1843.25 59.2816 2.34443
1941.69 63.5341 2.56293
1811.55 60.3 2.48594
1809.19 62.3291 2.64371
1746.84 60.4395 2.57932
1738.27 62.3434 2.7444
1710.5 63.9696 2.85847
1661.54 63.5723 2.90278
1650.41 63.331 2.9671
1577.99 60.216 2.86395
1532.95 61.2838 2.95997
1448.82 59.2338 2.92022
1403.25 59.379 3.00633
1444.67 59.9145 3.0999
1452.68 61.2133 3.19276
1365.43 60.7455 3.24963
1380.44 58.5758 3.17798
1340.59 60.669 3.39231
1299.01 60.2781 3.38964
1313.41 63.0513 3.60725
1238.68 58.6457 3.43113
1291.59 62.3967 3.76733
1214.62 60.4635 3.6652
1230.53 62.0136 3.81413
1169.52 59.1831 3.73715
1138.01 60.8674 3.91531
1097.03 57.2068 3.70288
1138.37 62.5054 4.12225
1033.95 55.8234 3.78107
1042.43 59.8351 4.0921
1057.5 61.4244 4.2581
1033.33 59.9741 4.26199
1026 59.7122 4.28952
956.046 57.0725 4.1771
995.718 59.146 4.38151
933.717 56.9419 4.30572
927.487 59.371 4.55523
953.854 61.9091 4.82422
864.49 56.5138 4.4094
905.966 60.0318 4.84568
904.182 58.4596 4.75371
833.885 56.4819 4.63475
872.036 58.6749 4.9064
851.68 59.3994 5.07714
878.658 60.2995 5.20512
810.916 57.9938 5.1098
849.165 61.6011 5.43717
765.841 56.7126 5.16717
799.028 59.4032 5.45525
797.282 58.855 5.45813
793.446 60.6405 5.71294
768.438 59.691 5.71102
717.025 56.673 5.46761
738.039 58.153 5.68404
712.487 56.7076 5.63854
746.068 58.9453 5.9487
702.475 58.3077 5.93576
683.337 57.5421 5.99621
681.587 57.4644 5.99846
662.174 56.5143 6.01362
657.388 56.9721 6.19205
617.413 55.2756 6.06913
637.34 57.3456 6.35801
602.769 53.8267 6.0239
627.286 59.3392 6.72755
602.219 56.5574 6.47564
598.97 57.3616 6.67059
574.563 55.021 6.55384
565.079 54.1683 6.42847
590.128 56.8473 6.83112
559.264 53.5356 6.54552
549.493 54.7812 6.75446
551.777 56.8812 7.13243
535.478 54.465 6.94928
550.779 56.5779 7.19498
529.273 55.4816 7.21695
511.859 55.5366 7.26445
517.13 54.2112 7.21573
520.368 56.0591 7.54895
496.537 53.3722 7.2688
502.289 56.4097 7.77438
498.293 57.3429 7.95382
476.377 55.3512 7.81648
491.655 55.6658 7.91269
478.568 55.5598 8.02181
472.772 55.6383 8.11962
454.433 53.8756 7.97301
491.099 59.2738 8.78488
462.722 55.4261 8.34155
450.302 53.9056 8.27725
434.388 54.3172 8.3589
425.444 52.1421 8.13367
431.321 54.416 8.56109
407.849 51.8541 8.27894
417.337 53.881 8.65717
430.84 55.5651 9.02477
408.135 53.6409 8.85968
398.333 53.0854 8.78147
392.695 52.6715 8.80382
400.174 54.1069 9.23824
387.673 50.81 8.72719
390.717 55.236 9.46962
364.314 51.8989 8.92434
372.501 53.7289 9.58086
392.021 56.4442 10.0183
379.848 55.074 9.94232
349.123 51.408 9.39074
372.961 55.3844 10.2192
368.265 53.1663 9.86642
362.083 53.6052 10.088
341.131 52.2008 9.89532
342.297 52.4424 10.0001
337.953 51.6277 10.0114
331.538 50.6106 9.909
336.566 53.0219 10.3276
334.551 52.0831 10.3873
336.094 52.4762 10.4988
324.527 50.8216 10.2643
336.054 53.6942 10.9279
327.131 54.6535 11.2499
312.369 50.7228 10.6606
302.207 50.7985 10.7453
309.25 52.0166 11.0032
293.003 50.0067 10.7385
296.824 51.8167 11.1946
300.202 51.1968 11.2274
302.507 52.2127 11.3918
303.585 52.6775 11.7504
298.825 52.3007 11.8149
288.096 50.3902 11.2979
276.661 49.7943 11.3877
289.914 51.5253 11.8426
273.121 52.1226 12.0656
279.713 51.5655 12.0777
278.831 52.8007 12.4806
268.712 51.2044 12.2667
253.878 48.1089 11.4254
276.049 52.3912 12.7771
258.414 51.1839 12.6715
249.883 48.6478 11.9871
244.955 47.8131 11.8487
255.006 50.7978 12.6357
255.844 50.4472 12.7495
250.957 50.24 12.8924
246.774 49.7264 12.7418
242.801 49.3028 12.7734
236.869 47.9811 12.4818
249.865 50.5304 13.2737
241.887 49.7859 13.2163
232.144 48.5256 13.0342
232.112 48.7481 13.2436
230.338 48.7725 13.3295
238.521 51.4733 14.0654
220.632 47.928 13.3313
224.217 49.2438 13.8042
225.438 49.0282 13.6613
227.83 49.4733 13.8906
227.348 51.9962 14.8694
217.257 49.5608 14.3307
208.454 47.9221 13.9262
199.824 45.5555 13.4209
212.604 48.6057 14.2412
208.399 48.2873 14.2918
201.239 45.5835 13.7484
204.922 47.1727 13.9808
194.972 47.2268 14.516
199.017 48.4108 14.7647
193.989 47.0365 14.5709
207.858 51.9833 16.3827
199.846 48.1155 14.9756
186.206 47.0201 14.8936
197.661 49.1991 15.4863
185.496 48.5237 15.493
189.342 47.9594 15.5014
185.904 46.5956 15.33
187.034 48.1902 15.7197
191.364 47.1662 15.4126
183.027 46.5962 15.4185
179.094 46.0694 15.5647
178.974 45.6827 15.3691
180.505 47.7537 16.2737
177.167 45.9453 15.7268
174.828 46.0458 15.7489
173.485 45.3632 15.8209
173.337 44.9531 15.7963
171.944 46.7543 16.4337
170.668 47.4122 16.6529
171.829 47.2032 16.93
162.775 45.3618 16.1869
167.278 46.158 16.7007
170.818 47.3626 17.1466
162.741 46.8536 17.348
171.928 47.6496 17.6895
161.242 45.0822 16.648
159.446 45.3588 17.023
149.081 44.8161 17.0269
158.276 46.2171 17.6207
156.427 46.5696 17.6589
155.358 46.8576 18.063
163.049 49.0366 19.0487
153.846 45.891 17.7551
154.997 47.2097 18.6243
155.023 45.8815 18.1804
150.579 44.4307 17.5182
146.057 45.255 18.3053
155.508 44.9835 17.9486
146.794 44.3552 17.8768
144.627 44.5968 18.3404
140.927 44.6325 18.2505
138.253 43.2481 17.8979
137.97 43.9712 18.2123
146.344 47.1715 19.8701
137.838 44.7948 18.8747
138.37 43.4359 18.4407
133.994 45.0094 19.4292
134.922 44.4523 18.9177
133.159 42.7445 18.4691
134.557 43.8642 19.0683
132.187 44.9363 19.6136
130.133 43.4901 18.9991
130.217 43.4498 19.3643
130.602 42.616 18.8166
121.206 41.2605 18.5428
124.979 42.8599 19.3811
126.263 43.4648 19.4916
126.816 43.6638 20.0626
124.776 43.3128 19.7251
121.331 42.0716 19.693
120.847 43.6201 20.1789
124.669 42.5515 19.8491
121.512 42.6555 19.9666
115.212 42.8592 20.399
117.378 42.2033 20.1437
117.943 42.3128 20.0731
116.139 43.2903 21.0524
120.531 44.0106 21.5247
111.709 41.1068 20.0417
114.358 42.939 21.3569
112.792 41.9535 20.3878
112.1 41.55 20.7803
110.458 40.6777 20.4659
113.769 43.0172 21.3879
112.191 42.2888 21.1594
109.106 41.5194 20.983
107.739 40.3247 20.5538
104.245 40.8774 21.1824
102.378 40.5875 21.1932
107.499 41.4927 21.5307
104.673 40.801 21.3731
105.702 40.8831 21.2165
102.114 40.3393 21.4185
99.3838 40.9818 21.941
104.734 42.0381 22.2687
102.428 40.4885 21.7631
97.9137 39.6966 21.3783
102.45 41.3055 22.5032
101.329 42.3022 23.1563
99.8087 40.5428 22.1669
96.8035 40.0763 22.2289
93.5252 38.296 21.3928
93.2446 38.6945 21.5461
100.912 41.3381 23.0862
95.8089 38.5609 21.7172
96.1707 40.0816 22.6136
91.7008 39.1384 22.4401
93.1521 40.0349 22.9203
92.2378 38.7456 22.4571
98.8774 42.4596 24.5248
91.7424 39.0261 22.7943
92.2091 39.905 23.2913
91.5385 39.0922 22.9169
87.2249 38.0441 22.4947
89.6036 39.1086 23.1348
89.731 39.4596 23.45
90.1109 39.8443 23.9193
85.5763 38.9669 23.829
87.2279 39.988 24.52
86.0932 38.6695 23.5873
88.3323 40.3937 24.6631
89.157 40.0331 24.387
83.068 38.6997 24.3654
82.1904 37.3864 23.2373
80.9388 37.8738 23.712
82.7733 37.7347 23.3665
78.7292 37.7081 24.0022
83.0034 39.3991 25.2173
78.8312 37.7115 24.1859
84.6329 39.8196 25.4843
77.9544 37.586 24.0441
78.5342 38.5694 25.1746
80.1158 37.8615 24.6633
78.615 37.9423 24.8924
75.8021 37.2158 24.6169
74.8538 36.2086 24.0661
80.6611 39.162 25.6631
76.7368 36.5334 24.9212
77.0225 37.2427 24.7326
77.292 38.1358 26.3709
77.9666 38.8641 25.8594
74.4037 36.326 24.5399
72.2961 36.0418 25.1271
72.8248 36.2261 24.9315
73.5885 35.8536 24.6142
72.4308 35.3852 24.5235
71.4504 37.795 26.6125
72.312 36.5902 25.5336
70.5248 35.8023 25.4746
71.8128 36.3952 25.6197
71.2008 37.6015 26.7017
69.4234 37.0052 26.649
69.855 37.1214 26.5788
69.1238 35.4251 25.8862
71.3073 36.8639 26.6291
67.8416 35.8334 25.8489
69.0665 37.5655 27.6797
65.5008 34.6029 25.114
68.3823 36.7515 26.9923
66.8389 35.7964 26.6752
66.1791 36.1659 27.2771
66.4723 34.6093 25.5668
63.5903 36.0731 27.0148
67.3741 36.8731 27.902
65.0093 35.1854 26.8406
63.9249 34.7836 26.3332
62.464 34.0205 26.324
65.6386 35.2539 27.1052
65.4355 34.3628 26.4229
65.6817 35.3261 27.448
64.4002 34.9215 26.7694
64.1172 35.8947 28.1868
61.0989 34.5688 26.9206
59.331 33.2012 26.3915
60.6968 33.8309 27.0035
62.3374 35.039 27.9762
61.8121 35.495 28.7098
61.9174 34.2837 27.5245
59.7678 34.4329 27.95
64.5614 35.6513 29.0529
59.5955 34.4859 27.7418
57.6677 32.8444 26.9921
57.4946 33.3639 27.6098
58.0026 34.3043 28.0915
57.225 33.3712 27.7265
58.6627 35.2488 29.1754
57.1263 33.0267 27.736
57.9003 33.0872 27.8466
56.7759 34.8394 29.822
58.4793 34.4615 29.1816
57.1963 34.0945 28.4375
54.233 33.3897 28.5598
57.11 34.8219 29.7303
58.1951 35.7245 30.9651
56.8206 34.2944 29.3253
52.9995 31.6963 27.7596
55.1523 33.8541 29.2895
51.2825 31.7085 27.652
53.7026 33.9366 29.7857
53.1579 32.8192 28.8099
51.8584 31.7634 28.191
52.81 32.6898 29.1268
50.5716 32.1211 27.9413
53.7928 34.4991 31.2622
52.0077 31.8404 28.8414
50.123 30.8865 28.0973
54.2148 33.5782 30.2159
48.4451 31.5754 29.2253
51.7798 32.3026 29.0355
52.542 32.9921 30.2308
51.4866 32.8728 30.0663
48.4859 32.3505 30.3768
49.5139 31.173 28.9899
48.9822 31.3359 29.0867
48.1885 31.1756 29.4814
49.7457 32.4412 30.4842
48.2908 30.8353 29.0644
49.1251 32.7018 30.5721
47.0118 31.1543 30.5548
49.0318 32.6859 30.9626
49.0395 31.3222 29.9981
48.5786 32.6793 31.8432
46.4841 30.6908 29.56
47.2078 31.9852 30.9911
47.2622 31.791 30.6406
46.8304 31.9417 31.2384
46.6337 31.7154 31.0908
46.0701 30.7539 30.6275
47.9571 31.3752 30.4858
45.9199 30.8332 30.2759
46.2322 31.9225 31.8066
43.8912 30.2015 30.1396
45.7405 30.7475 30.9484
44.6555 31.8835 32.1319
44.1177 30.9044 31.012
44.1541 30.1777 30.7955
45.1944 31.2002 31.6816
42.1345 29.8078 30.3953
41.5119 30.1148 31.5063
45.0044 31.822 32.1899
41.6918 30.2971 31.4099
44.48 30.923 31.9414
43.3573 31.554 32.7629
42.5264 29.684 31.3736
43.6294 30.6095 31.619
43.4011 31.0039 33.0091
42.2619 29.8159 31.1781
40.9802 28.9768 31.3112
42.8509 29.3845 30.4548
41.5084 29.6323 32.2804
40.4848 29.9522 32.4951
41.7777 29.6087 31.6592
41.2584 30.9477 33.419
38.0017 28.4133 30.5846
40.2514 29.8586 32.7043
39.8202 29.3557 31.8791
39.1177 29.6078 32.0427
40.0581 28.7678 31.9698
38.825 29.4138 32.1918
38.2645 28.5104 31.9628
38.1806 27.0794 29.8383
39.961 29.4893 33.4547
39.4608 30.5004 33.9475
39.4537 29.6453 32.7433
37.2419 28.0928 31.9818
36.312 28.3394 32.8572
39.342 30.1568 33.9244
37.6252 27.9989 32.0821
37.9937 29.5277 33.2626
38.0824 28.6011 32.4237
35.9386 28.4855 33.6421
37.4202 28.3113 32.2193
36.1888 28.3348 32.6601
34.6771 27.1878 31.8299
37.2671 28.5099 33.6065
35.942 26.8584 31.8205
37.2335 30.3985 35.3946
37.1508 29.294 33.9435
36.0396 28.5258 33.1991
34.8227 27.7838 33.7208
35.1904 26.6507 31.8193
35.802 27.9494 33.2009
35.3433 26.3806 31.8651
35.2322 27.7946 33.1502
35.28 29.165 35.4636
35.1832 28.5067 34.2412
34.8044 27.8908 34.0929
35.5778 27.654 33.2635
32.9394 27.1919 33.8949
34.3103 28.2786 34.9082
34.7037 28.0757 34.1325
34.4804 27.266 34.121
32.8078 27.2477 33.1422
33.3649 26.553 32.7974
31.842 26.5344 33.4713
33.153 26.577 33.5913
33.4322 28.1173 34.5623
33.5316 27.0706 33.5387
32.3761 27.0666 34.5223
32.3195 27.3822 34.4922
32.9723 26.8236 34.5654
31.809 26.8791 34.1424
32.1229 26.3786 33.8488
31.2729 25.5541 32.9572
32.1924 26.9295 35.23
32.7061 28.1366 36.9299
32.241 27.0998 34.451
31.3332 26.5676 34.9264
32.3768 27.0877 34.7396
32.4738 27.1175 35.7338
33.0636 27.6503 35.3936
31.8461 27.5562 35.8544
30.7495 26.8782 35.8971
30.9836 26.1389 35.217
30.2002 26.7798 35.9019
31.0121 25.7821 33.471
30.4151 26.3011 34.8442
29.6252 25.9743 35.0693
29.5199 25.5882 35.2396
30.6489 26.6041 34.6831
28.5628 24.7988 34.1155
29.788 26.5662 35.7533
28.9187 25.7839 35.2392
28.958 25.9159 35.2867
29.2402 25.4483 35.2024
29.1889 25.5239 35.2599
29.554 26.8967 36.8751
29.3525 25.3639 34.9489
29.8037 25.829 35.6948
28.0225 25.1943 34.778
29.3395 26.0757 35.6748
27.3897 25.0146 35.0972
27.8722 25.0407 35.7991
27.5012 24.909 34.8161
26.7048 24.7391 35.5458
26.8313 24.4791 34.5068
27.8403 24.8992 35.047
27.2932 24.7774 35.3234
27.3729 25.0051 35.401
27.0191 24.7484 35.8869
27.6915 24.844 35.0955
27.0718 24.9532 36.2716
26.583 23.766 34.3117
26.8679 24.714 35.3342
25.4103 24.529 35.5359
26.2891 24.0241 35.0258
26.068 24.6922 36.1286
25.2671 24.9909 36.8004
25.3629 23.5372 35.2202
26.3607 24.0987 35.6242
25.9047 23.8949 36.1256
26.7271 25.029 36.6114
25.6668 23.1458 34.0236
25.0904 23.9438 35.4897
25.1665 24.1036 35.7824
25.1114 23.8896 36.2281
26.2581 24.1222 36.4544
26.3383 23.915 34.6993
24.8454 23.3242 35.744
25.5175 24.6616 37.0644
24.8872 24.0028 36.3671
24.7516 22.7487 34.4356
24.3213 23.0845 35.8437
24.6231 23.2408 36.1049
25.7958 23.5149 35.9619
25.056 23.1614 35.6411
24.6649 22.9941 35.085
24.6848 23.7265 37.2924
23.5138 23.5519 37.1071
24.3138 22.9231 35.3071
24.3285 23.9709 37.2175
24.4614 23.799 37.4242
24.0739 24.6565 38.5125
25.3087 23.9435 37.8128
23.1122 23.5304 37.7956
24.1861 23.4595 36.5636
23.0364 22.7445 35.6576
24.0407 23.8949 38.7227
24.7944 23.4922 37.5637
23.6935 22.6018 36.1502
24.7348 24.0632 38.1633
22.5676 22.9885 37.1288
23.5082 23.5161 38.1952
23.8318 23.7508 38.3139
24.2297 23.748 37.7465
24.1901 24.1313 39.3984
23.0452 21.9692 35.7378
21.9737 22.3121 37.973
23.5498 22.5853 36.5236
22.2084 21.9997 35.5057
22.1568 21.7281 35.7538
22.0465 23.1081 38.0456
21.5704 22.3972 37.643
22.5014 22.4482 37.3728
21.881 21.8902 36.5297
22.7139 22.5601 37.5358
23.0731 23.2632 37.4981
21.2348 21.8044 38.889
23.3532 22.6377 37.0636
23.5924 23.4648 39.0391
20.7432 21.5979 36.5073
21.512 22.2453 37.9454
21.3771 22.4482 38.4162
21.5612 23.1767 38.4176
21.4001 21.8828 37.8553
21.1489 22.3696 38.6721
21.3597 21.4028 36.2854
21.0061 21.8865 37.8336
20.588 22.2656 37.6914
21.2549 21.6817 37.7955
21.0798 21.7189 38.5922
22.1096 22.3093 36.9355
20.4396 21.7277 39.1564
20.7036 21.93 38.0196
20.4637 22.1614 39.0628
20.9406 21.6312 37.5963
20.3539 21.0658 37.9351
20.3408 22.3827 39.4404
19.9182 21.7296 38.8592
20.9731 22.103 38.5923
19.9834 21.8234 39.3083
20.1252 21.2259 37.8726
20.4706 23.0065 39.6346
19.3539 20.1433 37.4378
20.3731 21.5558 37.67
19.8044 21.3887 38.3966
19.327 20.5019 36.5501
19.1547 20.0078 36.1858
19.2074 20.6948 38.3663
19.1153 20.8242 38.9102
19.8087 21.292 37.4336
18.9233 21.1359 39.3327
19.8981 21.6784 38.6395
18.593 19.8796 37.7272
19.4492 21.1921 37.8575
18.2573 19.8711 37.0368
19.647 20.1219 36.5565
18.5565 20.6203 37.4976
19.033 21.2013 39.6787
19.1955 21.0041 38.4922
18.2839 19.7952 37.9687
18.6925 20.4223 37.4955
18.6842 20.4873 38.0367
18.5005 20.6526 37.0199
17.4306 19.7259 38.7644
18.6399 19.9648 38.0225
18.5609 20.155 38.0717
19.0308 20.3427 38.7395
18.0272 20.188 37.8456
18.7377 19.7398 37.1605
17.6307 19.2455 37.0893
17.7159 19.5046 37.5984
18.1093 19.7639 37.2767
16.7042 19.6259 37.7181
17.5296 19.9969 38.4585
17.4126 19.1622 38.1719
18.5707 20.3571 38.7528
17.7902 20.1852 38.4678
17.6493 20.4337 39.8021
17.8062 19.843 38.2085
17.1942 19.4771 37.4027
17.0807 20.0402 39.2332
17.3719 18.9521 36.8594
16.9877 19.9445 39.8125
17.5424 20.2474 40.0379
17.7414 20.3881 39.6543
17.2397 19.8565 40.1445
18.029 19.7952 39.115
16.9172 18.8902 38.1077
17.1 19.2197 37.6706
16.9314 19.137 37.442
17.0437 19.9332 39.6003
16.6085 19.1597 38.1575
16.038 18.7333 38.3087
16.263 18.4613 36.9524
16.2902 19.9647 40.2327
16.7606 19.9492 41.2028
16.3019 19.6359 39.921
16.629 18.2143 36.2577
16.6929 19.3446 40.0289
16.7601 19.0322 39.2243
16.674 18.5992 38.3784
16.5003 19.5119 40.3339
16.9951 19.1352 38.4994
15.9929 18.2333 37.0157
16.2305 18.6748 38.5877
16.6289 19.2731 38.9483
15.3842 17.9476 37.5678
16.0976 18.9195 38.2758
15.7896 19.1041 39.9773
16.3367 19.5585 40.4696
16.6868 18.4346 38.8144
15.9179 19.7247 40.6062
15.4311 18.1904 37.892
15.9388 18.2907 39.5677
15.671 18.4651 38.5784
15.358 18.6466 39.5456
15.1714 18.245 38.2347
15.7741 18.556 39.4092
15.2372 19.0738 40.2
15.9621 19.4897 40.8403
15.1259 18.7182 40.2781
15.3506 17.9715 38.6755
15.1915 17.9003 38.7674
15.0317 17.5284 37.9242
15.4431 19.1525 40.6745
15.5035 17.9218 38.6329
15.9585 19.2786 41.6407
15.1408 18.0206 39.2794
15.4978 18.6756 39.8447
14.325 17.0884 37.9744
15.1615 17.9417 37.4244
14.8562 17.3407 38.1802
13.9992 17.3246 37.6114
14.681 18.1607 39.8651
15.1793 17.4711 38.2299
14.1776 17.7801 38.5308
14.5616 17.6859 38.8045
14.9081 17.7205 38.7988
14.585 18.2377 40.9175
14.6567 17.4779 39.0128
14.5864 17.9389 40.1077
14.9811 17.484 38.1673
15.1914 18.9991 42.0652
14.2221 16.8777 37.7837
14.0819 17.0402 38.9662
14.0004 17.5878 38.438
14.0103 17.4369 39.0377
14.4821 17.0961 38.8353
13.5517 16.9803 38.1517
13.8036 17.6146 40.1569
14.3346 17.0241 38.5416
14.8513 18.1025 39.5968
14.0843 17.0768 39.4187
14.099 17.9459 39.6495
14.0334 17.5442 40.3753
13.6467 17.1548 39.2588
13.762 17.1956 38.6903
13.1723 16.8446 39.6065
13.5623 17.0291 39.3797
13.3418 16.7905 38.8802
13.5208 16.6934 38.532
13.2828 17.7927 40.9634
13.908 16.9305 38.3817
13.9604 17.2397 41.0063
13.9017 16.5895 37.3136
13.536 16.6303 39.0049
13.3717 17.8573 41.6207
14.0689 16.8743 38.842
12.9612 16.3715 39.4229
13.4427 17.5101 40.3445
13.7794 17.202 39.9104
13.5106 16.5122 38.7369
12.8456 16.3814 39.3309
13.7021 16.4507 37.5611
13.2141 16.3012 38.8389
13.1131 15.8451 37.3196
12.7976 16.5221 39.6685
13.3147 16.9051 40.7938
13.7717 17.3091 40.1287
13.5136 16.3854 39.2195
12.6559 16.178 39.4503
13.6729 16.5856 39.4326
13.7156 17.0764 40.2107
12.9761 16.5456 40.7302
13.3489 16.1773 38.8313
13.0485 15.6957 37.3282
11.9747 15.3259 38.7104
12.5818 16.8904 41.129
12.929 16.4785 39.1326
12.8911 16.3807 38.8198
12.719 15.8374 38.9608
12.408 16.1537 40.4379
12.9189 14.9424 36.7466
12.5581 16.1719 39.2953
12.5123 16.3583 39.3958
12.3684 15.6374 37.9838
12.261 16.6469 41.0644
12.6784 15.6488 38.2992
12.3784 16.297 40.049
12.6419 15.6233 38.4065
12.0968 15.3491 38.5828
12.5868 16.1384 38.6762
12.3806 16.0508 40.1879
12.2672 15.85 39.8366
12.8599 15.9719 39.4678
11.9459 16.0727 40.7809
12.0083 15.5891 39.1539
12.1907 15.4771 39.1008
11.7354 15.6748 39.1328
11.8745 15.2011 37.553
11.9057 15.034 38.0056
11.5742 16.0003 42.0017
12.5475 15.9942 39.2025
11.8063 15.9634 41.706
12.4866 15.3656 37.9369
12.3412 15.7104 39.741
11.8481 16.1075 41.6435
12.1147 15.461 38.2948
11.7029 15.836 40.9995
12.2664 15.8789 40.1602
11.0677 14.8404 38.1996
11.876 15.3819 38.3847
11.6237 15.1999 39.3391
11.2272 15.3747 39.8571
11.9003 15.442 40.371
11.8767 15.7094 39.1763
11.0125 14.655 40.3114
12.3912 15.7767 39.3305
11.7683 15.2068 39.8442
11.6664 14.7355 39.3388
11.4996 16.0866 40.2532
11.4631 15.3678 39.4156
11.6935 15.4551 40.551
12.1879 16.3251 40.402
11.3512 15.9426 43.3912
12.1232 16.5503 42.8174
11.8711 15.6838 40.6181
11.4116 14.5212 37.6944
10.8368 14.562 38.5105
11.382 15.4903 39.9715
11.3365 15.0578 39.9
11.2784 15.076 39.9955
11.196 15.1309 40.7762
11.1592 15.1941 39.5114
11.1541 14.7454 39.7621
11.6313 15.7589 40.0399
11.1146 15.0909 40.1878
10.849 14.5161 40.3308
10.9161 14.1515 36.9244
10.5551 14.4632 39.6718
10.8317 14.2626 39.5911
10.6505 14.016 37.0798
10.707 14.6459 40.1309
10.6863 14.7095 39.8388
11.0193 15.1852 40.1363
10.3444 14.3258 40.347
11.2796 15.0639 39.4474
10.627 14.3954 38.4782
11.2778 15.1995 40.5932
11.1785 14.6042 39.4615
10.7022 14.0577 39.1781
10.6781 13.7728 37.0951
10.3347 13.9735 38.6027
10.6113 13.9268 37.0673
10.4204 13.8546 37.9922
10.7019 14.0449 38.6152
10.4674 14.5275 39.0267
10.3807 13.7268 38.8149
10.5163 14.0406 38.7045
10.792 14.3224 38.4941
10.5163 13.9988 38.956
10.3178 13.4784 37.7872
10.2088 13.9078 38.863
10.4483 14.2804 38.276
10.1607 14.0075 39.775
9.88851 14.2027 38.1808
9.61662 13.3526 40.284
10.3113 13.5254 37.4488
10.27 14.6414 40.9252
10.5851 13.9748 39.8456
10.5025 14.0147 37.1842
10.0821 13.3747 37.3436
9.96556 13.8892 40.1201
10.3826 13.5934 38.9556
10.1288 14.4453 40.0298
10.0582 13.8952 37.6678
9.98645 12.8906 36.9168
9.53576 13.0588 37.4941
9.91881 13.9139 40.5552
9.91576 13.544 38.7313
10.137 13.5997 38.7728
9.75688 13.8252 38.821
9.47338 13.1344 38.2104
10.2021 13.5621 38.2322
9.74488 12.9716 38.0043
9.49102 13.1378 37.7739
9.79996 14.0588 40.2954
9.7998 13.3628 38.6514
9.9298 13.2673 38.5864
9.7589 13.2938 36.834
9.4698 13.3417 36.7877
9.35907 12.7091 37.2585
9.55632 14.0309 40.5513
9.76575 13.6156 39.7522
9.68021 12.9871 37.8887
9.67871 13.2338 38.5725
9.98509 13.6014 39.4263
9.51648 13.0841 37.8846
9.43737 13.6443 38.6522
9.36167 12.909 37.462
9.44266 12.8335 37.3245
9.18073 12.1578 36.4037
9.4757 12.9558 37.5215
9.43594 12.7524 37.5155
9.30327 12.9865 38.3413
9.92731 13.8723 39.3084
9.3415 12.9574 37.1615
8.98605 12.8533 38.3032
9.593 13.1482 37.973
9.20403 12.8077 39.8464
9.21034 12.7609 37.1724
8.85392 13.101 37.9013
9.14108 13.0063 39.975
9.3662 13.1542 39.254
9.35406 12.1649 35.4335
8.52818 12.535 37.3241
9.01014 12.5619 37.7624
9.33095 12.9145 37.9333
8.82321 12.5477 38.0971
9.08913 12.6567 38.807
9.31406 12.9586 39.0846
9.31083 12.521 37.7989
9.26697 13.3379 39.1322
8.92684 12.432 37.9998
9.06998 12.5424 38.095
8.93783 12.5472 37.812
9.35733 12.2834 37.6822
9.04984 12.706 38.6552
9.09389 12.9333 38.2339
8.75318 12.7449 37.5915
8.70536 12.2232 38.5116
8.97092 12.9658 39.0878
8.84091 13.2314 38.8485
8.49544 12.1408 36.3462
9.07171 12.9721 38.9735
9.00072 12.3244 39.0568
8.75907 12.1078 37.2944
9.097 12.7687 38.2661
8.88122 12.3786 39.31
9.38859 12.5917 39.8038
8.97879 13.017 38.1202
8.8349 12.1498 38.6377
9.02936 12.3721 38.0516
8.85089 12.7502 38.7546
8.90873 12.2918 37.4896
8.65593 12.6987 38.3702
8.40734 11.9919 38.5778
8.64452 11.6628 35.4843
8.38681 12.33 39.3112
8.52906 12.6502 38.0351
8.39423 12.0906 36.8895
8.52565 12.5569 40.8064
9.30278 12.4162 37.3591
8.60775 12.8054 39.9698
8.49918 11.4173 34.581
8.43704 12.414 38.9945
8.60844 11.5468 36.0748
8.23153 11.9763 38.8448
8.33291 12.3703 37.4281
8.48615 11.345 36.1226
8.14504 11.9007 38.1239
8.63789 12.0557 39.2404
8.75751 12.7 38.9888
9.12394 12.0191 37.2742
8.65093 11.8298 37.2081
8.02411 11.4933 37.3938
9.09639 11.6714 37.3337
8.58503 11.6487 36.2807
8.21692 12.3454 36.9117
7.75239 11.3276 37.8958
8.22453 11.69 37.3906
7.835 11.5296 36.6705
8.3221 11.9165 40.311
8.57667 11.948 36.8239
8.08413 11.1719 34.6318
8.17022 12.1031 38.1088
8.43696 11.6661 38.6687
8.31334 11.694 37.6869
8.22325 12.084 38.1907
7.91233 11.8603 37.7512
8.12214 11.3841 37.3247
8.21858 11.9256 37.8319
8.2501 11.7253 38.4555
8.09344 11.4034 36.9461
8.1109 11.6489 38.4332
8.22954 11.8596 36.6211
7.60034 11.2792 38.1533
8.43121 11.5538 36.2032
7.9712 11.399 38.3258
8.03704 11.5165 36.851
8.33247 11.997 37.4646
7.61523 11.1173 36.3278
8.00252 11.5826 37.9817
8.20006 11.4681 36.9988
7.9782 11.9651 39.8134
8.20067 11.5226 37.1893
8.01267 11.3397 37.2852
7.6003 11.3235 35.963
7.68001 11.6522 38.6269
8.06083 10.8553 37.7689
8.1518 11.5635 37.3866
7.98862 11.1003 35.7437
7.75945 11.38 38.1284
7.9488 11.5997 38.1223
7.99806 11.2467 35.999
7.63751 11.9307 39.1047
7.70887 10.6706 35.5161
7.65138 11.2995 37.4199
7.79732 10.9177 36.4169
7.56789 11.0928 37.6108
7.88553 11.2958 36.4313
7.89852 11.226 36.1591
7.6302 10.7245 36.0733
7.83149 11.3932 38.1903
8.00446 11.3392 38.0708
7.74906 10.6451 34.2993
7.15233 10.942 37.9706
7.78486 11.0803 36.7677
7.57701 11.1064 37.0278
7.77872 10.8685 37.1613
7.9086 10.8404 36.7212
7.83011 11.078 35.7156
7.69244 11.2712 38.7536
7.84848 11.254 35.6833
7.799 10.5693 36.1212
7.41479 10.5026 35.1479
7.45686 10.5964 36.3827
7.459 10.7601 35.2442
7.40709 11.0315 37.657
7.407 11.0462 36.6481
7.35587 10.7712 37.9194
7.81685 10.7751 37.8294
7.69049 11.3214 36.4859
7.73851 10.4583 34.731
7.33278 10.6328 36.5296
7.77769 10.5252 35.9294
7.58072 10.7673 36.6605
7.49799 10.8031 35.5407
7.27596 10.3214 36.7391
7.3044 11.1728 36.7239
7.46298 9.88759 34.9186
7.29972 10.9084 37.7484
7.25255 11.3251 37.3193
7.46738 10.7573 35.8814
7.17704 10.5509 36.3559
7.64472 10.3692 36.8876
7.78213 10.8123 38.0532
7.41452 10.6183 36.1297
7.4351 10.7539 37.5655
7.36178 11.117 36.4246
7.1514 10.742 37.4219
7.50374 11.1063 37.8643
7.16755 10.8532 38.1084
7.51248 10.4126 35.8755
7.03278 10.6007 36.6724
7.42707 10.5918 37.8625
7.33186 11.1077 36.5708
7.10203 10.4695 37.113
7.37662 10.2401 34.5636
7.19901 9.97294 35.4695
7.3874 10.7044 36.9361
7.31136 10.7442 36.894
7.14074 10.7935 37.3633
7.17686 10.4195 37.7283
7.29537 10.3211 35.1543
7.02191 10.6773 35.286
7.269 9.84469 35.5362
6.95365 10.6637 36.3701
7.11181 10.5844 38.8567
7.33303 10.408 36.7415
6.96779 10.4072 35.1883
6.90685 10.0516 35.7817
7.26584 10.3244 35.2484
7.07327 10.2801 36.1586
7.00859 10.5926 35.9468
6.8402 10.3395 36.5419
6.83347 9.72884 37.1319
7.28019 10.5217 35.8458
6.82983 10.3047 35.875
7.17264 10.3993 37.1921
7.28091 10.8123 36.8558
6.70066 9.5744 35.138
7.18485 10.1233 36.1963
7.02944 10.0698 34.7639
6.96719 10.3387 36.7675
7.22631 10.196 35.6276
6.56372 9.92383 36.6134
7.11397 9.97939 35.4691
7.18813 10.1723 34.2068
6.5381 9.88719 36.1764
7.04625 10.248 36.0599
6.89012 10.0909 36.9988
7.04303 10.3666 36.1033
7.03981 10.0167 37.3427
6.99354 10.2731 36.8331
6.94663 9.62628 34.4028
6.90117 10.4569 36.2146
6.55989 10.3467 35.4771
7.11893 10.2558 37.3865
6.81549 9.96256 36.9888
7.05362 10.4182 37.15
7.17538 10.2989 36.8314
6.8151 9.35943 34.5161
6.67791 10.8207 35.9055
6.7846 9.62292 36.0738
6.97571 10.0684 37.2914
7.00318 10.0551 36.3034
6.95037 9.6412 34.4233
6.78389 10.1545 37.733
6.8494 11.1733 37.6469
6.98393 10.0537 39.2709
6.9845 10.7415 36.8018
6.75262 10.2353 38.2371
6.96607 10.5806 38.1978
7.03199 10.5241 37.1285
6.92567 9.98653 37.5617
7.03071 10.1626 35.3919
7.18091 9.8706 36.4444
6.84039 9.79477 36.6413
6.70103 10.3481 36.4192
6.68542 9.75943 34.3444
6.57532 10.0605 36.9129
6.59085 10.1629 36.2812
6.66773 9.78709 35.2053
6.74539 9.46533 34.7281
6.85054 9.70119 34.0638
6.48706 10.0762 36.3261
6.71623 9.80621 36.3697
6.68876 9.28619 35.494
6.98401 9.66272 34.2768
6.5871 9.59417 36.3077
6.70865 9.83904 37.495
6.74604 10.2769 36.2914
7.18491 9.66366 34.286
6.57177 9.40374 34.8028
6.53163 10.0549 35.891
6.58745 10.0944 37.6721
6.80462 9.70048 35.936
6.78689 10.1327 35.488
6.32155 9.3715 34.7428
6.61708 9.5671 34.9641
6.66778 9.89877 37.0906
6.5582 9.19233 34.5289
6.41881 9.627 35.4414
6.63181 9.81529 36.0703
6.50043 9.43382 34.2241
6.8753 9.66949 36.4434
6.35988 9.25197 35.1122
6.47327 9.5124 34.7632
6.54771 9.15723 34.5553
6.3505 9.56629 35.6817
6.5662 9.74296 34.6051
6.32262 9.2898 36.6953
6.88297 9.83541 35.1535
6.55093 9.38997 35.9165
6.3861 9.20402 33.4246
6.20973 9.12898 34.9106
6.35396 9.57037 33.8419
6.49293 9.84915 35.5018
6.42339 9.07531 35.4051
6.56635 10.1477 35.3021
6.44311 9.44319 37.6796
6.52294 9.29974 33.2629
6.25322 9.86413 35.894
6.29856 9.77962 36.3977
6.31676 8.52454 33.3562
6.51639 9.51163 34.6096
6.20769 9.39318 35.03
6.52625 9.09665 34.9201
6.3517 10.033 36.4109
6.45744 9.13961 35.1929
6.22668 9.25884 36.9415
6.45828 9.13898 34.8613
6.32529 9.64884 35.6922
6.24202 9.01684 34.4338
6.17745 9.24297 34.7552
5.99904 8.60788 32.0196
6.26188 8.93378 33.6454
6.34597 8.87302 33.9389
6.16494 9.5841 34.5575
6.26576 9.38847 34.9383
6.23461 9.30826 36.3497
6.25118 9.53519 34.7076
6.40908 9.07333 35.4566
6.49252 9.37754 35.4866
6.525 9.46441 34.9132
6.362 8.86729 34.2978
6.10822 9.42089 34.5681
6.19721 9.09015 32.5759
6.11996 8.96774 34.0991
6.0563 9.32458 35.3194
6.29736 9.57449 34.4955
6.1582 8.41829 35.115
6.32101 8.94806 33.8241
6.53702 9.11186 33.9614
6.09086 9.24209 34.3795
6.11325 8.86668 36.181
6.34107 9.20741 35.395
6.2886 9.59347 35.7511
6.18249 9.48322 36.6383
6.09613 9.60807 35.8558
6.32697 8.98833 33.4578
6.23563 9.09484 35.0441
6.28395 9.02372 33.2953
6.17538 8.72136 35.827
6.28653 9.67322 37.3364
6.29491 9.51038 35.2855
6.37991 9.3599 35.3185
6.24079 9.29362 34.8029
6.29141 9.05174 35.5235
6.17602 8.92348 34.9077
6.41579 9.29552 34.4174
6.12918 9.06072 34.4868
5.94295 9.03704 33.8156
6.46832 8.7402 32.6429
5.94122 8.91222 33.7854
5.84094 9.10911 34.9953
6.4048 8.88498 33.9464
6.07197 8.71225 34.3035
6.4201 9.39479 35.588
6.23929 8.76915 35.043
6.03916 9.02362 33.8839
6.19422 9.06599 33.8137
5.98827 8.69372 34.1637
6.35482 9.08552 34.9202
5.9758 8.42245 33.8448
6.05582 9.51728 36.2626
6.18474 9.51417 34.9338
5.90666 8.31861 33.0075
5.91546 8.75167 34.5836
6.15386 8.8606 33.8617
5.78211 8.67683 35.1061
6.24269 9.09361 34.3861
6.06279 9.05576 35.1787
6.12204 8.92767 34.9753
5.98086 9.06407 34.425
6.07889 8.7038 33.4845
5.96597 9.39299 36.0249
6.12969 8.71883 33.2035
5.87639 8.80349 33.2904
5.96074 8.73634 35.1885
6.20142 8.92983 34.5272
6.06573 8.94477 33.6053
5.94477 8.54877 33.3017
5.99709 8.66169 34.3969
5.98827 8.73361 34.1736
6.04956 9.19261 34.9902
6.21021 8.95688 33.9627
5.70714 8.76979 34.1443
5.81515 8.33405 33.5757
5.81674 8.32665 33.4639
6.16841 8.90526 33.4811
5.95281 8.7961 33.3833
6.09705 8.82842 34.5109
6.09488 8.82517 35.5762
5.78916 8.64471 34.6129
6.00295 8.97928 34.5677
6.16944 9.59915 35.967
6.09075 8.43293 34.3772
5.94835 9.05205 35.333
5.9313 8.11584 33.2562
5.90806 9.0779 33.2902
5.94975 8.7919 33.8459
6.02335 8.71879 34.2135
5.98199 8.90967 32.9314
5.93944 8.61568 33.8782
5.73723 8.3251 33.2876
5.9884 9.03135 35.8577
5.9659 8.65695 33.9812
5.78166 8.20092 31.3807
6.09661 8.64454 34.1423
5.81482 8.45752 33.319
5.95325 8.22082 34.6243
5.92099 8.22708 32.613
5.84882 9.04729 32.8001
5.78056 8.21098 32.867
5.85736 8.83672 34.1538
5.90859 7.86995 32.1169
5.81309 8.4421 32.1669
5.82336 8.2439 34.2733
5.94552 8.42182 33.2864
5.94863 9.15074 35.1988
5.80943 8.96974 34.0178
6.15306 8.24471 33.626
5.72701 8.64602 32.4971
5.70486 8.35902 32.4513
5.98218 8.89723 34.0679
5.92383 8.35868 34.9147
6.03205 9.10946 34.3054
5.79613 8.75054 34.5972
6.15309 8.34111 33.6946
5.83839 8.67697 34.7623
5.91784 8.82916 34.5022
5.7746 9.00677 36.9763
6.08722 8.8762 34.2579
6.08554 8.58882 33.5254
5.83438 8.65906 32.6586
5.4664 8.53148 32.9735
5.78086 8.00798 33.1892
5.72229 8.0661 33.2204
5.81022 8.82643 33.0524
5.78802 8.47668 34.0006
5.72891 8.26643 33.2105
5.60403 8.66642 33.2575
5.72782 8.65146 33.518
5.58639 8.35163 33.7204
5.68929 8.4102 33.9795
6.07855 8.48468 32.4965
5.66707 9.26138 36.5221
5.84903 8.29099 33.1745
5.81679 8.58045 33.2214
5.72147 8.03099 33.4426
5.59083 8.69049 34.571
5.93757 8.80532 33.4034
5.82926 8.08344 33.9711
5.92718 8.91468 35.459
5.71458 8.80423 32.1825
5.74202 8.65836 35.026
5.84334 8.28604 33.3923
5.66646 8.40405 32.8393
5.93013 8.13133 33.5613
5.69842 8.4878 32.5556
5.65597 8.22535 34.2531
5.90393 8.77276 33.6982
5.66609 8.61183 33.8127
5.87744 8.45554 35.2655
5.73405 8.60666 33.0922
5.75674 8.14522 33.1951
5.7323 8.56767 33.9905
5.79645 8.536 34.3187
5.91814 8.95516 33.7626
5.75131 8.33137 32.2842
5.66424 7.71626 32.5588
5.64847 8.32191 31.7855
5.53319 7.99543 33.9041
5.97432 8.37805 32.3882
5.76616 8.7277 32.767
5.80332 8.53065 33.902
5.78989 8.1849 32.7444
5.84455 8.22006 34.0238
5.84793 8.49835 32.2993
5.64984 8.20203 33.5419
5.65388 8.29351 33.3411
5.65876 8.07874 31.4733
5.96402 8.35686 35.111
5.85004 8.55892 31.7689
5.67594 8.38395 35.9758
5.73415 8.92389 33.8874
5.90363 8.22129 32.9842
5.74944 8.34691 33.7192
5.71636 8.41638 34.1399
6.17705 8.53072 34.0583
5.78321 8.7795 34.7918
5.98061 7.97846 31.9801
5.60478 8.40926 32.1463
5.57596 8.15305 34.3369
6.15658 8.41213 32.3341
5.56121 8.20703 31.6742
5.67462 8.95745 35.8731
5.84843 8.35659 34.2365
5.81383 8.28364 32.7513
5.59325 8.36506 33.2028
5.59629 8.28681 32.7989
5.62956 8.49492 33.102
5.91085 8.00074 32.8881
5.66491 7.67823 32.1565
5.40931 8.7177 35.4119
5.92211 9.02027 33.4448
5.7809 8.4077 34.2991
5.78339 8.04472 32.5263
5.64833 8.31103 32.1691
5.78228 8.16199 33.0112
5.61041 8.45804 35.0411
6.00273 8.62836 33.2525
5.75548 8.49967 36.853
5.83855 8.38497 31.4097
5.69751 8.16939 34.1032
5.85008 8.4198 34.7297
5.73204 8.88811 32.9874
5.95565 8.61977 34.7982
5.81307 8.53839 33.8745
5.87422 8.24064 32.3056
5.72406 8.49067 33.21
5.67405 8.22874 33.1392
5.80842 8.30534 33.8723
5.90798 8.84153 34.7755
6.02371 8.59033 34.4071
5.82521 8.90856 34.7431
5.94753 8.24901 33.8582
5.72213 8.49765 32.0576
5.49388 8.35253 33.5062
5.64422 8.30928 34.4227
5.52729 8.61117 32.9501
5.69049 8.79967 35.5506
5.8916 8.32027 34.2204
5.77651 9.33954 37.2699
6.08526 8.39068 32.877
5.6177 8.56372 36.1373
5.8626 9.32015 36.7147
6.03281 8.81108 34.647
5.72835 0 0