# pn-170911/CsIIA-38-USNO-1280-1959.psd
# Power spectrum* (dif=0,1,2) (really just |FT|^2)
# NOTE: only the first half! (symmetric)
# weeks: 1280-1959
# 11 clock-days, 0 excluded
# PSD: 1441
130910 1.34411 0.0304873
2.51538e+06 49.5273 0.0344781
8.94548e+06 181.591 0.0517301
1.27572e+06 70.5609 0.0564974
2.25153e+06 173.862 0.0702097
733071 54.6562 0.0507732
409877 66.5352 0.0799751
304831 47.8358 0.0450297
476291 90.9377 0.0590081
191040 54.7143 0.0824603
155377 40.2348 0.0913653
71749 40.9805 0.0888029
157708 60.3403 0.0778889
108085 57.5369 0.102207
134311 79.6311 0.120536
85663.6 59.6994 0.0978464
50851.3 46.424 0.116989
44947.6 31.7608 0.0461184
53484.2 50.5248 0.103252
60506.7 50.3605 0.0999381
31871.5 45.1648 0.100802
53908.8 89.9232 0.271039
22643.2 50.9081 0.219824
23260.5 34.6261 0.175962
26247 60.0603 0.236254
22787.3 81.6209 0.315165
20558.8 38.7352 0.180369
12141.3 25.8502 0.1076
32407 81.8227 0.339383
15959.2 43.307 0.181874
31771.5 84.3493 0.438811
16144.2 74.3183 0.454943
10455.5 35.6264 0.168335
15348.3 46.4712 0.327444
19943.2 56.3064 0.371774
11912.1 23.8519 0.170105
11739.6 59.8109 0.456055
15366.5 67.484 0.49134
13696.2 48.1307 0.40992
8664.59 37.4036 0.329764
10728.5 50.4317 0.528369
7001.38 45.8147 0.438042
6038.91 35.937 0.254145
9501.05 42.9825 0.310853
11020.7 64.0033 0.635736
6311.79 34.4481 0.392403
6051.66 46.6909 0.425305
6138.58 56.4159 0.676764
7554.87 63.0023 0.857237
6599.94 59.4872 0.670914
6516.94 55.6077 0.686543
4282.62 43.0165 0.623388
7236.01 42.8582 0.507569
9837.25 90.1216 1.13336
3589.27 50.7718 0.859754
5329.44 48.0172 0.787877
6756.12 71.5999 0.933516
5543.26 48.6515 0.802815
4202.55 65.5367 1.08215
3437.94 53.8059 1.10121
7402.35 75.4795 1.39707
5834.42 85.1579 1.53149
2718.94 41.9704 0.705638
3553.06 48.9224 1.02497
3651.01 76.1805 1.6831
4075.07 84.8641 1.81777
3984.31 44.2442 0.883094
2330.06 34.4206 0.803136
3973.86 74.2379 1.56434
4511.06 60.1926 1.43069
3949.66 51.7229 1.18612
2368.19 46.2029 1.20672
2352.86 40.8073 1.00454
4440.86 53.3374 1.44525
4604.39 83.7312 2.1451
3386.11 46.8803 1.4027
3604.45 75.4921 1.92551
2547.32 47.1037 1.20646
2164.24 49.4051 1.44923
3201.81 42.6857 1.22586
3452.29 75.5972 2.40402
2466.8 54.5895 1.76221
2476.18 50.7809 1.58555
3783.38 97.0642 3.00912
1856.07 63.0684 2.11653
2105.51 61.3106 2.10871
2250.08 60.7915 2.1862
1437.76 24.2039 0.949244
2462.31 72.9255 2.69613
987.03 19.0153 0.806634
2628.37 88.4606 3.91676
1640.28 29.9082 1.27617
1900.85 36.7129 1.48918
2257.61 64.7031 2.33614
2043 40.5259 1.7675
1509.99 46.0985 2.17477
2756.41 90.0212 3.67437
1590.77 33.8154 1.45308
1634.2 39.4645 1.88514
1833.74 38.5589 1.73817
2062 69.1644 3.05145
1723.4 45.9208 2.1715
1122.22 24.8258 1.19742
1909.69 59.6738 3.1611
2380.07 66.337 3.31298
1502.85 36.9619 2.03719
1241.83 57.7226 3.02033
1584.35 39.9288 2.42932
1310.09 63.025 3.71676
1688.82 71.9085 4.35376
1493.12 73.0948 4.32535
1222.97 47.3977 2.88292
1081.9 70.9679 3.92524
757.207 22.4112 1.35649
1526.16 58.5461 3.75351
1682.57 52.0984 3.20531
1207.83 48.4869 3.27777
2322.14 99.5706 6.09035
625.203 60.6345 4.12699
1190.39 54.7364 3.33226
1448.16 56.2086 3.4118
1478.6 56.9442 4.17419
441.923 31.1412 2.3604
896.222 40.4935 2.87481
1017.94 53.7346 3.93234
579.055 27.4976 2.16229
872.288 44.5704 3.39991
1028.56 76.0948 5.59894
812.648 48.5699 3.51178
1339.48 58.738 4.58896
1155.08 86.0907 6.9231
783.498 35.4642 2.81808
1114.32 37.809 3.32355
1083.57 75.2477 5.66243
1348.85 63.528 5.76167
706.979 40.3795 3.67379
749.192 36.1044 3.07382
831.765 35.7464 2.962
543.594 27.706 2.79369
678.138 49.0167 4.35125
988.992 38.2048 3.69509
1022.28 64.7936 6.16402
685.484 47.7851 4.43235
735.858 68.9485 7.0008
942.742 71.6106 6.35241
806.669 51.9521 5.34999
757.728 32.0808 2.93469
573.012 46.6121 4.76616
730.487 40.5832 3.90139
836.608 80.9423 8.22724
486.8 38.1326 4.11731
584.398 68.2331 7.47419
833.887 44.8462 4.70686
511.703 67.9597 7.53417
1031.56 93.4195 10.7322
680.584 51.1612 5.50303
639.598 45.8711 5.47607
457.808 45.427 5.73014
929.417 40.1129 4.15701
867.833 63.613 7.93818
816.699 64.566 7.97342
732.945 77.2511 9.52221
828.669 57.9307 6.6954
589.261 59.3467 7.74483
561.247 41.8548 5.27981
895.228 54.2504 6.36457
569.893 43.2665 5.89562
456.079 41.1676 5.04726
437.27 45.7561 6.32247
383.109 30.9216 3.97319
869.123 58.8118 7.84611
774.539 55.5585 8.02986
656.756 47.9923 6.44162
573.851 38.9484 6.47668
309.417 27.2581 3.78362
626.547 56.95 9.08755
506.378 47.8568 6.24189
488.132 51.2787 6.85419
572.967 63.3397 8.99233
529.601 65.1284 9.15665
578.467 55.8704 7.83756
644.002 76.9515 12.0014
520.426 56.1413 9.04883
713.808 54.3253 7.81567
412.646 44.6693 7.14875
371.9 51.917 8.32047
409.605 29.3614 4.94231
1019.64 88.6572 15.4925
584.876 60.9719 10.4746
440.645 50.4697 9.6054
807.445 58.9334 9.45343
287.69 32.6762 6.49136
561.014 45.1452 8.04854
409.965 48.5525 10.2047
626.227 74.21 11.4068
406.559 67.4463 12.6738
630.983 70.7198 11.7863
356.716 41.2867 7.21991
337.898 40.5529 7.35321
351.079 42.6689 8.24286
547.76 63.3104 11.3056
388.085 72.3091 15.2181
398.314 56.3683 9.94757
323.229 44.8411 8.46434
435.487 53.0414 10.6668
345.028 56.9419 10.966
397.671 47.2176 9.67436
442.05 49.973 10.4472
524.312 83.4714 16.1459
470.367 39.6914 7.51741
295.524 36.8449 7.24183
415.61 51.3217 10.702
293.236 44.924 9.20807
183.541 38.6766 8.62006
440.47 56.4101 11.9946
366.596 50.0195 11.0416
459.131 40.7485 9.05718
270.603 32.2265 7.01257
724.894 99.9386 22.3678
204.791 40.7048 9.58117
362.412 47.5156 10.6206
381.337 70.5539 16.3732
251.161 53.4396 12.664
370.168 39.7516 8.44029
399.452 61.4752 14.1754
328.972 64.7984 14.6253
348.422 34.4577 8.13488
343.305 50.761 11.3248
253.054 42.1593 10.6835
161.183 34.0135 9.23865
302.072 43.9468 10.0236
322.127 45.8252 11.8585
271.811 43.2288 10.4791
127.182 59.0844 15.4154
255.574 41.8425 11.0426
436.76 63.0406 15.4995
274.931 53.4784 14.9048
372.008 33.8225 7.8501
393.326 72.5977 19.1342
271.106 40.7881 10.7098
148.772 21.4761 6.531
234.573 36.4201 8.90061
173.355 50.3256 15.0831
256.375 58.3018 15.8833
344.318 53.1532 15.2524
375.925 56.0198 15.5175
342.023 61.842 18.3359
348.186 48.8346 13.218
316.541 52.647 14.7207
313.398 37.754 9.3088
165.433 35.5554 9.82847
358.96 68.3703 21.7982
240.92 54.0727 16.2746
238.095 30.6141 7.57177
360.743 83.2439 25.1041
226.419 38.4645 13.595
305.758 58.3733 18.8605
243.354 45.0913 13.8554
241.094 55.1162 15.2937
125.212 42.7552 12.743
249.305 36.3721 11.9477
186.128 53.1586 15.2185
143.201 50.0061 16.3254
267.887 67.7637 23.0492
126.824 33.0625 11.3925
225.955 56.2382 17.0492
256.478 40.2116 12.0742
419.088 79.3067 26.4569
350.572 100.724 33.3769
376.926 79.009 26.755
248.06 74.1681 23.3928
221.629 44.8609 16.3942
268.573 53.057 18.3435
223.904 72.0091 24.343
216.672 40.8668 14.6758
201.162 61.4342 20.2086
203.229 54.3257 22.4056
147.608 28.8312 10.1696
238.055 58.3386 19.9938
363.709 82.891 28.7971
166.677 40.6742 15.4242
175.176 40.3437 17.705
261.453 79.5579 25.6532
159.946 36.6961 14.383
188.755 46.402 18.7494
274.757 44.3544 15.5415
166.104 42.0656 20.129
254.3 56.2788 19.3133
189.948 29.0101 10.0428
139.409 34.7492 15.1248
139.316 47.4734 20.6069
291.249 58.1909 20.89
217.534 40.1996 15.8695
180.48 45.6169 18.8931
201.342 35.5023 12.306
247.102 61.987 25.0051
158.835 34.9189 15.1608
194.29 40.7886 16.6582
190.132 53.1016 20.9719
175.167 36.6835 16.1349
133.734 25.1802 10.3765
195.646 42.4456 17.0727
310.399 71.2696 27.4123
173.537 45.3153 18.5286
216.629 51.6208 22.7875
233.425 66.7293 26.5944
151.199 38.0554 16.9918
160.354 49.5836 20.6237
194.15 45.3982 19.2895
87.9744 20.6916 11.3385
123.28 29.8696 13.1152
125.977 32.1306 14.9844
182.72 42.3943 20.0969
101.948 26.8286 11.0141
200.174 57.3603 27.6773
219.613 55.7925 25.5071
145.541 30.2778 13.1153
102.033 24.2654 11.2241
139.404 28.0542 14.055
147.27 29.7264 10.6065
175.52 45.0659 23.0692
153.961 32.869 19.4356
135.145 40.4232 17.8646
125.515 43.3132 20.6654
115.412 46.9178 19.5998
197.472 48.5768 22.1017
192.908 50.513 22.9959
132.922 40.6404 19.936
99.3159 40.5068 20.2737
167.13 50.659 23.0799
153.6 39.8628 20.4057
79.5949 38.6078 20.0726
129.897 47.7596 24.3083
129.604 37.2751 21.8442
206.231 53.3431 24.0356
173.177 49.4338 29.0401
108.219 44.9175 25.3109
208.183 58.8708 25.1039
87.3454 12.3342 6.73647
102.847 41.5228 21.1213
145.593 32.8704 19.8126
119.989 32.2804 19.4623
138.318 31.3 16.2448
165.057 40.382 19.3594
112.591 40.0871 18.9743
154.615 58.0031 34.3249
136.974 31.3594 16.3378
139.686 36.3066 17.4792
135.435 34.9809 17.9891
163.703 45.3039 25.4612
138.386 44.2268 24.8163
132.813 37.9592 20.2643
77.8177 26.6781 19.8018
164.18 40.3372 20.4769
65.5621 35.0469 16.7252
98.4604 63.9175 39.5326
95.2544 39.4615 22.162
143.495 37.7522 21.6244
89.1108 32.1098 17.8262
142.793 57.6232 31.1809
119.856 55.1451 31.9473
128.084 28.484 17.5752
132.739 43.0618 20.5061
144.751 45.025 26.3356
121.913 49.0598 31.2635
81.0244 25.1711 15.4543
124.271 32.5029 22.613
72.8899 44.1884 29.8659
123.186 43.9059 22.9692
105.328 41.4786 24.2753
84.1135 41.8649 27.1321
137.296 23.8731 14.6678
65.203 31.5179 20.4474
112.601 25.5148 13.4864
89.8138 62.7416 39.5038
126.649 37.091 23.6503
165.097 41.5278 28.4476
131.078 44.3859 23.1778
89.5107 30.0776 19.2253
155.016 82.2649 52.6904
85.3498 52.1551 36.2585
77.0301 50.2067 38.7831
127.307 36.7277 19.9275
140.037 44.3016 27.3367
104.963 48.9317 33.7052
141.33 52.8967 29.3343
83.5286 37.1642 27.4487
126.421 42.127 27.8642
127.451 39.7402 28.1084
175.326 65.4284 43.3905
126.624 52.5407 38.7058
87.678 47.3296 33.5245
117.748 58.0828 41.9072
104.332 38.353 21.2681
86.2793 32.615 25.5852
88.565 33.3192 20.2622
87.6363 29.4548 24.5987
162.048 57.5337 36.5972
86.0292 34.0182 26.8621
114.574 40.9386 23.8107
92.8942 44.9247 30.3435
99.1307 37.3804 32.4951
128.9 58.0103 41.9409
106.594 46.9218 34.4721
104.442 29.869 20.5287
128.206 54.7819 40.0399
117.001 48.6442 35.7232
80.3375 33.4257 22.2634
114.713 49.5728 38.5197
124.577 61.2701 45.1632
70.605 28.2256 19.1004
145.272 67.4782 48.4267
81.8025 20.7769 17.5757
134.84 49.3747 39.923
92.3966 35.2789 23.7573
72.2918 35.9768 29.1248
113.222 51.6315 40.1831
76.2038 29.7816 24.9845
62.2183 26.7976 19.0312
44.2808 24.4977 18.1097
112.186 59.5062 46.2921
76.7794 40.5978 34.3837
54.8692 30.2381 25.0351
95.9901 32.2887 25.4726
93.4949 43.5731 32.1616
99.9973 41.5189 34.1373
91.4103 28.6565 23.5247
113.099 59.9296 50.1432
80.2068 33.4505 27.2831
145.251 74.9502 67.3436
109.57 45.0376 26.8253
99.6388 36.4995 31.8536
64.748 26.215 21.1703
51.0413 13.3563 11.932
66.0125 27.6729 23.7634
87.575 49.5058 40.5158
91.9324 49.8924 40.3748
108.316 27.5407 22.5339
106.555 48.2327 43.8216
53.7512 28.8757 27.3941
89.1689 35.9591 28.2337
72.4451 45.4623 41.7719
88.6721 34.7987 27.962
70.8353 29.7585 24.7939
70.1766 34.3875 31.4513
45.9071 31.5428 28.9819
90.0992 31.3858 23.4272
153.014 72.9653 65.5093
65.5558 27.8697 23.1923
105.778 41.2997 39.9209
66.6362 30.6589 22.4068
77.6159 44.0407 40.1788
45.8515 24.0192 23.1377
39.3911 27.1942 25.4558
59.4794 37.9161 29.6446
42.3047 35.3802 34.3608
61.1564 36.6198 29.4289
74.7529 30.9038 27.2975
66.3566 18.5709 16.7446
52.8068 21.1267 15.3317
64.7761 32.7903 33.0387
79.2217 50.0074 47.4778
60.4248 37.5952 39.5616
73.8722 29.2443 27.5393
51.9459 29.2515 28.9034
39.6093 22.3173 25.4304
98.6395 40.1608 35.8967
63.2833 36.4345 34.9623
68.3771 52.5028 49.2467
54.6125 33.8029 37.9099
50.1448 17.6675 11.324
53.5877 35.3309 30.333
86.2062 51.4025 50.1277
94.5751 42.4636 39.5523
58.2485 37.9451 33.3127
43.9754 36.571 44.0386
84.2575 48.2246 50.348
66.1517 31.8768 25.0913
41.3611 27.6721 25.7409
47.1841 19.2785 22.6043
50.3393 16.883 15.9756
41.5786 43.2553 39.8912
66.0175 38.5019 42.8045
72.2458 30.885 34.247
39.2823 26.1379 24.4236
62.4613 29.6493 33.0125
83.7167 52.3454 54.4829
87.1041 48.9181 46.0566
74.6973 33.0037 34.9246
69.935 52.9134 45.3221
49.2371 47.9325 51.7753
44.5126 31.5116 38.0531
72.5219 24.1088 26.2749
71.8889 32.9548 38.259
68.9278 35.6675 35.6486
48.695 23.3973 21.3665
51.1949 27.2317 27.1984
58.9405 38.5468 42.688
72.8094 44.9822 48.0531
47.6445 31.193 36.226
52.7275 20.9685 17.9529
61.6509 28.7547 36.5754
56.8804 24.8514 25.6934
51.2346 24.4882 30.1979
48.2647 37.5436 39.5353
25.2732 22.138 26.1202
50.5707 27.492 27.1995
46.5518 40.4813 47.2598
57.3046 31.6914 38.3719
38.484 59.7623 68.512
66.7529 41.2491 35.2014
45.0005 41.5982 52.3571
48.7578 43.2067 49.4893
57.0189 31.2628 29.2619
54.1865 43.3271 47.445
24.1786 30.5652 35.6735
31.6929 22.4654 35.4614
44.4814 20.0596 27.4485
79.614 40.404 47.6457
53.1884 38.4093 40.5531
45.705 16.2559 15.2902
44.5744 21.3598 22.8261
42.7876 32.2359 35.7154
44.15 28.429 31.1476
58.8074 32.5831 36.9681
55.5402 36.5168 47.8512
56.4834 18.2859 20.132
35.512 32.0717 46.3979
64.0748 26.9691 28.5878
57.3837 22.1908 24.0659
78.6268 38.9068 46.0444
73.9666 30.2055 35.6422
64.4733 28.362 32.1415
45.4672 23.6425 26.0288
32.8847 14.2757 23.0576
53.2651 22.9896 25.1211
53.2639 34.8415 44.5567
62.8131 28.2206 33.1689
56.5572 30.3981 35.8877
48.2266 28.9957 35.2544
56.7794 35.4722 42.1849
33.2515 34.5684 38.2921
47.9055 32.8007 48.6732
56.0193 33.7036 41.8856
52.6842 38.6246 56.0703
62.8344 29.935 32.6322
61.4389 31.5353 40.22
55.5261 32.9715 38.5745
34.2919 23.9405 36.6949
60.0857 24.2197 25.0237
56.0137 40.6976 49.2601
38.2634 30.1949 40.9359
38.864 38.3054 49.2181
48.4272 32.9953 44.7065
55.1141 26.0833 25.0291
45.5199 33.6954 51.596
52.7401 33.288 44.1182
33.5548 43.7721 51.9436
44.3298 18.4837 20.1802
40.1355 33.5977 51.3202
54.4881 22.3841 27.6548
40.134 24.6705 34.5843
53.455 36.322 51.5661
37.2762 24.313 31.0115
37.2037 22.9288 25.4255
34.8312 32.9887 52.4066
53.2377 35.459 50.5763
26.9244 23.1868 24.5702
52.9211 31.0258 41.2209
35.7681 20.405 25.3038
41.4226 24.5514 28.3282
40.4139 30.8975 54.7792
47.5209 31.0506 29.4342
37.1476 35.5708 56.9313
44.3576 20.0489 37.158
35.8652 22.0081 30.3239
24.3634 22.2145 38.5698
54.8467 53.4544 64.6863
46.4398 21.3245 31.5997
67.311 47.0039 51.9445
53.334 25.2283 35.5585
42.136 30.59 39.3926
42.4081 32.8629 39.017
47.3429 26.5841 49.7448
51.5301 36.0685 61.2709
41.9418 35.6824 36.6484
55.0788 48.4723 68.3645
75.1851 36.8259 48.8312
31.7519 28.0626 43.0537
43.0727 36.7925 45.9225
46.3656 42.9677 57.7352
38.0729 22.0552 44.2544
37.6041 24.2534 30.5774
51.7021 26.8261 48.6578
38.5805 39.681 50.5631
46.5849 42.0139 66.3192
41.0575 38.7687 61.0393
37.0065 28.3709 35.2013
30.9327 34.1605 55.0743
36.5113 26.4962 31.6527
33.4858 16.1996 20.4379
44.2725 20.2835 47.1607
27.9248 30.2781 30.5287
48.3744 24.8683 40.0456
40.1462 26.5667 45.5961
49.5434 38.3807 50.6168
48.3794 30.6805 47.7932
40.1681 30.5503 38.6081
33.0306 34.7698 56.8931
46.9346 41.4817 59.0202
51.7002 29.5006 35.6263
44.5618 41.4624 64.0443
21.4811 11.0697 19.7496
43.9045 12.2612 18.1579
26.4313 25.1962 44.8852
39.7044 15.9442 23.7235
40.088 20.5612 34.5677
45.5585 20.4954 28.8406
55.5037 38.9077 54.3213
24.0345 22.4819 36.782
44.92 28.3373 38.7001
22.0221 21.8535 41.2458
37.9111 22.1375 38.7187
26.2118 13.5799 19.2332
32.0835 29.9913 46.6783
33.47 16.2025 19.2424
37.4325 20.5049 38.8265
25.0052 18.6452 40.4904
48.3442 32.9585 43.6301
30.0946 18.2617 29.7665
29.8911 41.6419 47.9604
30.5014 30.5704 58.1057
33.7819 22.9989 30.0098
23.5017 17.3128 39.7963
23.4674 42.4943 74.8626
65.4157 35.8556 51.9517
36.8678 18.5088 37.6347
41.2147 22.9814 37.8901
31.0183 19.2756 30.7907
37.9 19.605 33.4651
40.2023 21.5249 31.8733
30.8803 21.9758 35.825
37.4879 13.6619 24.6407
38.7826 17.0492 23.5792
27.2106 18.6377 38.5336
39.8781 25.902 48.027
47.8275 44.5836 63.6306
43.0725 19.4766 40.6282
36.8286 26.8875 38.5504
22.9453 20.1796 46.6187
36.7579 25.0327 42.3113
40.6985 26.2164 33.577
43.9711 29.8229 67.139
32.3469 23.9166 33.9214
25.2511 21.2541 30.9518
29.1094 10.7873 19.7148
38.5258 25.8444 47.5615
36.1331 31.8468 52.3664
31.7531 19.9385 37.7386
21.6005 28.3701 45.4018
30.8538 21.1965 38.8801
29.9447 19.035 31.9072
28.6093 19.3448 44.0062
39.6959 17.9952 35.6503
42.4831 30.6388 43.2831
49.0403 37.2953 63.4672
32.9046 15.0547 33.8352
25.896 15.7012 25.0395
20.8507 9.71063 22.3678
32.7205 18.5726 32.9573
25.7282 15.147 23.9821
38.31 20.3166 33.7663
29.792 26.5001 56.4952
39.5479 27.9812 42.1786
39.5003 18.9717 30.3856
26.0332 23.3615 44.7042
21.0067 19.0938 31.7613
33.2705 21.5991 45.3876
32.4316 28.4626 43.5939
24.2693 13.9668 31.2911
24.2439 14.2323 26.2053
28.1594 23.5746 37.3092
42.7821 25.8123 47.603
13.9427 17.9547 45.6813
30.1469 36.6401 46.9261
33.1473 14.2824 29.7299
31.0937 18.3247 35.8483
24.9022 36.0289 54.7309
28.4074 17.6451 43.779
31.4443 27.5627 41.0172
16.4184 20.9193 46.9732
26.2247 24.374 45.5358
37.6177 13.3732 20.9773
26.4701 23.0727 43.9323
26.9645 19.0955 39.7521
37.1833 24.9144 41.0417
18.1858 12.5496 28.8783
20.031 22.9557 44.9018
35.9486 23.1586 45.2761
22.6037 17.5171 36.2708
31.3074 12.8257 22.4982
25.1913 24.6362 40.8139
27.5745 18.7974 38.8218
31.2615 29.5717 65.3045
27.8019 25.3526 44.4718
37.7756 18.6914 35.691
13.3858 15.5272 32.137
22.8332 18.8241 41.9986
36.6273 24.6555 37.8029
22.5367 24.6543 47.9323
16.2311 15.0497 32.9716
27.9288 22.4929 42.3423
18.2613 16.9844 39.0506
33.0284 23.8964 46.9138
30.4838 21.0048 42.3957
29.0149 12.6979 29.4208
36.9646 24.6918 51.0117
23.3267 13.5332 30.1598
25.8877 8.92773 24.4674
39.7176 22.9195 37.6009
29.4108 21.6141 29.9174
19.5605 13.4794 27.3748
23.8136 11.2683 25.137
25.8524 19.0543 30.9846
18.8512 18.284 56.4389
34.0294 36.084 63.0965
35.616 23.2657 48.2652
21.3348 20.0174 28.9689
31.8809 19.5096 40.884
16.7822 12.3491 25.5578
30.6905 27.3381 50.3045
25.742 14.285 25.1033
18.8876 14.762 47.1922
27.8487 19.6376 29.9044
20.257 10.492 18.7062
21.3426 25.6208 61.8234
27.9666 20.6487 43.3002
35.7675 23.7937 34.2398
24.8242 15.093 38.0522
16.2681 21.8989 56.1466
34.4153 22.1936 36.3361
29.5238 24.2448 59.6274
24.6902 16.7184 35.1809
26.492 16.5103 30.8395
26.1992 17.4959 34.3187
21.1848 21.1474 61.8232
38.1072 26.4821 58.2195
25.6829 26.9789 49.4535
25.5115 21.9851 51.223
25.6451 27.6497 47.7512
25.9104 17.619 48.283
23.4905 26.0025 59.5083
33.4033 20.9823 32.5463
32.1025 17.0607 48.4462
37.4017 27.6697 39.8156
18.9032 20.0854 64.4878
39.2177 26.4934 35.8143
14.0231 15.5213 48.5907
40.4158 36.0017 63.9411
21.0575 12.9614 35.4724
23.8015 29.1225 70.3182
40.1741 21.9772 35.6303
30.0781 24.4839 58.0176
28.1919 22.0231 46.7258
29.4066 15.4013 31.0207
19.1771 14.5765 37.5606
31.6219 23.8284 67.4878
29.8234 17.0595 34.4414
32.5541 18.8528 34.975
20.84 20.6727 43.0723
24.85 24.4861 59.7047
29.7356 17.2517 30.3227
19.4079 15.2322 41.8117
24.666 15.4786 34.3193
21.721 12.6594 25.9505
18.6942 27.9447 66.1192
21.0246 16.4555 50.0901
42.6753 29.9785 46.3463
27.4774 27.1334 69.4875
26.3331 30.8077 77.4839
28.2433 26.1263 49.8257
18.8275 18.2516 32.5561
29.3719 35.174 86.8858
36.7365 19.9255 43.6716
19.4022 14.7989 40.6557
21.5185 16.8319 35.9262
16.2159 18.1429 51.4446
24.2845 16.8282 41.5094
30.6095 26.5345 62.7819
38.0152 27.4815 53.5241
20.0877 16.7639 36.5492
20.209 11.8142 34.7004
27.0112 22.8248 52.1691
17.6184 15.3351 25.4601
29.0333 27.917 52.7926
20.9136 16.7095 33.1492
24.547 27.5112 80.5188
28.9642 24.0766 53.6196
26.1171 16.4282 26.0608
26.0033 13.3487 31.876
16.7687 10.3393 41.887
27.3674 15.9566 28.7963
20.0832 20.4761 44.6999
19.8285 20.9976 46.4735
20.1976 22.4922 52.5528
27.8552 22.6792 59.3518
23.9643 21.2528 42.7254
21.6637 18.587 51.993
35.1938 24.3114 50.281
23.1368 17.599 40.6275
27.0939 9.78934 27.8999
22.4572 23.627 61.9717
50.8546 34.7671 59.38
21.157 17.0028 55.7213
23.3133 17.4089 35.2371
21.2196 16.0087 45.7306
19.3656 9.90961 23.2801
28.6052 17.9011 39.2762
14.3267 11.7356 34.4216
22.3253 22.6118 45.0104
25.3785 28.5725 90.9175
27.1721 21.0967 46.6362
29.7459 17.01 32.055
22.7358 20.158 47.8912
23.0183 16.858 42.3188
21.414 10.9421 31.8732
16.1246 14.4192 39.2472
32.6486 27.6703 56.7109
18.303 20.6183 46.2584
24.7186 14.2117 39.6131
30.8803 19.3928 52.69
25.3159 26.2635 55.9635
20.702 15.7873 32.7582
17.321 16.5465 43.3851
19.5934 10.8169 40.6216
22.8965 19.0594 45.3812
16.3213 25.7688 53.1408
25.092 17.7423 47.8136
18.3386 14.7374 32.7428
14.3322 20.8975 53.6958
25.9809 6.91289 23.7638
25.7688 29.0768 72.547
23.4852 12.7361 27.4447
15.3986 22.0269 55.7106
13.2411 13.6651 41.677
21.9453 15.6154 45.2931
27.7686 12.518 30.8402
30.9375 12.8849 38.6124
16.8414 15.856 29.6217
20.8297 13.3737 41.292
20.6955 16.6586 36.0426
17.1929 12.8836 42.3862
21.0687 13.3986 36.1089
23.8439 14.2472 27.213
17.7724 26.716 63.3898
22.4588 25.6675 63.5078
31.6204 29.6721 71.9449
17.5082 10.2153 32.4628
25.7288 13.5845 38.9386
24.4992 26.6098 73.6046
25.9214 29.8263 62.3858
23.6337 10.6084 32.9586
20.4259 15.8571 57.2613
30.8688 7.41635 19.1401
18.1407 14.106 41.5892
18.6506 10.2604 34.8155
27.6653 16.0925 31.4383
19.5613 13.0202 36.4308
30.498 14.9382 31.21
28.0871 25.6904 72.1287
21.2265 12.694 40.1511
27.9598 11.7393 34.895
30.0899 29.858 74.0291
30.1868 21.113 52.1133
15.9005 16.3626 34.3688
25.8481 6.29717 11.8626
20.7329 16.6477 41.2902
18.4594 10.5193 36.1732
20.5123 15.1477 33.6219
10.4433 21.3063 70.2364
25.4992 12.8072 31.4777
23.3086 11.6143 35.9408
23.0436 9.64426 25.2628
14.5192 23.62 57.0351
30.5019 12.6403 43.1449
24.6891 19.2295 49.0071
24.9448 15.9073 44.3028
18.2334 16.6407 45.6308
33.4831 26.0705 50.4151
25.0126 14.6526 52.3876
17.8723 24.7321 58.9871
22.0096 17.158 45.4168
21.5376 8.34721 23.6059
22.8619 14.2191 54.54
21.8909 15.607 37.9878
30.5073 19.6058 37.3092
31.779 29.6577 85.1537
28.1189 24.8962 92.9828
28.7995 9.57241 27.9735
16.022 11.2403 39.7628
20.2401 21.4053 36.2439
24.2023 13.3945 58.6286
25.0367 19.7228 49.2809
29.2117 20.5435 51.6099
16.5731 13.8885 32.936
22.0675 25.2762 60.6346
19.7388 10.1325 35.4051
15.0498 19.884 60.3067
21.9365 18.3976 57.9242
27.7336 8.56605 29.32
28.6859 17.6164 40.5653
17.0118 13.691 41.8641
18.9809 13.6509 26.9201
25.9968 14.9266 59.926
27.6178 19.9932 43.1377
26.1274 14.9356 44.149
19.5657 7.79769 17.6056
9.98435 16.0033 46.7369
24.2796 8.94817 25.4475
23.4196 14.2724 35.268
15.926 10.656 36.1014
21.9509 8.86951 20.886
22.6978 16.3527 52.7813
34.5987 19.813 53.2982
18.3784 14.4885 29.2474
16.6468 16.2798 52.9903
24.1696 11.7936 31.2649
17.366 6.64709 24.5507
17.8873 14.8058 39.5995
18.8986 15.0647 52.9021
21.0718 15.9922 41.209
22.9893 7.87157 25.0787
17.4882 12.2624 32.1183
17.1677 17.7512 48.0113
20.4349 15.51 60.0662
26.2268 17.419 39.2598
19.0325 9.70247 55.9065
28.397 13.294 21.0422
19.3637 9.32881 34.7556
28.366 15.7388 35.318
20.5503 10.4755 35.5788
26.2596 17.0731 33.6027
16.9469 14.1161 44.255
14.2285 8.28719 27.7509
16.6496 14.5143 33.395
23.4619 13.4992 52.9806
21.569 8.943 33.8111
18.9021 10.1587 34.7911
21.8626 42.0205 93.1756
29.9728 17.5413 60.2461
19.7586 11.4004 52.733
22.6806 19.472 50.774
22.2367 5.66225 19.4317
15.111 15.6771 36.085
16.1314 12.6839 41.3207
19.3036 7.01262 20.963
20.5126 11.6109 40.7207
20.7263 16.1932 38.3272
22.0282 17.5393 56.4011
16.7972 18.8226 36.9111
21.3188 17.1908 60.5843
17.9416 14.1135 24.1616
19.0197 8.18887 21.9386
17.2745 12.2875 35.5212
22.4948 10.2305 42.0678
19.0406 8.50412 35.0283
15.9852 19.7866 67.2808
16.121 18.3586 37.8041
21.9879 13.353 53.7368
23.2345 19.0801 72.6216
21.5125 18.7067 27.9532
19.5489 25.2207 81.769
21.5651 13.4231 45.4053
23.0644 6.80326 28.9529
24.1431 17.1124 52.5693
26.9923 9.53651 25.2859
17.323 9.27559 32.9872
14.2083 10.9692 36.3054
16.1084 10.1409 37.3386
23.1067 15.7806 44.3811
20.8801 16.4692 36.4517
16.037 9.48826 33.7325
14.3285 17.7033 46.074
19.4121 9.13808 26.8779
18.6982 7.08986 36.845
27.4683 16.5907 42.5437
26.8031 16.2864 49.4734
25.8016 17.9406 55.7774
27.4666 14.5726 38.907
17.7024 9.46832 54.6685
31.57 13.6822 27.7142
17.7525 10.9847 31.7786
21.4391 12.8052 36.9422
20.7868 9.48863 40.044
22.0076 14.395 40.0917
20.5948 7.9232 23.539
19.0767 12.4736 29.4679
19.2404 8.80456 32.8595
18.446 7.73478 29.2627
14.0362 10.4619 39.0121
22.4809 18.0461 44.795
19.9278 5.14986 16.6588
19.5928 10.4679 39.6737
20.9208 10.6198 28.5747
16.5972 7.20768 18.6863
19.565 10.2583 55.4532
22.8735 19.754 30.1885
19.4108 9.75168 44.8525
15.2936 15.5618 30.8659
19.2162 13.0449 49.6239
16.6264 10.3606 38.1387
21.7851 17.1899 60.0188
30.566 14.2903 44.7257
15.5177 9.0021 42.1669
14.6267 12.2999 30.9846
21.5335 9.12055 50.9312
20.611 17.8096 33.6607
20.9774 16.6778 73.2751
27.4158 17.6594 46.9865
21.3707 20.2834 49.2335
16.3176 13.7172 61.5518
15.1835 8.71467 31.8985
15.0167 17.2043 34.1496
23.4756 10.1939 39.8235
18.7749 12.8727 26.5801
14.2631 10.83 30.9554
15.9391 10.6779 32.7358
16.9235 12.074 39.5717
15.8819 13.768 60.5442
19.6238 16.5748 55.344
16.1961 7.05199 18.3427
15.2405 12.9334 45.9403
15.3442 12.7404 47.152
26.7097 12.7418 33.8831
19.1318 10.5282 31.2395
22.85 11.8056 44.0063
23.4559 24.4946 71.3529
15.9558 9.45669 41.9481
25.1342 19.3125 65.2766
17.1577 17.0006 46.1231
25.4872 15.9615 46.1316
18.3691 10.0759 35.1786
19.8591 11.9797 39.3443
17.4252 12.885 35.9229
22.9893 9.84488 40.8541
16.71 11.8802 34.1582
21.8542 9.83461 26.2855
16.7475 7.09935 31.6657
24.5911 20.2454 62.1265
20.9978 13.8086 44.9856
24.5671 17.7309 41.2963
17.7554 8.68024 45.5166
16.7708 11.1938 45.6662
15.2997 14.4895 41.9391
16.6355 16.4546 52.2466
15.2492 12.196 41.7394
19.7101 11.2416 33.889
13.7649 10.5425 42.0724
18.1265 13.3657 37.3719
15.1043 12.3612 54.8426
20.614 12.0297 25.8242
20.788 7.71512 30.8486
20.544 11.0934 45.5055
15.632 14.4804 43.9636
19.008 10.1605 28.5619
12.9385 10.9664 30.4192
17.1512 11.4144 41.833
14.5636 9.33377 36.8253
19.5272 10.9371 38.6039
12.2092 5.73291 24.5352
17.7109 6.87995 32.7609
14.5815 11.0183 28.7038
22.5133 10.1219 41.349
18.3183 13.2698 41.6003
14.7678 19.8839 74.2204
17.1786 16.8676 40.3404
16.0061 5.94471 23.4067
19.5571 5.9242 26.6017
15.5047 11.7171 50.2636
11.1321 18.2272 42.8271
20.2913 7.67684 27.8024
16.299 7.59909 39.7387
19.5124 18.4359 36.803
19.0546 7.34441 25.8019
18.6067 8.48456 44.3501
12.6094 11.291 35.689
22.9553 10.5687 37.553
25.8006 13.7612 31.9916
14.4466 7.05965 33.6093
18.5622 18.4285 63.1858
14.936 14.2557 46.6954
13.1971 10.0676 29.5035
18.2226 15.9282 49.3591
13.061 7.74905 33.3264
18.3176 7.87095 31.0068
18.7745 13.7649 41.7058
18.14 5.63093 29.7248
16.4488 7.75138 29.9898
13.6696 8.94045 22.3095
14.2288 8.08926 26.7491
17.2666 9.72201 35.829
17.12 8.85585 24.7844
14.7824 6.78372 40.4304
13.9294 9.13904 35.4143
18.1894 10.4224 24.5273
17.5136 9.1281 35.8728
16.5803 12.0318 60.4888
15.7234 13.2735 42.0833
11.2337 10.3336 26.5819
18.2576 11.1734 54.5095
14.2307 19.4172 55.9819
19.7036 16.5885 47.439
17.6292 10.6279 44.6278
18.981 7.728 25.5917
16.6622 12.0736 41.7724
14.0717 8.78467 25.9308
12.7681 12.9381 45.319
13.3147 9.18546 35.8493
14.4768 12.8448 35.6291
15.4119 6.36834 31.0344
19.4248 9.02356 28.0327
14.1222 9.5307 31.9769
14.6273 11.8602 33.8773
15.8164 7.23504 34.3087
17.4362 14.3067 50.035
13.3001 9.8995 36.142
17.7932 13.2491 43.8907
16.4956 5.93351 27.5544
15.3788 12.274 32.4383
15.4037 10.4955 49.2185
17.218 6.95706 15.6317
18.3606 6.48225 22.9602
19.4843 10.5636 43.1462
12.5969 14.0115 58.2485
18.7138 14.6604 54.6775
13.2512 12.4824 27.6202
15.8663 7.96615 46.7773
16.2783 8.09135 16.7919
17.6928 7.78824 33.2058
15.4737 9.09168 30.9956
12.638 10.4424 25.2952
14.1366 13.4078 62.2307
21.1833 8.96915 36.4963
17.944 12.8721 32.178
16.3407 9.85699 39.0999
10.6165 8.89887 32.0682
13.0895 10.3095 44.769
19.3814 9.07179 32.8867
14.9111 11.8007 33.0906
17.757 3.67398 17.2412
15.2697 10.8394 39.6321
12.5259 7.4286 17.409
12.2885 7.85554 30.4498
11.8454 16.5139 63.106
17.3707 10.7862 35.509
12.9372 10.2019 52.5244
14.9488 13.2926 43.3055
18.4758 7.91194 25.2173
11.9615 8.13773 35.4269
18.8578 12.2439 50.5452
11.1549 11.7833 34.8262
12.8383 9.84933 25.2881
14.9989 8.41764 29.0738
12.3055 16.4303 75.6246
17.987 7.32668 26.8972
18.6277 8.99075 28.7073
16.8498 9.40608 39.6427
20.7903 10.2879 31.4293
15.2589 11.3211 37.1684
13.4809 11.8031 61.5357
15.6355 18.026 39.2866
18.5912 7.55009 30.2919
16.8306 9.52598 45.6667
22.1968 11.5704 47.5201
14.2292 8.07629 37.8837
17.6438 11.7743 47.1164
16.6111 19.4001 49.2178
10.4981 10.0139 35.8144
15.8396 4.70466 34.453
13.7592 15.3641 59.3731
12.8845 11.2876 28.6137
13.0386 8.87488 37.3983
13.43 10.6659 29.4407
12.1647 17.5072 69.7316
18.7655 13.5359 38.898
16.0235 7.54834 35.3102
16.1837 9.81178 43.0016
17.9915 9.3612 38.56
12.878 13.1161 40.5981
12.2069 11.6306 39.4595
15.0476 6.4705 25.047
14.237 7.06511 22.418
16.9101 10.2978 57.1839
18.0676 12.4744 25.4629
12.6525 10.4205 40.55
10.7701 7.75768 37.1529
15.521 13.7282 40.2423
18.0475 8.4418 30.6451
15.8098 8.93644 25.8422
14.9367 8.08048 43.9927
11.9982 13.0198 48.5437
13.7316 11.3686 50.3394
12.353 15.0623 41.0044
11.8678 7.24339 16.9442
11.9608 8.64101 40.3102
12.4974 9.93976 35.5616
12.7772 10.8499 49.0545
18.9988 13.5364 38.532
9.25161 5.36933 25.3653
11.6211 9.24329 33.2171
14.0559 7.19089 34.0094
11.3538 9.67968 34.1614
12.7423 7.05872 25.2891
13.2956 14.0195 56.6823
10.9618 7.2283 27.7649
15.3367 6.69914 27.0613
11.0837 10.0478 24.6114
12.8219 4.65536 22.703
12.8223 8.74726 32.9827
12.8868 9.02773 29.6541
10.9782 17.9594 71.6116
16.4133 9.83923 47.9435
15.3519 16.0399 45.9552
9.51298 6.87183 21.6458
12.6869 7.35519 28.9219
13.8733 7.58113 40.0294
15.4055 14.718 38.3807
14.1751 7.75879 38.6788
13.2633 9.38247 38.3773
12.5346 8.68097 31.6319
16.6729 8.95977 24.072
17.1027 10.9056 54.1496
12.6875 8.32563 44.5976
18.1217 16.0636 38.3443
13.5613 8.22531 42.6072
13.4201 7.11083 26.7618
9.98002 9.11558 33.3047
8.93629 11.6584 43.9094
15.1996 7.32009 18.9206
12.7813 5.35892 27.9744
14.227 6.46092 20.2225
12.7487 7.40937 30.0205
8.00027 8.79566 23.7159
13.7201 6.90467 34.543
13.325 11.9624 54.6451
12.6604 11.9245 35.9709
11.7148 9.4795 42.9048
13.6555 7.92015 20.9707
11.0471 7.8231 29.2765
13.5439 11.5116 56.7551
18.591 15.5878 47.8003
15.9348 14.7161 70.8406
15.9311 7.88028 25.7597
14.044 4.65402 32.3603
12.2305 5.89666 32.9225
16.03 12.9265 25.0031
11.8863 6.94834 24.6236
13.5364 8.32373 30.1282
13.7847 9.71788 31.6182
11.5086 7.10336 37.7964
15.8849 8.91414 29.1928
9.06095 8.48097 27.4686
6.75112 10.9825 55.2223
13.5199 11.3658 40.2499
13.0943 6.70247 25.5354
13.8605 11.1987 25.1593
12.3882 4.60294 31.3843
12.2018 6.17205 39.1804
13.0939 10.0296 31.3986
7.61232 11.7727 43.7186
10.6927 7.8732 23.4525
8.1703 7.62995 36.4648
11.1771 7.46714 22.8146
8.84836 6.38013 15.6418
7.50723 7.67433 30.5859
11.4326 5.73377 35.786
12.8103 15.7652 49.8445
11.9435 4.11089 24.9941
12.0228 7.589 31.8518
9.14673 12.2473 28.7553
7.70324 5.80467 41.1847
11.1144 9.88292 37.6153
12.8502 14.3207 59.5419
12.5892 14.3262 42.7335
12.6857 9.93906 26.121
10.542 4.40334 24.3299
10.6539 7.73629 25.4103
9.29108 5.85334 36.0576
14.204 13.3367 36.3887
10.5084 9.29898 44.4998
10.8218 10.5987 63.707
13.9333 11.8553 36.7745
12.8619 10.0255 27.0135
8.58896 7.4867 42.4772
15.4937 8.80734 26.3258
8.34974 8.28063 29.9954
8.55075 9.09792 44.5147
12.9721 12.1148 37.2942
8.67014 5.72157 37.4688
15.2476 11.4583 38.8145
12.6065 9.85131 34.6494
10.7225 4.50291 22.4921
10.8533 9.6746 39.545
16.1217 10.1629 34.8528
11.2585 9.90361 47.9255
12.0267 9.05846 18.5662
10.7951 6.28649 31.3796
12.6787 7.79392 25.8527
10.3262 8.99826 42.8478
14.3878 6.14305 46.6396
11.463 19.9225 54.9016
11.5382 9.0542 24.7263
12.8659 4.1081 25.5156
9.71017 8.60502 17.8382
9.50613 4.49394 33.3857
9.84966 7.13465 35.8125
8.18569 6.38557 50.7917
8.711 13.622 50.6611
14.2286 14.3953 35.196
12.117 11.8894 29.9452
14.8698 8.99591 31.9355
14.2696 7.56656 30.3485
13.0096 8.89983 33.9931
8.28092 5.79991 23.2997
8.62111 6.6134 23.0257
10.9131 5.94549 29.8153
10.9183 8.04118 50.0288
17.9499 7.69371 30.9334
10.5405 12.7407 34.4086
11.8103 10.7869 38.182
12.0237 8.14592 37.2411
11.2519 13.1716 47.6671
14.9251 9.03865 40.959
12.7917 8.55257 26.549
12.6189 8.4405 51.3672
11.2319 14.2883 42.2578
8.62523 7.71592 26.3089
12.8575 10.41 27.8993
10.7932 6.97431 32.9096
14.8032 8.83919 35.0072
5.47202 4.42985 15.497
6.75946 6.12918 29.9275
11.6029 7.83358 28.5881
13.0043 3.56944 18.528
10.7273 5.34595 26.5359
10.4523 7.24133 23.4389
9.32932 8.6358 35.5989
12.3921 7.70863 51.4677
15.2829 15.2844 25.7617
9.10641 12.1443 51.106
10.9663 5.41182 27.7546
10.6643 11.8262 40.4488
14.4327 9.23618 23.8762
9.07459 4.38234 43.9918
10.956 10.1197 26.4511
10.0267 8.231 26.6424
10.2162 10.5174 49.9452
13.0585 13.8318 48.8407
8.79603 6.64992 30.5424
14.9011 13.3696 63.8564
14.0861 11.1015 55.9733
10.0544 10.0195 21.297
9.12908 10.1036 21.0267
11.2387 7.95593 35.2249
9.30253 9.87353 49.7376
13.8672 8.6986 68.9373
13.2684 10.5026 33.7599
10.0856 10.8265 34.6619
10.7555 10.2805 22.0688
8.49553 12.6948 41.7712
12.1717 6.27442 35.1259
5.96688 9.29742 42.2276
11.7475 13.9313 65.0496
13.1281 6.34509 23.1493
9.13302 11.8379 62.9932
10.4604 5.20684 17.644
9.61175 6.54674 21.8036
8.60136 6.72273 21.5153
10.3681 5.73256 39.8756
10.4574 11.5747 33.156
11.5687 4.21177 52.9467
14.6261 17.5786 32.5015
11.4511 10.3689 28.9367
9.33985 5.26101 20.3894
11.6191 5.65526 29.8748
9.37032 14.1082 64.5571
14.8254 10.6061 47.0743
13.2567 9.91015 24.7055
8.69427 9.73778 29.8682
7.60135 5.89815 26.9127
9.05392 9.035 54.2448
11.0648 7.11764 46.0087
8.15138 17.801 49.3037
14.1617 9.48636 44.066
10.9825 13.8476 71.1966
12.3092 18.4105 46.5198
11.7802 9.17545 32.2115
10.3609 7.25879 22.4205
11.9535 4.86646 43.2345
9.86776 9.82083 22.7758
11.588 8.74864 44.2496
9.8169 8.37204 16.8993
6.686 5.0249 39.1816
11.8056 10.5779 18.9175
9.94896 11.2444 47.8707
12.8545 6.95803 29.2869
10.8948 7.41891 35.1402
11.2404 5.34864 20.1536
13.4005 12.1217 41.1645
8.06694 10.3356 57.2652
12.502 8.46935 26.1342
10.9727 8.31533 23.8075
10.4483 11.5369 57.8717
13.7755 10.0766 48.513
12.6163 9.9165 33.2459
12.5803 15.2106 43.1323
8.81211 10.7392 55.072
11.7446 9.51712 33.3253
10.8584 8.14566 36.2907
11.1599 4.18113 22.1414
9.52975 7.13907 29.6073
10.3711 6.07016 28.6137
9.90073 7.96783 19.4336
11.2049 5.15399 43.1725
13.5711 8.28895 23.686
9.22075 7.25038 36.3332
12.5574 10.5398 31.8764
8.7948 9.51525 29.7293
10.6612 8.41312 19.5924
12.7203 8.30313 33.3684
9.22323 7.52582 52.8503
12.7903 7.23124 24.9208
12.0452 7.2633 27.9609
13.2897 9.23036 35.1283
8.78944 7.462 20.1135
8.123 9.09968 35.4554
8.42886 6.58947 39.5088
10.181 14.151 39.2366
9.08259 7.2874 38.9403
14.393 6.55885 31.0103
6.81723 0 0