# pn-170911/CsIIA-35-CsIIA-1280-1959.psd
# Power spectrum* (dif=0,1,2) (really just |FT|^2)
# NOTE: only the first half! (symmetric)
# weeks: 1280-1959
# 327 clock-days, 89 excluded
# PSD: 1441
35940.8 1.22309 0.041445
3.86079e+06 66.053 0.0248977
1.50436e+07 311.482 0.0304308
2.83316e+06 107.258 0.0287606
2.3083e+06 158.842 0.0363565
1.2081e+06 117.832 0.0388145
888131 119.882 0.0432085
601763 112.709 0.0495802
475016 126.807 0.0646296
374354 116.932 0.0697653
288820 109.781 0.0775831
265545 123.336 0.0897644
194507 108.834 0.0975052
172222 113.97 0.117408
144860 110.596 0.126966
138492 115.685 0.143774
118194 116.76 0.171091
101000 102.023 0.16306
87649.6 107.83 0.185542
81276.1 110.895 0.211226
78619.2 115.196 0.243227
66322.9 114.073 0.26195
61586.5 119.72 0.30064
56248.9 115.485 0.318068
47479.8 105.042 0.309265
45489.2 105.398 0.337549
48721.9 118.451 0.403584
43312.4 116.826 0.427285
35424.9 103.973 0.412918
38334.5 119.1 0.497882
35555.4 123.378 0.559967
31260.9 116.035 0.558991
27196.3 110.763 0.558059
26853.5 116.724 0.625133
26600.2 115.29 0.63687
23872.2 115.014 0.692992
19572.1 96.8461 0.613044
21084.2 104.307 0.680269
19565.3 111.23 0.782498
19420.8 114.036 0.849725
18894.6 121.247 0.960409
17309.1 110.622 0.904559
16868.4 109.243 0.950291
17668 123.095 1.10394
15991.9 112.633 1.04267
15670.8 122.077 1.18017
13753.3 112.346 1.13957
13107.1 110.84 1.19807
13223 114.545 1.27157
11918.8 105.37 1.2347
11595.2 113.308 1.37563
10044.3 100.777 1.25974
9805.86 102.052 1.34832
10811.9 110.61 1.49441
10070.3 121.338 1.69903
9395.79 106.742 1.5814
8941.19 107.943 1.62913
9499.55 121.493 1.89023
8249.47 101.013 1.6441
7912.96 106.988 1.79962
7968.06 100.21 1.74398
7112.61 105.319 1.9048
7357.03 105.886 1.96713
6954.74 101.255 1.9396
6769.74 107.68 2.11569
6649.25 109.053 2.27177
6399.56 106.933 2.25214
6222.09 100.406 2.1481
5864.19 94.4191 2.08949
5819.84 106.495 2.38525
5688.06 104.219 2.44442
5532.15 108.987 2.66941
5609.57 105.087 2.59667
5753.86 113.266 2.87629
5328.3 113.435 2.99153
5113.81 104.172 2.78327
5008.06 114.154 3.15559
4578.28 104.122 2.94905
4435.7 102.236 2.97793
4458.22 107.073 3.19553
4512.99 106.42 3.24781
4432.84 115.356 3.62604
4200.89 109.047 3.48323
3918.18 99.5846 3.26806
4214.26 107.619 3.59378
3651.85 99.1073 3.40662
3320.86 98.7078 3.49118
3960.25 106.697 3.84301
3499.17 106.994 4.00395
3468.55 111.588 4.1899
3185.41 94.4862 3.64577
3321.36 107.366 4.21915
3313.15 100.191 4.01336
3048.78 99.4868 4.09645
2897.93 93.0463 3.89972
2997.4 102.191 4.39618
2960.09 105.398 4.6204
3274.43 114.9 5.11636
2734.62 100.883 4.57714
2625.73 95.7464 4.46351
2897.38 107.894 5.15602
2664.77 104.536 5.12411
2696.52 105.266 5.14932
2584.91 96.6602 4.83361
2925.88 107.651 5.52802
2282.15 98.9113 5.20646
2344.08 101.826 5.40889
2190.46 93.0372 5.10179
2215.91 97.6853 5.41437
2185.21 99.8825 5.61737
2041.22 96.9748 5.60879
2396.75 104.848 6.16847
2112.71 97.6182 5.85913
2128.12 99.3598 6.07029
2055.64 96.7788 5.96429
1933.7 101.142 6.34619
2033.59 95.8229 6.06593
2097.62 101.1 6.4988
2071.56 101.828 6.7496
1831.32 95.0299 6.40966
1904.49 103.578 7.09442
1909.93 101.45 6.97852
1824.83 98.9437 6.94501
1723.54 97.1171 7.02845
1752.14 97.9858 7.15504
1744.54 101.504 7.56286
1649.28 94.6096 7.08354
1765.63 108.144 8.30232
1637.7 95.0782 7.49993
1556.41 92.2777 7.25106
1593.22 100.573 7.97626
1606.43 100.579 8.17518
1579.59 100.41 8.22079
1503.78 93.1989 7.74951
1401.57 94.5287 8.05361
1372.66 94.9359 8.28841
1469.68 98.1052 8.59227
1417.07 96.0327 8.54603
1381.67 94.0738 8.45697
1360.74 91.319 8.41701
1266.51 81.885 7.6043
1214.48 93.9369 8.82375
1314.1 94.8643 8.96903
1266.86 94.8595 9.17157
1186.81 87.6157 8.70286
1269.49 98.8341 9.81064
1154.64 84.4661 8.53453
1071.12 88.4538 9.10197
1151.73 87.1358 8.97395
1119.58 90.8683 9.48875
1211.56 94.5901 10.0756
1117.07 92.1477 9.91325
1197.91 106.75 11.6133
1063.31 85.5721 9.49726
1116.45 95.2132 10.5135
1035.89 91.4743 10.51
1032.91 92.9876 10.5191
961.048 86.9253 10.3392
1067.53 99.2494 11.5873
992.84 90.6292 10.8744
993.465 90.7621 11.0764
879.847 85.6484 10.5023
839.921 76.6129 9.60155
861.836 82.5041 10.2229
890.711 88.5095 11.2217
920.644 92.2326 11.9029
908.051 87.0436 11.1928
866.807 86.3512 11.4603
948.978 99.2093 12.9386
842.072 93.0606 12.4511
835.467 90.6628 12.4404
810.952 90.7288 12.6588
867.972 88.8707 12.3716
820.565 85.3523 11.8164
807.606 86.8225 12.4232
820.334 88.9575 12.7934
871.242 92.5018 13.6197
821.44 95.1967 13.8831
776.108 83.781 12.4522
782.407 89.4942 13.5196
839.703 93.2198 14.2579
671.77 81.2971 12.5731
786.793 91.8443 14.2465
736.148 76.3255 12.0186
703.339 85.4888 13.5446
731.795 88.7303 14.4732
743.876 91.1504 14.8002
631.868 77.4081 12.8914
703.154 82.5773 13.519
707.798 87.0321 14.6451
645.548 72.1345 12.357
651.094 80.3929 13.6788
599.43 77.2965 13.408
683.38 85.3722 14.8388
642.063 87.4371 15.493
653.917 90.0181 15.958
606.746 79.962 14.4266
619.319 86.1155 15.8039
612.134 84.0262 15.0456
643.277 83.1569 15.3537
574.002 81.5411 15.4597
607.126 86.9118 16.4509
577.534 85.5311 16.1506
576.603 79.8888 15.5749
534.245 79.7971 15.6309
545.286 76.4336 15.2454
516.979 75.3399 15.245
487.03 73.8968 14.7765
524.531 76.4317 15.6436
531.619 79.5711 16.0148
528.173 80.4677 16.6655
534.051 79.8414 16.4032
521.791 82.7725 17.6563
502.408 80.9553 17.3149
531.558 82.4615 17.6173
497.117 75.8789 16.3747
442.587 76.0772 16.8404
488.826 79.5356 17.2529
523.941 87.8441 20.0828
505.033 84.2259 18.4148
434.596 80.1308 18.015
412.011 75.5008 17.4551
445.386 78.5157 18.4423
478.706 84.5147 19.4411
434.891 75.1432 17.6136
436.987 69.3703 16.4347
445.2 78.2679 18.628
457.624 80.7303 19.3048
423.569 72.6234 17.96
448.177 82.2985 19.9167
398.759 71.2479 17.6493
386.322 70.0257 17.3126
428.386 79.0168 19.9081
378.225 73.3816 18.3512
386.377 73.5833 18.8077
409.575 76.6124 19.9384
393.522 76.9225 20.195
395.206 73.5655 18.9741
377.269 69.914 18.5077
376.746 72.8617 19.3853
387.525 73.1469 19.2771
359.854 68.6728 18.7874
399.124 74.1991 20.4517
382.322 71.5554 19.7293
385.03 74.7699 20.3459
337.258 68.2875 19.3156
382.703 81.9046 22.7918
310.854 71.157 20.663
372.673 78.83 22.373
335.529 72.5722 20.9269
324.928 63.1365 18.1541
362.564 74.6538 21.8874
345.029 70.4323 20.922
353.885 73.5728 22.1183
306.476 66.055 19.7868
328.849 70.0506 21.1127
348.533 67.4904 20.4249
310.147 61.2882 18.4623
369.217 79.8922 24.7017
305.329 68.9339 21.7564
317.103 75.0001 23.5232
324.95 73.7573 22.7455
328.999 76.6748 24.492
324.011 72.968 24.0673
291.754 64.4861 20.5129
326.606 77.0231 24.5412
292.87 68.5702 22.5545
297.552 70.89 23.6712
321.126 69.5713 23.2963
309.475 72.2528 24.1691
268.915 62.4914 21.5047
280.617 69.0358 23.3095
278.52 66.504 22.4083
269.777 64.9608 22.3058
258.606 62.134 21.7784
271.966 68.068 23.7091
276.166 68.715 24.76
260.448 63.9714 22.3916
269.562 66.4059 23.5096
260.479 64.6889 24.2117
251.528 66.5047 23.7044
254.311 63.7081 23.2322
245.31 61.9393 22.4798
263.575 66.3636 24.5408
255.014 66.0176 24.4749
237.108 66.4487 24.8596
245.372 67.5353 25.7934
245.06 63.9599 24.4546
244.656 64.8078 24.6353
242.302 64.9112 24.5474
234.673 64.5804 25.1342
228.837 59.6886 23.4943
217.504 57.6537 22.9696
223.824 63.3805 25.0751
251.101 71.3706 29.1738
216.819 59.8079 23.2524
243.461 66.9977 27.0779
229.081 65.3479 26.5657
235.352 64.7499 26.3152
230.804 64.2086 26.677
213.931 62.236 25.2672
222.751 62.0176 25.9714
217.763 59.1519 24.5553
212.296 64.2565 26.4888
219.959 63.0348 26.7343
213.178 61.1672 26.663
186.646 56.0211 23.8208
191.42 56.8147 24.7092
198.567 57.6039 25.2399
199.751 59.2506 25.3847
192.822 58.4143 25.9662
193.55 61.7364 27.2302
193.002 59.6513 26.9982
191.374 56.3322 25.2999
189.144 54.754 24.867
181.495 55.909 24.4556
206.924 67.5008 30.6846
178.52 55.9563 25.5591
212.872 63.8741 29.5174
189.313 61.3937 28.3263
182.081 61.804 29.1085
185.52 56.082 27.3868
181.523 56.5507 25.4133
179.012 60.2048 29.2509
175.283 56.3098 26.9055
176.247 53.4048 25.5938
176.799 61.1404 30.0355
186.08 61.5234 30.02
186.752 57.8419 28.4044
164.162 57.1155 28.6004
183.489 56.9462 27.7632
175.99 59.1583 29.0007
171.038 57.001 28.8337
167.011 55.0882 27.8928
175.221 54.7055 28.0638
177.393 62.8055 31.2434
148.127 51.9395 26.9177
169.274 60.4878 31.5382
153.65 53.6946 28.6704
163.723 57.6194 29.6095
154.457 55.3947 29.0207
153.029 54.302 28.9539
151.227 54.7759 28.3751
140.613 52.0977 27.949
147.724 54.287 29.3966
154.236 51.3463 27.5834
153.806 51.925 28.263
147.345 60.1266 33.2869
144.171 47.3302 25.7777
142.025 50.3043 28.1794
169.582 58.4655 32.0337
152.966 54.2435 29.8994
140.652 53.7057 30.7475
161.759 59.4978 32.9927
149.192 53.8172 30.2294
141.553 57.0776 34.2294
139.754 52.2363 29.99
141.179 54.7281 30.987
137.834 54.2973 31.8466
141.534 53.3494 30.6298
137.159 58.4329 34.678
126.399 47.6133 28.5112
128.307 51.1228 29.8094
128.186 47.9167 29.695
146.919 54.6216 32.0484
140.913 55.9739 33.5533
134.593 53.7211 32.2438
130.648 51.4397 30.4833
140.157 53.3159 32.4527
129.852 50.2734 30.1937
131.396 51.6882 32.0827
129.183 47.3647 29.1888
121.526 50.3689 31.6463
114.186 51.146 32.685
138.969 51.4798 31.8286
123.28 46.8712 29.7993
121.724 47.5812 30.0911
126.199 51.6495 32.7628
112.303 48.8234 31.6319
115.562 44.8887 29.4625
115.927 48.1155 30.9364
117.086 50.2158 33.1746
122.363 49.6656 31.746
108.808 45.8246 30.2729
112.387 46.7735 31.5906
117.828 55.2587 35.1858
107.614 47.1034 31.5571
117.252 53.7417 35.9177
106.354 45.9128 31.9048
123.402 53.7439 36.4506
108.664 45.628 30.7605
110.372 48.5031 33.9042
111.616 43.9555 30.7021
111.681 45.3839 31.5736
115.913 53.7105 37.1613
108.567 49.0354 33.8953
103.996 47.5442 33.329
101.596 46.0033 33.0093
102.188 43.7239 29.954
101.72 46.8628 33.8395
101.011 41.4546 30.4762
112.661 42.6674 29.1686
102.165 47.9711 34.9555
100.677 42.0912 29.7998
110.569 46.2095 33.2043
109.447 50.1001 36.028
92.865 43.5287 32.6376
103.039 45.9559 33.5711
98.2147 47.3126 35.6836
98.4106 42.8276 32.1715
104.236 49.5917 36.1728
95.5749 45.1893 34.9078
101.1 43.4698 31.535
96.4907 43.2814 32.33
94.9622 41.6277 31.6094
95.8724 43.7585 34.2846
91.0074 42.6998 34.4223
87.4294 42.0484 31.9361
97.811 44.4863 33.943
93.6488 45.3449 36.5439
92.2843 42.9824 33.0538
90.076 41.8781 33.8491
90.356 46.6456 35.2864
81.9104 40.6201 31.8775
87.987 42.8358 33.4476
82.5107 40.3749 33.5239
93.218 45.443 36.4881
94.1279 47.2248 37.4326
84.6988 43.7684 36.2572
79.8445 42.7459 35.0192
93.528 44.3502 35.7186
80.5174 44.6581 37.9671
85.8675 43.2253 34.4665
86.7536 44.2796 36.7743
83.9274 44.2293 37.3616
91.8842 46.0066 37.586
89.0689 39.5827 33.9054
77.0555 41.07 34.014
71.4346 37.6799 31.9417
80.6174 40.3072 34.9151
75.6902 38.5112 33.2233
85.0632 41.1066 34.6496
85.4554 40.9246 34.0842
86.8982 45.066 38.7661
76.3392 41.4883 35.6665
70.4072 36.405 32.8514
77.1224 42.5547 37.1521
76.7322 37.7563 33.5985
76.5288 37.8438 33.8358
75.5901 40.9143 35.8246
73.9618 38.2996 33.0569
72.39 38.3957 35.1113
77.1254 40.3015 36.3903
81.7429 42.5069 37.3769
75.6996 38.5296 34.4272
71.4021 35.9504 32.6274
69.0113 36.6683 33.2187
75.3126 42.3113 39.5288
75.475 41.3283 37.4676
77.5337 40.2372 35.9234
67.4511 38.2721 35.5983
72.8828 36.6847 34.3665
71.7158 41.4058 38.8975
69.5558 39.9504 37.401
74.9691 41.7105 38.2023
68.2352 39.691 37.8811
74.4314 38.4065 36.589
74.6871 40.9506 38.5527
70.2497 39.2399 37.1229
72.3062 39.3314 38.9538
74.7477 40.1326 39.0593
71.5393 41.0792 38.334
63.1326 36.9883 36.1555
66.7121 38.2269 37.2616
65.7617 35.6924 34.6392
59.0405 34.3834 33.4912
63.4852 38.1625 38.1458
64.2407 34.6081 34.8137
66.6211 38.6417 38.9119
67.9912 37.1979 37.4538
71.5886 42.7766 41.3313
65.57 38.2416 38.3494
64.5769 37.9315 38.6935
67.8653 39.3471 39.0072
59.7437 36.201 35.9649
60.223 33.1224 34.19
60.0817 33.9481 35.8139
61.3163 36.2617 37.4101
57.9711 34.7189 35.2541
57.886 32.1261 33.4425
60.8001 34.8837 37.1437
61.5201 33.752 35.3867
66.7775 36.4834 37.4971
60.3485 37.0554 39.1708
60.5567 33.7609 35.0327
55.2118 30.5036 31.7322
53.8277 33.4032 34.9539
58.9139 33.9992 37.0508
60.7593 36.7349 38.2079
57.5467 34.8275 37.212
55.1635 36.3879 40.0552
59.6609 35.4576 36.3161
58.1252 37.7348 43.3965
55.5499 31.8348 35.8427
58.3535 31.717 32.2982
54.0504 32.4855 35.1345
60.0209 34.7757 38.3075
58.0016 37.4294 41.3181
57.584 34.2494 38.7353
56.8328 33.0786 36.9319
56.3426 34.6636 38.5729
55.4008 31.5962 35.5894
56.6552 34.1511 37.4208
53.975 33.1205 37.8836
61.9039 38.5155 41.9522
50.1202 33.3713 38.0076
56.0011 33.5904 38.6087
53.4706 32.3155 36.5206
47.3532 28.4847 34.4595
53.6956 32.2376 35.7849
50.1386 34.3388 41.6408
52.6813 30.8511 35.6897
53.6149 36.2875 41.8419
55.8967 34.6952 39.978
51.042 29.334 34.7485
52.9783 34.5615 39.9642
49.3254 29.6598 37.7023
49.5915 31.829 34.249
49.2035 32.9532 39.5015
50.1749 31.0627 37.0872
47.7629 33.381 39.0055
50.0389 29.2509 32.635
47.7948 29.2598 35.3992
44.5893 29.34 37.9907
48.5585 32.0555 38.2179
50.9267 29.5732 34.5753
47.6071 31.4011 39.9798
49.0077 30.5832 37.9665
49.5819 32.0601 39.0166
50.0506 31.5787 38.2395
44.5417 27.801 34.8657
43.5467 28.5573 34.2795
42.153 27.3322 34.5886
47.7118 30.8875 39.6893
51.6351 32.7346 39.7631
46.3371 31.5586 39.5729
45.7686 31.0418 40.9075
48.9492 29.9987 37.0687
46.3743 30.347 39.3849
45.4828 31.0553 39.5544
48.5714 32.0587 39.4154
45.5695 28.7151 37.0765
44.4109 29.1455 37.5217
48.0258 31.7008 39.3848
41.4634 27.1195 37.13
42.6525 33.3023 41.5861
44.2449 30.1426 40.3207
47.5966 29.1029 36.961
46.8894 29.4823 37.2175
45.0896 29.6498 38.5866
42.4576 27.9018 36.9414
45.7758 29.6564 38.4792
43.5092 28.863 39.3403
44.0749 30.2697 40.2733
43.7367 30.4732 39.4886
40.047 27.7151 37.3755
41.1721 27.8383 38.6204
40.1906 27.9288 38.5195
44.3261 29.6781 38.6842
43.141 28.2912 37.5892
41.5539 28.3582 38.2626
41.9319 27.0428 37.2157
39.276 28.9312 39.503
39.9 26.1824 36.1429
41.067 30.8157 44.1908
46.3834 28.9316 38.4231
38.1254 27.3249 39.1344
42.5394 29.5321 38.5871
38.7613 30.1936 40.8578
40.6239 26.1327 37.7184
39.2575 26.7817 36.2097
35.446 25.5208 36.0252
35.6878 28.0868 39.575
38.9052 27.11 38.8546
38.9959 29.0547 40.5856
37.0855 26.5297 37.4711
38.7256 27.9641 39.3466
35.6342 24.2321 36.2646
39.2383 26.6685 38.64
34.2463 24.4317 37.0811
41.9776 28.5595 39.0241
37.9022 26.2714 37.8869
37.094 27.1799 40.8455
36.207 26.6072 39.434
39.2265 28.3533 39.3154
35.9185 27.7754 40.8435
36.3751 24.6295 36.8586
38.1163 23.6679 34.0254
37.0919 25.2953 36.0229
36.0085 25.1584 36.565
31.9564 23.0489 33.6376
34.4508 25.1771 38.3433
35.2763 24.4943 35.7286
33.1271 23.487 36.6627
34.8699 25.2291 37.1737
35.1248 23.002 35.9317
33.3269 24.5332 35.2132
34.2872 26.2688 39.5723
33.3326 26.9083 42.6567
33.444 24.7067 38.8771
35.5636 26.9523 37.9938
36.2702 26.6383 41.2976
36.4754 25.3537 39.0144
35.3984 25.3359 39.2326
31.5398 25.0669 41.3159
34.0599 25.1856 37.2294
32.7878 23.214 36.1884
31.5736 24.6999 37.7937
33.3478 25.5804 40.0485
32.8419 23.3803 35.6286
33.0437 23.4731 37.2745
32.4354 24.4358 39.5475
32.7803 24.3518 38.3813
31.0326 22.5911 35.7904
33.4358 24.2454 38.7512
32.4907 23.2071 36.9466
32.2223 23.1294 35.3216
30.1723 22.3532 35.9354
32.4123 23.5196 38.8469
32.9923 25.7058 40.4571
32.1227 23.0958 37.2182
31.9128 23.0544 36.6122
32.404 25.1498 38.7131
30.4972 24.588 40.8032
29.7445 24.33 40.9041
32.9189 25.0648 38.1286
31.2853 23.2006 37.1862
27.5463 20.6675 34.9886
28.1044 22.7964 38.2703
31.0082 24.3995 40.4201
29.0391 22.7837 37.0512
29.3007 22.5391 36.8506
31.636 24.78 42.5641
30.4509 24.4713 40.5768
32.7886 25.0679 40.6969
31.1988 23.5753 39.568
32.1627 23.5875 39.6157
30.5104 23.1512 39.6622
32.94 24.2691 40.0553
29.8281 23.4738 39.866
30.1456 22.8758 37.8534
28.0278 21.4089 36.2025
27.75 21.5584 38.5829
29.0834 23.0013 38.3926
30.3191 21.7905 37.4752
27.9561 22.3493 37.5363
27.4471 22.4824 38.6215
27.9299 22.9197 40.0628
27.4857 20.6278 35.4876
28.5288 21.6263 36.9165
26.5281 19.8144 35.655
29.9893 22.7478 39.2788
28.0631 20.7657 38.6655
26.8051 22.762 39.1274
28.4112 20.2093 34.2995
26.4922 19.6104 35.3328
29.4975 21.4273 37.0954
30.09 21.7253 37.0613
27.1633 20.8805 36.8267
27.2287 21.6303 36.8463
27.1922 20.7533 38.3801
28.779 22.1932 39.4743
27.9785 22.057 42.4971
27.9394 24.2345 42.0292
26.4427 22.3361 39.467
26.7597 22.5792 40.3003
25.423 20.2231 37.9521
25.6555 21.0264 37.9334
25.7742 21.6609 37.3079
27.3445 20.6346 38.9931
27.8115 22.7666 40.1215
25.0668 20.0165 38.7594
27.2199 21.4836 39.1454
26.917 20.708 38.3594
27.3314 20.9393 37.4096
23.9612 18.4368 36.1474
27.0844 21.2141 37.7537
24.5032 20.346 37.9048
23.7166 19.205 37.8405
26.1613 20.5498 36.4916
25.9293 22.32 41.269
26.5596 20.8518 37.4029
24.1664 21.3472 41.4519
26.0876 21.2266 39.5243
27.4882 20.9672 38.0553
24.1639 19.2262 37.5437
25.0527 21.2506 41.3361
26.9962 21.4471 42.7036
24.7729 18.968 32.6869
24.842 21.4579 40.5057
25.2052 19.4337 38.1814
23.4525 21.6809 41.3442
24.2807 18.8323 37.5585
24.3697 19.7064 38.04
25.8577 19.5158 38.2291
23.7523 20.377 38.5221
25.8822 20.1473 39.4182
23.7329 18.604 35.6669
23.05 19.0651 37.3236
25.0805 22.4317 44.0596
25.3911 18.3034 33.6284
23.8692 19.2351 40.3954
25.2014 18.262 36.2725
23.5308 16.9462 32.3299
23.4287 19.5348 40.6549
25.8091 20.2449 40.0698
25.3205 18.8347 34.9928
24.3632 19.4054 38.7819
23.1372 18.0902 35.4954
22.8958 18.5688 37.0582
23.5605 18.6631 38.1174
24.2477 18.5075 38.3484
23.5481 18.6902 35.8693
23.4222 19.2763 38.6067
24.8798 20.0299 42.022
24.0077 20.1537 39.0135
22.866 17.7358 35.8449
22.4263 18.7779 38.2563
22.6635 18.9213 37.8321
23.4305 18.2222 37.2944
21.3683 17.6737 36.5114
22.0542 18.1116 38.2268
21.721 17.2196 33.7867
22.1121 18.825 36.979
21.2568 18.0029 40.0247
23.5992 18.0752 34.7534
22.7552 17.965 36.4974
21.8906 19.1497 39.9415
23.0381 17.6054 37.4636
22.4245 18.8885 39.2159
21.8047 16.7452 34.043
20.9246 16.9999 37.2833
22.1751 19.2337 39.2927
21.4612 17.5489 36.3696
20.7454 18.1273 41.0388
22.3987 17.4146 35.1717
20.4814 18.3063 38.9928
20.9683 16.1998 34.3419
21.5456 17.6975 36.353
21.109 17.3754 36.1247
21.5818 18.0264 39.1181
20.807 17.5045 37.0947
19.8232 16.1915 38.1797
21.3597 20.3638 40.0096
20.0199 17.6062 36.9359
20.963 16.2802 35.791
20.4138 19.8537 43.4921
21.8041 18.0331 38.1773
20.004 17.2061 36.8187
22.5511 16.8437 38.7321
20.1836 15.472 34.224
20.9738 17.5323 37.7431
21.1242 17.3995 35.8992
21.5178 15.8957 33.8261
19.9774 17.8636 40.636
19.9927 16.7308 37.9841
20.2238 17.1628 37.1935
20.9105 16.8511 36.2675
21.3949 16.6656 34.3707
19.4735 15.4819 35.9559
21.5785 16.27 36.0049
19.2717 16.5048 37.4908
20.7623 15.9216 34.8935
19.4922 16.8688 38.8295
20.2347 17.2667 37.6675
20.5308 15.9834 35.1911
20.3045 16.1521 37.1866
19.4958 16.0138 36.7369
20.3293 16.8981 36.6756
19.0466 16.262 34.501
19.9399 16.0294 39.1872
21.563 17.1257 38.2228
19.1868 15.4197 35.6515
20.0455 14.8048 32.9349
18.4961 17.363 37.4213
19.6491 16.2783 38.7637
19.9785 16.3792 37.1927
20.3403 16.4981 37.3857
17.5968 16.4164 38.756
19.5307 17.3337 38.7193
19.302 16.1338 37.8054
20.1817 16.1722 37.0354
19.8098 15.5407 35.0056
18.7706 14.8279 33.0877
17.7116 16.0495 39.8195
19.6482 17.445 40.1413
17.4187 14.308 35.1245
18.0507 15.5037 35.0914
17.6288 14.5186 34.2963
18.4901 15.4527 34.6407
18.009 14.6587 35.0782
17.9132 14.5511 33.9511
18.7244 15.3408 36.346
17.276 15.9358 36.4233
16.9586 16.1464 37.7832
18.0607 14.7435 34.9579
18.479 15.3878 36.3685
17.2451 15.1471 36.1436
18.2777 14.4425 34.5288
18.2079 16.6488 40.3246
17.5287 14.5144 32.6941
17.7441 15.067 36.4986
17.5928 16.0543 39.6406
18.2559 14.1808 35.5569
17.9121 14.8791 34.0563
16.7481 14.4746 34.8745
16.8736 14.8238 35.5737
17.3647 14.069 35.5425
18.1925 14.4126 36.6182
19.0523 17.2184 39.9874
17.2917 14.5853 33.3527
17.8921 15.5266 37.849
18.2969 14.8848 37.7718
16.3337 14.9324 37.6463
16.2008 14.3788 33.8468
16.367 14.8125 37.3322
16.5908 15.6264 36.2434
17.0063 14.716 34.8083
16.3818 14.2589 36.7335
17.6321 14.7798 35.9173
15.961 11.7358 31.8889
17.3034 14.2631 33.7847
16.8143 13.6698 34.0595
17.707 13.2738 32.9042
16.9503 14.2168 36.0451
17.5996 14.7422 36.1473
16.7214 14.0055 35.3851
16.68 14.6609 36.7499
17.3199 15.2662 37.1166
16.4946 13.6647 34.162
17.6846 14.209 36.0453
17.7923 14.8942 36.1355
16.0543 14.1819 35.9215
16.6616 13.6075 33.1905
15.8572 13.9473 36.4109
16.7236 14.061 35.3623
15.3365 14.7029 39.5225
16.7046 13.0664 32.8628
16.2039 15.1706 39.4515
17.4632 14.3728 36.4078
15.7322 12.2952 34.6996
16.403 12.9751 31.6842
15.7327 13.3373 32.9203
16.6136 15.0966 39.0661
16.709 13.6029 33.5003
15.3472 13.4692 34.8688
15.7495 14.1149 38.4297
16.3036 14.4874 36.3557
16.6185 12.699 34.2908
15.5551 16.1558 40.4207
16.2376 13.1038 36.6109
17.7543 14.244 36.0592
15.3753 14.4831 35.1053
15.7399 14.3981 39.1323
15.7132 14.1985 35.6236
16.037 12.1437 34.2355
16.4705 15.1005 38.776
16.0332 13.0301 33.3031
15.4802 12.1242 32.3464
15.7445 13.623 36.1951
15.361 12.5171 31.6282
15.2965 12.8307 34.7019
15.0709 13.9682 36.5457
15.0262 12.9327 34.2508
15.3716 13.8229 37.5516
15.8649 13.2807 35.9538
15.64 13.5543 34.144
14.9197 13.01 35.8653
14.841 12.5701 34.3835
14.8819 13.3024 34.6422
15.1744 12.0989 34.5074
14.3089 12.2275 32.9521
16.9616 14.104 37.5049
14.8412 13.0884 34.3287
14.1114 12.027 33.7676
14.2367 12.2973 32.9852
14.9735 11.5047 31.764
14.7416 12.4748 32.8528
15.3373 11.9087 34.4201
13.8916 12.8386 33.1547
14.636 13.0167 35.8598
15.6946 13.3983 36.8171
15.5728 12.657 32.4414
14.4221 11.6622 32.2305
14.1048 12.3498 33.2864
14.5629 10.9272 30.5484
14.485 11.6469 31.7295
14.0955 12.107 31.4317
14.0945 11.8295 32.4409
14.4685 12.2218 35.4644
14.2617 10.914 29.9207
14.5327 12.7428 35.6219
14.7813 11.9954 34.1998
15.4552 12.1461 34.0211
15.2117 12.1527 31.6922
14.3454 11.1414 30.8132
14.0065 11.8231 32.9796
13.4981 11.4321 29.9188
13.7177 11.3245 33.8401
13.6067 11.7679 34.8806
14.6981 11.4609 31.3547
14.3009 12.5686 33.4333
13.5626 11.6775 34.1176
14.3496 12.9668 32.7838
12.9255 11.9028 37.7313
14.9113 12.4629 34.0709
13.1271 10.9066 30.3362
13.7025 13.5357 37.2906
14.6259 12.5702 36.7489
13.8084 12.7066 33.6983
13.0403 11.2383 33.6288
14.1517 11.7043 31.8707
13.478 10.7197 32.3243
13.8088 10.7427 31.3354
13.6736 11.1775 31.3054
14.2432 11.784 33.133
13.7683 12.9969 36.7224
13.8432 11.585 35.3863
14.143 12.9735 35.4349
14.0389 12.0018 33.4179
13.6068 10.8525 32.3169
13.6154 10.4695 32.5841
14.3855 12.225 34.8272
13.3669 10.2479 30.7893
13.119 11.7872 33.8489
13.6324 10.6469 30.3644
12.7886 10.5636 31.0938
13.248 10.5507 28.1763
12.5066 10.0752 29.6008
13.5643 10.562 31.509
12.7138 11.3384 33.1033
12.6961 10.9062 33.4034
13.075 11.0191 29.2156
11.8723 9.47202 28.1745
12.5671 9.52295 32.2979
13.1895 11.2373 29.6071
13.3412 11.1806 33.4795
12.9656 10.5663 32.7272
13.6426 12.2074 35.2205
12.51 10.782 30.8971
12.85 9.61405 30.5147
13.8956 10.7944 32.4396
13.5747 10.8309 30.5815
13.0207 10.105 29.3581
13.2848 12.0137 35.0974
12.6383 9.74238 30.0661
13.0882 10.7243 33.3757
12.9128 10.9079 34.5697
11.8876 10.7541 29.4317
12.0406 11.1546 33.5698
13.3563 10.0846 32.1106
13.0043 11.4084 32.4587
12.0858 10.4021 31.7418
12.7521 9.85393 31.2036
12.5156 11.1227 32.954
13.3575 10.8843 32.2079
12.1854 10.3862 33.2154
13.9028 9.48024 28.1423
12.879 10.5061 29.3218
12.3707 10.5058 30.9711
11.6391 9.72404 32.414
12.3197 10.2686 29.9885
12.355 9.68515 29.5537
12.6851 10.0197 32.3971
12.7886 10.6325 32.1113
12.0647 10.2456 29.0224
12.913 10.8032 33.3045
13.1806 11.4221 35.2411
13.2741 10.5187 30.1131
12.3353 10.4563 30.7889
11.9148 9.82635 32.3815
12.673 10.2369 32.118
12.126 9.9157 31.0434
12.4794 9.41104 28.3794
12.2962 9.97018 29.2893
11.4072 10.8597 33.3825
12.3849 9.89705 32.1789
12.3467 10.8768 31.9969
11.9732 11.085 35.0298
12.0075 10.5376 32.5176
12.1289 9.91924 32.0922
12.0854 10.102 33.5349
11.7259 11.352 32.5799
11.5317 10.1546 33.2573
12.3863 10.2991 33.1399
12.3721 10.4133 31.4432
12.2916 8.49599 25.605
11.5653 10.1169 31.8866
11.8555 10.2328 31.2637
12.2162 10.1066 29.9928
11.4476 9.86324 31.2788
12.107 9.09482 30.3979
11.8092 10.4813 32.2474
12.3118 9.98655 30.8379
11.7985 9.40729 29.7292
11.806 10.0058 31.9379
11.7332 9.04619 28.7859
11.3569 9.55039 32.9543
11.901 9.33697 30.0807
11.312 9.64798 30.6153
11.7238 9.98108 33.9446
11.4291 9.99744 29.8153
11.4183 9.70967 30.4205
11.7096 9.5328 30.2749
11.3922 8.51993 26.9546
11.2085 8.80499 28.6478
11.2022 9.48293 30.2293
11.4542 9.04634 29.2915
11.4643 8.69323 28.1492
11.1744 9.49 31.6706
12.5753 9.87836 30.4109
11.5704 9.13951 26.8313
11.5444 9.37294 32.7102
11.7139 9.64319 29.7747
10.612 9.07691 29.5727
11.7583 9.86496 30.8609
11.5506 9.49034 31.2266
11.6266 10.1446 31.4647
11.8476 8.74802 29.2341
11.8313 9.35401 30.4967
11.3942 9.582 29.994
11.8854 8.8315 29.2052
11.7066 8.84571 27.4474
11.2057 8.91037 27.6345
11.5044 8.82745 30.536
11.0507 9.4777 31.9416
11.8769 8.51818 29.4028
11.7149 9.49262 29.3671
10.93 8.97297 31.8309
11.7144 8.50516 27.138
11.3064 8.50363 27.8425
11.7376 8.85757 28.9933
11.1751 9.9891 32.8858
11.4069 8.33905 26.6469
10.396 8.46383 29.4587
11.7763 8.86765 27.9743
10.892 9.41122 29.9012
11.0653 8.30254 28.9487
10.5646 9.70928 30.4448
11.1749 8.48711 28.6591
10.6623 9.51257 30.506
11.4175 8.93191 30.457
11.5476 9.26478 30.0557
11.3434 8.94515 29.3268
10.2196 8.79768 29.5952
10.5446 10.1917 33.216
10.8029 8.45617 29.4913
10.6273 9.62623 30.3219
10.8704 10.0776 33.2333
10.5099 8.41118 29.4446
10.5125 7.8722 25.949
10.8571 8.783 28.2931
10.43 8.51705 29.133
10.7124 8.51322 28.8229
10.8889 8.64891 28.2793
10.457 8.50655 28.1738
10.1361 7.92831 27.7568
10.5562 8.16211 28.2206
10.589 8.34725 27.7735
10.9216 8.54336 26.9398
10.4961 8.05071 30.6138
10.9783 8.94242 29.0788
10.8634 8.54659 28.8305
10.6726 7.66017 27.44
10.5491 8.65904 26.9537
10.1973 8.20639 27.6459
11.0535 8.23146 28.0075
10.196 7.31824 24.8944
10.6152 7.92709 28.2646
10.9186 8.0528 26.2702
11.0022 8.55297 30.1678
10.0766 7.98018 27.7414
11.0201 8.44941 27.611
10.2985 8.85643 27.693
9.93782 8.41959 31.0594
10.192 8.39006 31.4677
10.536 8.83855 28.3583
10.1977 7.76998 28.0614
10.9441 8.60162 26.4322
9.90854 7.06993 26.5972
10.7121 8.24411 27.8304
10.0443 8.07539 27.5992
9.83024 8.37306 29.8675
10.5222 7.89941 28.0036
10.8664 8.72364 29.7647
10.0664 8.57055 28.9767
10.2366 8.37603 29.1453
10.3835 8.88751 31.1949
10.7152 8.62919 28.229
10.3779 7.67479 26.9809
9.6185 7.81779 26.5667
10.1868 8.61122 31.4443
10.4611 8.9373 30.7448
10.4653 8.60028 28.3213
10.135 7.60552 27.3317
10.6886 7.73945 25.5786
10.2568 8.10555 28.8943
10.4346 7.53648 27.7993
10.7094 7.76545 27.8048
10.6395 7.74161 25.6193
10.3937 7.70424 27.9705
10.0519 7.68974 26.5107
9.95532 7.72098 27.7455
9.7949 7.68563 26.2427
10.0015 7.11726 24.7581
10.0773 7.45275 27.1901
10.1183 7.96818 29.5948
10.3125 7.49165 26.883
10.2597 7.80402 26.9915
9.51818 7.65462 26.9435
9.8044 7.37947 26.8795
10.3321 7.74516 26.4253
10.5295 8.00416 28.0561
10.5597 8.06713 29.2903
10.7469 7.78355 26.8944
9.92924 7.72844 26.1269
9.78539 7.58113 27.557
10.1449 8.00582 28.5442
9.81672 8.5733 27.8819
9.51526 7.56941 29.0083
10.2604 8.23051 28.3014
9.77839 7.69382 28.5487
9.9623 7.90547 26.198
9.91316 7.33104 25.5138
9.50928 7.59771 26.3224
10.2833 8.0703 30.4452
10.2787 7.97195 27.0176
10.1026 7.98832 27.6456
9.89525 8.315 29.033
9.74954 7.54967 29.0687
10.0108 7.29016 28.7083
10.1684 8.05662 26.3744
9.53734 7.78301 28.2797
9.47935 7.49642 29.4142
10.586 7.82226 26.2037
9.57186 7.84276 28.4804
9.72429 7.61009 26.2426
9.69409 8.17253 31.2604
10.2009 7.67227 28.228
9.85628 8.41844 29.8192
9.62599 9.28641 33.226
9.87263 8.16905 27.9009
9.62356 7.55993 30.1548
10.1905 9.4549 32.7005
10.0924 8.24794 28.0106
9.77986 8.51136 31.4794
9.95821 7.35775 27.5506
10.0866 7.72737 29.0148
9.66985 7.56785 29.1934
9.75902 7.93423 27.1277
9.56926 7.87971 26.3246
9.30047 7.66018 28.3347
9.6871 7.11871 27.6088
9.57325 7.945 25.8044
9.65049 7.47122 29.1009
9.35324 7.1383 25.4642
8.71195 7.029 27.2278
9.46911 8.97726 29.5618
9.93313 7.41232 27.06
9.40074 6.56615 26.3766
9.74505 7.7237 26.7886
9.68601 7.30478 26.0656
9.80927 7.6271 24.5546
9.15402 6.48854 27.3272
9.53533 7.17763 26.0872
9.13495 7.58471 27.9603
9.43162 7.3367 29.0458
9.13694 7.16919 28.5327
10.084 8.14218 26.1044
9.2712 7.24371 29.474
9.46696 7.64936 28.8737
9.27034 7.14188 24.397
9.45515 6.71391 23.8508
9.06621 7.31337 28.2921
9.73738 7.17528 25.5044
9.56287 7.26376 25.176
9.28328 6.6659 28.035
9.60404 7.39442 28.3703
9.75607 7.32505 24.4259
9.20053 7.22976 25.8833
9.99311 6.83603 26.049
9.53837 6.73565 26.5972
9.24578 7.19902 23.7783
9.01596 6.86632 27.5159
9.62187 7.15577 27.6999
9.28058 7.63182 27.3617
9.69274 6.36823 22.4988
9.39414 6.98813 27.6795
9.98729 7.18163 24.2099
9.21387 6.6692 25.7648
9.25585 6.99735 26.2256
9.33989 6.53142 23.2174
9.19956 6.75948 25.4918
9.47346 6.94465 26.151
9.41955 7.48524 27.1401
8.89318 6.56327 27.0984
9.38308 7.62615 26.528
8.65231 6.71968 27.5912
9.35865 7.10443 23.8557
9.53273 6.74814 26.6608
9.25305 6.77433 25.5997
9.16075 5.96856 22.7553
9.09281 7.00481 26.6955
9.57325 6.82188 26.6083
9.44657 7.38045 25.4259
8.97983 7.10843 26.5519
9.44552 7.01628 28.2809
9.23435 7.68588 27.6817
9.69206 7.47522 27.044
8.73909 7.24324 28.5276
9.32804 6.88615 25.9451
9.42387 7.08491 24.8807
8.73869 7.57021 27.078
9.52803 7.38148 27.144
8.8288 6.13284 25.9199
8.81688 6.9478 23.6423
8.92343 6.34354 22.9666
8.90005 6.8062 26.7766
9.14109 6.80251 27.1147
9.42222 6.921 26.866
8.60372 6.79026 25.1714
8.7054 6.34724 25.457
9.73534 6.74913 24.7939
8.80439 6.48195 24.2255
8.80252 6.2685 23.7717
9.17404 6.43531 27.4398
8.99233 7.95188 28.3305
9.64904 6.84406 23.5266
8.94445 6.73742 28.3377
9.436 7.3651 26.0778
9.18804 6.82939 25.3968
8.75495 6.28575 24.4644
8.72837 6.90886 27.7203
9.31694 6.85845 26.0907
8.94216 6.69695 25.3669
9.20129 6.81932 27.0785
8.979 6.64748 25.7492
8.74802 6.59623 23.8171
8.76471 6.33387 24.9046
9.1111 6.91474 27.6138
9.18718 6.58255 25.7009
9.29368 7.02417 25.6598
8.8966 6.77887 25.0451
9.05595 6.09161 23.3257
8.7256 6.98383 26.5406
9.03336 6.64629 26.4278
8.85244 6.43994 23.3723
8.76055 6.41728 23.214
8.76487 6.49715 25.2737
8.61526 6.98804 25.7265
9.2436 5.78679 23.8002
8.64021 6.27724 23.7106
8.93824 6.05326 23.0039
7.95683 6.27902 24.6602
9.31867 6.44329 27.6641
9.21388 6.48541 24.6511
8.83475 6.98122 26.4339
8.88031 6.68025 24.705
8.61697 6.30949 25.6466
9.03743 6.32311 24.8281
8.61321 6.73381 23.6601
8.93734 6.44201 23.3122
8.82676 6.54224 25.3341
8.49498 6.64276 28.0018
8.6878 6.36664 24.7149
8.70285 6.91263 26.873
8.67632 6.65196 24.2243
9.00095 6.56193 22.8045
8.22077 6.21229 24.9981
8.69441 6.73406 26.6122
9.03897 6.9754 24.9917
8.50587 6.17238 25.5431
9.23645 6.19531 23.9507
8.94118 6.32189 27.243
9.03611 6.36862 24.2713
8.60172 6.11917 24.1583
8.45904 5.56834 23.4922
9.02893 6.3182 23.5211
8.39749 6.17774 25.032
8.47978 6.7585 24.977
8.94409 6.5169 24.6916
8.5737 6.25329 24.1834
8.55551 6.4412 24.9019
8.57852 5.94531 23.5732
8.56033 6.06393 27.1619
9.0494 6.93959 24.2362
8.60564 5.87554 22.2655
8.57761 6.38683 24.9461
8.60848 6.14205 23.1647
8.40433 6.3342 24.8767
8.93977 6.04009 21.6587
8.43705 6.11239 24.6413
8.57911 6.31905 24.1118
8.63332 6.60638 26.1532
9.16708 6.17193 23.027
8.22613 6.20485 23.9373
8.79079 6.05879 23.5195
8.48533 6.49839 27.0955
8.89291 5.44608 22.3778
8.51328 6.5477 23.9016
8.78177 5.55447 21.4634
8.49419 6.03031 23.0329
8.71729 6.14207 24.7392
8.68418 5.8665 21.8366
8.51681 5.72168 24.5233
8.27199 6.46888 25.3967
8.73611 6.17231 24.505
8.68515 6.10443 24.2491
8.59357 5.60255 24.3681
8.30657 6.40859 24.8068
8.40996 6.54656 24.8176
8.78203 6.80538 24.3206
8.6951 5.73425 25.2923
8.69539 6.42203 24.5081
8.77374 6.08538 22.6716
8.74261 5.67399 23.3975
8.42177 6.73481 24.6472
8.56135 5.58357 25.2572
8.8547 6.26507 23.2708
8.36586 5.65353 24.1388
8.51031 6.08972 23.3559
8.51599 5.95797 24.4019
8.37572 5.47528 19.8729
8.45134 5.70349 22.4458
8.10505 5.85832 24.5825
9.21763 5.94553 23.8626
8.5484 6.2664 23.4066
8.75656 5.72629 22.4646
8.1759 6.24264 25.0962
8.80071 6.42434 25.6511
8.98276 6.30221 24.2863
8.70181 6.91396 26.3027
8.54784 5.68517 24.8736
8.39606 6.23436 23.928
8.81839 6.35208 22.7443
8.42682 6.12132 24.5509
8.71837 5.858 23.9467
8.58392 6.79405 25.9321
8.54484 5.64858 23.0888
8.52732 6.10152 22.6022
8.25031 5.97379 24.2303
8.33034 6.0632 23.2361
8.72702 6.36468 24.3861
8.62277 5.84109 23.8848
8.50823 5.82202 25.1137
8.7112 6.01795 24.8242
8.61474 6.52442 20.3913
8.30465 5.58743 25.5314
9.26831 5.9755 23.9053
8.26955 6.08981 23.8473
8.35049 5.91102 24.7052
8.4029 6.55457 25.0684
8.42455 6.21932 23.9014
8.28754 5.81768 24.2785
8.04027 6.07665 25.0808
8.60365 6.37601 22.167
8.1321 5.51724 23.0766
8.5739 5.71543 21.8197
8.47442 5.66549 24.0681
8.45692 6.19089 24.5982
8.89182 5.96314 23.8275
8.59696 6.11047 22.3895
8.25074 6.02231 24.5632
8.06913 5.81891 23.5166
8.19734 5.55959 23.2227
8.05951 6.2117 24.3401
8.76654 6.07316 23.6524
8.00058 5.97159 24.1988
8.46131 6.39534 27.3243
8.64899 6.17747 23.95
8.23367 6.01284 23.2033
8.11672 5.68635 23.233
8.22756 6.59644 25.2754
8.67015 5.878 21.6525
8.35721 5.96593 25.524
7.99447 6.61389 25.4582
8.38425 6.07505 23.2499
8.23587 5.31971 22.5372
8.45149 6.39196 24.7035
9.30836 6.16623 23.7179
8.50329 5.81708 23.278
8.36411 5.87168 23.5298
8.23757 6.33262 26.9967
8.82626 6.16884 23.0686
8.79874 5.68687 21.6189
8.38914 6.32735 26.073
8.34074 5.88999 22.0657
8.14058 5.94664 24.6634
8.20303 6.03379 23.09
8.31171 5.62367 23.5011
8.79376 6.04229 22.8175
8.59843 5.52245 22.0885
8.09323 6.29722 24.8962
8.56867 5.78704 22.5064
8.71284 5.60208 24.3574
8.01729 6.41776 24.1909
8.57223 5.69439 23.4805
8.26565 5.59739 25.3378
9.07034 6.24376 22.7738
8.51615 5.54018 21.3755
8.35021 5.53375 22.9876
8.24038 6.38887 23.8892
8.08214 6.01423 25.9036
8.771 6.34515 23.7811
8.85534 5.70185 23.904
8.65822 5.82683 25.0174
8.41947 6.01225 23.2691
8.39667 6.34151 24.3192
8.65501 5.91801 24.0433
8.35055 6.4454 23.4481
8.36975 5.8034 22.5761
8.48631 6.01143 26.3529
8.76076 5.55731 22.8682
8.01261 6.11217 23.7068
8.27102 6.46363 26.7837
8.92607 5.99623 22.719
8.35218 5.69482 22.9731
8.40259 6.49547 27.4125
8.73179 5.96251 23.4245
9.01457 6.96191 24.8164
8.32739 6.12322 25.7538
8.07434 6.33437 26.3617
8.55403 6.37857 26.1013
8.39765 6.41893 25.5793
8.74159 5.51846 22.2591
8.07181 6.44354 26.6148
8.51578 6.25637 24.8728
8.25008 6.57651 30.2301
8.44387 7.28021 24.7972
8.78881 6.00997 21.4693
8.34547 0 0