# pn-170911/CsIIA-40-KOKB-1280-1959.psd
# Power spectrum* (dif=0,1,2) (really just |FT|^2)
# NOTE: only the first half! (symmetric)
# weeks: 1280-1959
# 6 clock-days, 1 excluded
# PSD: 1441
39586.2 1.04708 0.0279866
1.61279e+06 24.9493 0.0131815
7.34948e+06 130.24 0.0108919
585446 35.2911 0.0159062
1.1084e+06 77.1758 0.0208789
186661 17.3471 0.0175171
307116 38.1684 0.0128018
123101 45.2567 0.0194727
182842 61.1471 0.0289205
36763.5 11.2761 0.022007
77670.7 23.2621 0.0289791
28707.2 21.891 0.0284686
70019.9 46.6713 0.0457294
72549.2 40.5966 0.0413209
59187.2 40.7323 0.033812
31597.9 40.8863 0.0522121
59992.6 56.5139 0.0632772
64388.5 104.985 0.157866
45800.9 66.943 0.150941
35738.3 50.9135 0.0884523
20580.3 35.8554 0.103438
23211.8 40.4037 0.128275
37894.4 72.9987 0.123717
29487.7 43.7717 0.138662
12664.8 38.5784 0.131046
14485.4 37.2535 0.109756
17848.5 44.0196 0.16607
11721.3 17.5566 0.0861089
17981.9 42.75 0.19567
6626.98 14.7648 0.0618625
19545.8 59.0052 0.292965
17831.2 70.8115 0.346395
9956.19 49.6871 0.259972
8384.32 29.6091 0.189032
11932.9 49.9877 0.262694
6845.31 51.4387 0.270817
11455.7 56.8174 0.330785
12557.3 69.0949 0.58107
7242.75 34.8285 0.234037
9390.83 53.0751 0.409261
8261.38 44.0574 0.310802
4791.28 37.1237 0.256432
8642.73 51.2826 0.445133
6295.37 68.6783 0.651586
4259.51 38.4334 0.465842
8124.08 76.381 0.776561
5100.96 41.1927 0.411165
6528.59 52.7543 0.603169
2005.46 27.3697 0.22598
3940.97 40.6148 0.511633
9883.99 74.5634 0.910493
5442.26 58.2188 0.72149
3096.95 37.125 0.457198
3374.52 46.0073 0.648183
3722.79 42.4525 0.523913
2727.33 23.9164 0.331509
2428.35 21.6537 0.383916
2155.66 23.1923 0.381956
4172.37 48.4115 0.797718
2432.09 36.1432 0.639645
3603.66 38.8466 0.606495
3793.4 69.6807 1.23939
3024.68 37.7687 0.751535
3068.38 43.3572 0.778416
2104.17 29.7352 0.588813
2058.65 47.4488 0.899825
3215.52 48.4151 1.14762
3045.71 45.9618 0.95224
1652.72 28.8429 0.589109
2686.15 43.7173 1.04619
217.803 14.8351 0.375176
3323.16 70.0837 1.62835
2224.99 52.1518 1.27303
1378.84 21.8017 0.633187
2721.71 37.1264 1.00424
1160.41 42.4107 1.09244
1114.19 27.9908 0.775777
2273.58 39.9354 1.19967
1961.4 51.8158 1.57313
2751.31 56.4641 1.76261
3075.39 57.8497 1.72825
1401.94 45.1997 1.29837
1735.06 65.2156 2.00029
1703.04 54.3529 1.87903
2730.2 85.1824 2.67305
1466.16 43.5274 1.58234
1648.81 37.7405 1.25226
1574.89 31.4466 1.19767
2538.2 79.0663 2.865
571.126 29.0425 1.03348
1533.22 62.9628 2.48239
2531.45 57.6133 2.36219
2321.4 71.2868 2.90868
1779.89 45.9312 1.92354
1231.05 33.6661 1.51694
1622.29 53.1015 2.38022
1408.24 64.9357 2.88388
2204.12 74.7562 3.58857
1967.54 74.0194 3.46416
1597.26 74.9175 3.58542
2090.98 85.9326 4.03541
935.443 29.5619 1.55561
674.715 24.8092 1.29208
713.412 40.8872 2.18276
691.5 41.6273 2.25188
1307.81 52.6465 3.0356
1681.51 71.708 3.62156
1904 65.8422 3.60157
995.717 29.2424 1.87562
476.851 25.7089 1.26495
1498.8 66.5846 3.7736
940.161 44.3545 2.6548
919.265 49.9448 3.01241
1440.92 71.5655 4.21176
1040.19 55.6361 3.35581
1065.87 35.4367 2.24566
690.531 50.3662 3.15901
1253.94 48.6344 3.13406
932.629 57.839 4.24429
1342.76 70.6903 4.39293
327.261 24.8134 1.59863
1382.88 57.9108 3.94841
923.937 52.7321 3.93952
854.811 39.9013 3.00763
797.901 47.6474 3.58362
399.039 32.0558 2.38915
859.227 82.6503 6.2863
265.796 21.2879 1.57523
205.406 25.0854 1.92318
769.085 33.2336 2.58115
964.184 77.7622 6.94682
553.945 43.427 3.27559
845.417 44.4245 3.78528
443.251 30.8778 2.45843
738.253 70.29 5.8091
618.673 58.0709 5.08126
604.597 33.0268 2.99972
879.552 69.7001 6.1542
538.303 38.0203 3.43122
315.618 24.3876 1.97421
743.312 62.3546 5.78343
156.984 17.5194 1.59792
417.208 33.7722 3.17408
261.622 52.5318 5.76045
837.706 48.9034 4.53211
557.948 28.0556 2.92411
404.159 39.8659 3.49541
603.742 47.1604 4.86688
832.622 72.5955 7.97133
643.873 51.6282 5.57478
913.411 85.5187 9.07934
640.733 59.8926 6.31324
378.593 32.352 3.67113
300.302 23.9202 2.49591
413.765 40.4183 4.55056
600.264 45.7044 5.18102
726.235 75.1992 8.25569
314.504 38.6405 4.17573
500.855 62.6658 7.99213
395.483 38.6631 4.50743
966.196 84.9718 10.4517
261.368 35.4543 4.3273
418.188 36.024 4.31448
250.376 30.8372 4.04633
600 67.02 8.40735
288.136 21.1639 3.46786
602.327 53.8102 6.54657
961.188 107.017 14.1359
666.436 73.0207 9.28921
337.23 35.5278 4.76838
322.333 29.4792 4.14948
266.711 30.659 3.82177
594.995 87.6512 12.3588
303.563 32.5564 4.55734
494.667 55.0311 7.46146
429.787 38.5342 5.2481
233.572 21.3602 3.04593
360.754 42.6037 6.57216
357.22 47.8663 7.3974
358.66 46.5778 7.07239
1033.46 118.015 17.815
180.976 33.4575 4.46344
192.338 28.6781 4.97386
544.229 64.876 9.69545
400.642 54.3664 8.72938
229.788 22.4363 3.50083
234.953 24.1456 4.09106
367.424 59.4572 9.89034
290.063 37.9329 6.55566
412.635 43.7503 7.70068
304.574 54.4929 8.68736
214.551 39.7297 6.82008
454.501 62.5895 10.5597
324.146 72.8244 12.3142
297.907 41.4085 8.16687
204.071 23.0584 3.72389
351.998 36.6191 6.52628
391.968 85.7086 15.873
375.369 64.0776 12.8817
293.615 48.63 9.67223
142.345 18.6174 3.58705
251.387 53.3904 9.47011
159.032 36.3114 8.28414
199.325 40.1028 7.86304
136.903 30.2323 5.65701
184.273 30.323 5.72771
268.861 43.3017 8.24978
376.286 65.9039 12.647
612.158 106.733 20.4509
54.176 14.7902 3.33377
215.205 39.4884 8.37079
181.957 39.0016 7.90858
190.508 28.5266 5.9921
242.136 36.0628 6.76488
143.238 36.9061 9.06062
372.621 77.0157 15.8257
254.69 45.6499 10.4729
154.216 32.046 7.22559
279.631 40.0147 9.5365
293.949 56.4986 12.4414
316.761 44.1384 9.79008
102.791 28.6002 8.73392
307.05 42.012 9.81584
314.92 46.1312 8.9382
198.154 35.0258 7.09353
221.989 34.4135 8.7099
229.865 30.9955 6.50083
219.192 48.1552 12.3873
351.79 72.6393 17.5155
158.708 25.0521 6.03453
183.258 26.5877 6.99555
177.389 39.0548 9.65392
208.348 45.2579 13.2113
71.3869 15.9029 3.77531
199.192 46.0277 10.9363
239.906 66.124 17.4356
192.836 45.0967 11.5325
240.044 39.9167 9.68661
160.794 67.7996 19.396
155.429 30.3707 8.87958
182.151 35.6419 8.57786
185.709 44.3021 12.6197
203.844 39.429 10.6013
216.263 39.589 12.2506
209.645 38.0688 9.70389
186.58 40.265 12.0718
85.7587 22.7534 6.78043
223.262 54.5578 16.0077
187.924 37.6705 10.0849
53.4101 21.666 5.9514
237.561 47.9537 15.8226
186.922 33.8301 9.21183
155.019 43.8993 14.2695
155.412 43.7461 12.8224
143.028 35.4097 11.0641
179.798 36.4955 11.3007
113.295 27.2517 7.79563
199.685 40.2769 12.644
231.995 55.5084 17.2963
169.269 61.1064 16.654
129.88 24.315 9.21777
112.712 33.0328 9.13203
280.552 66.2228 20.7687
271.525 77.6846 26.7482
229.341 45.2404 13.9027
127.126 36.8453 10.2299
61.9533 41.9581 13.4336
99.9669 13.2226 4.90095
219.487 56.7896 18.9176
84.2796 29.6301 11.2698
156.444 38.419 12.7587
171.917 54.1626 17.1646
56.9485 24.1296 7.19025
47.0922 19.2688 8.31904
104.356 32.7332 13.0882
264.128 50.8427 15.081
207.147 74.0311 26.1862
96.9551 24.1436 8.34089
150.218 36.6719 11.3206
62.9864 21.201 6.18249
116.346 57.2855 22.2916
175.328 51.7191 17.8867
145.362 37.1115 11.8344
80.7962 34.3542 14.4018
99.7655 32.2426 10.4868
89.888 32.3044 12.8696
66.2505 26.6019 12.6138
157.399 40.5939 12.7618
125.913 28.7544 9.53176
214.929 65.9212 24.2662
107.188 23.7895 10.1424
105.554 29.7606 13.7672
98.3164 31.3573 9.97932
72.6341 35.3345 15.1591
60.217 21.6688 9.18833
160.271 41.2388 15.4298
66.6087 30.9272 11.6765
149.157 58.9455 22.9134
167.609 52.414 22.3218
80.5873 19.102 7.88207
105.474 27.9082 11.9432
21.3413 10.9249 5.14594
62.57 34.2046 14.0084
64.6971 22.7679 11.7807
88.6378 23.3503 9.64443
101.263 36.3462 14.8114
113.922 35.5009 15.869
125.6 39.9268 16.2977
102.484 27.0405 11.4623
56.1633 24.5977 11.7963
54.0548 16.7511 8.21754
160.436 40.2995 15.4906
83.1897 35.1438 20.9886
185.459 59.5238 23.3604
46.0979 28.2218 14.7683
36.6175 14.7327 8.18825
108.636 24.7925 8.79714
81.3587 27.2972 13.1769
131.639 56.7091 24.5089
72.9143 40.6152 19.6672
178.803 74.8116 33.9298
51.5763 21.1166 14.2053
121.489 37.3565 13.6065
94.7687 26.0311 13.3342
159.433 43.0691 16.1439
97.1069 45.8901 26.6178
127.269 27.1976 9.29559
135.174 57.683 31.7324
202.706 61.7718 26.3331
100.331 36.4656 17.3465
100.771 34.2784 16.9797
96.7124 38.3265 22.0393
78.1557 24.4541 10.1915
139.638 46.1058 23.8842
70.7171 22.8302 12.984
59.9289 26.429 12.7142
56.2659 29.9968 14.1787
110.392 49.7129 26.7674
69.4773 19.4928 10.4468
46.0724 23.1209 13.8134
95.4687 52.5424 26.3764
86.5996 27.6604 14.26
100.243 41.6779 19.5248
97.9779 33.1384 20.5189
38.3168 10.366 6.56679
113.666 45.9784 26.1682
72.737 31.0388 15.364
76.0129 32.1916 18.2476
37.1694 27.8629 16.8018
104.239 48.877 27.7625
78.5032 35.7185 18.4217
88.2366 31.7584 20.2473
147.727 48.772 20.7857
125.431 56.1621 36.5193
76.0509 23.0739 9.99361
92.0799 55.973 35.3392
103.845 33.9987 18.2588
77.9939 23.3493 17.8957
92.9864 31.17 18.4568
65.288 29.7126 14.8497
63.4954 57.9663 37.0218
75.6446 24.6583 12.976
59.294 18.2915 12.9575
59.5361 30.4707 16.4338
71.8532 47.3982 27.5477
83.1663 40.4478 24.3733
59.4065 38.2654 24.1558
87.4036 41.0426 24.0414
36.9419 14.3592 13.0107
96.129 41.2828 24.0793
62.9028 38.4559 24.1952
33.9487 14.4627 7.87328
65.397 30.8766 24.6089
66.1711 62.794 40.8642
62.9401 29.8591 17.6422
41.0416 40.972 20.5569
27.5632 23.0479 14.2498
62.9468 45.9482 34.5883
79.4261 40.6954 25.8895
102.717 54.6325 30.1382
50.2115 32.2832 22.725
65.6534 22.5267 15.5249
84.2482 30.4851 16.6299
33.3194 21.4488 16.2009
60.2477 30.1139 18.4267
34.9477 14.4706 9.69617
36.6385 24.093 15.8947
68.1004 36.6271 26.9746
51.1419 29.5318 21.9116
89.4178 30.9964 17.5022
100.019 43.8966 29.1752
42.133 25.1134 18.5061
63.862 27.0444 17.5704
59.2622 40.8855 30.6508
27.2759 21.1742 13.4916
25.164 21.0192 13.0881
42.6674 28.5629 22.1266
38.2844 22.0634 14.9762
34.4577 25.3096 19.817
57.5117 24.6801 13.1627
62.4464 27.2407 19.7772
22.3073 10.7926 6.87274
47.8839 28.9405 25.2884
73.1199 30.7315 17.5653
95.8534 51.6594 39.1657
60.023 47.4937 33.5648
28.6219 33.1094 31.7788
85.646 29.2863 18.8232
90.8196 39.3839 26.3094
62.6255 27.0481 18.7507
70.5546 32.2017 23.14
60.2824 42.2107 30.6802
43.2301 22.0455 17.6671
71.2711 43.1555 32.1824
61.7276 36.236 26.6748
61.8747 56.3305 43.851
47.4438 20.8196 14.5529
44.0995 30.1024 28.4498
41.1105 44.0966 37.7801
55.4196 26.8912 16.6683
64.2575 33.9998 26.2711
38.0418 36.6551 31.2979
56.5478 26.398 16.4623
23.7817 18.1452 12.0354
43.5627 43.1493 31.1819
71.8437 65.8355 59.5284
47.3844 25.3509 17.4298
64.6943 36.6336 29.4719
37.9266 23.5622 23.1405
32.6196 17.9939 12.1831
40.7456 26.4354 25.4889
61.6347 37.9892 34.3558
43.8436 23.279 13.3505
22.4918 12.3702 10.7995
31.9798 43.7748 29.6492
13.9631 25.8101 23.8825
26.4509 21.0769 21.2824
61.9184 45.3453 39.5248
55.8421 30.2897 21.5539
44.8093 27.1388 23.9626
49.0197 30.8299 22.0215
26.7419 5.68676 5.51733
34.6452 26.8326 23.2014
18.305 12.1925 10.8415
11.2844 18.4606 22.5485
47.2245 30.5625 23.2131
46.1389 36.2847 31.7754
30.4545 18.7672 20.2667
80.6016 52.1188 38.7508
47.7232 13.5566 10.5371
26.2606 12.4333 10.3294
17.4606 21.8468 20.0223
40.806 41.3547 40.0408
23.6994 9.16693 12.0605
40.4085 37.2439 39.9233
66.744 45.0403 38.5861
26.5132 15.8924 19.9432
67.7227 35.141 28.0565
64.0906 41.3411 35.5994
55.7738 34.0991 37.172
32.8855 26.6765 20.3925
57.2869 26.9727 22.789
30.9608 25.9065 25.8997
39.9323 28.3935 23.5178
24.8176 25.0614 27.5819
35.9937 33.1616 42.6843
68.0075 63.0916 50.5881
23.8678 22.752 25.0431
34.3381 18.2406 18.7853
56.2133 41.3927 45.2576
30.4609 32.2297 20.8742
42.3371 34.8166 30.487
55.5502 35.0864 32.2514
18.6719 23.7604 29.6294
30.0799 35.11 35.9087
52.8502 55.2942 54.8016
46.5287 24.7554 17.869
28.5909 20.2427 28.2536
40.2085 22.6886 19.2782
55.6638 30.9897 37.0812
76.5148 69.7138 75.4826
62.4857 31.1886 28.5307
78.1313 51.5289 43.7165
48.4655 49.8141 48.1694
40.6379 32.3866 24.4266
24.2015 27.9971 32.3954
34.576 8.78464 7.32025
77.9659 68.7304 75.0341
66.3793 53.9512 44.9325
28.899 30.6754 41.5308
19.354 20.3821 24.0882
45.9089 31.078 33.3315
81.221 46.3411 37.2365
24.5861 14.6411 20.4314
54.5704 45.864 39.8729
11.4728 13.2113 14.4662
35.6178 26.5567 26.0483
55.8445 43.3855 47.4117
62.7858 55.7644 71.1443
35.3185 35.7944 37.1941
16.9094 26.606 31.8481
48.1146 31.4296 25.1242
19.1382 26.2294 36.8634
79.6559 41.308 34.3168
21.774 29.9342 38.6489
34.854 16.5183 23.6914
24.0434 25.8246 22.7831
31.1819 41.7658 38.2772
16.4737 24.5942 33.1763
48.2012 21.2548 14.613
28.6212 41.5758 64.9144
29.4594 20.8756 10.2845
27.5873 39.7063 41.1888
29.7452 34.2178 40.2478
47.6588 28.0908 38.1445
37.0411 35.9889 30.4911
8.65326 13.2066 30.0601
40.7357 22.1785 19.7034
34.7433 33.3135 43.5976
29.5384 44.0012 55.3314
59.7812 40.0378 39.624
18.8041 34.9905 41.7694
30.6459 37.6816 49.6289
89.2126 74.7426 84.8931
30.3977 21.3098 20.9156
22.6367 24.5994 25.9739
21.7303 14.798 16.2262
17.3075 13.409 13.3908
21.5218 18.2786 27.1582
26.9741 29.1494 32.0942
25.0346 29.3887 24.8289
31.7652 65.6285 91.6495
30.3607 14.792 15.2095
25.8033 24.18 47.6055
74.5807 48.8848 45.8517
34.3347 29.9842 44.5075
44.1341 29.7804 28.2969
25.3181 34.1287 46.9455
68.7972 51.8647 59.093
45.4985 52.407 48.8855
47.5648 51.2281 65.9304
38.3271 28.0525 44.3358
25.3614 26.0626 29.9016
20.7943 26.7426 42.2692
54.577 39.5807 33.8884
15.5526 25.8461 42.258
32.0537 30.6708 38.661
18.3804 20.944 38.9027
53.5401 40.985 36.5033
35.3235 32.9106 46.6427
32.5486 39.6899 56.6188
31.2947 21.4414 14.8029
21.0224 21.3189 19.9844
20.6974 27.933 37.4396
38.8681 24.7389 31.0752
26.3394 47.5007 80.0604
44.129 31.5514 29.8077
13.6977 21.5295 29.0053
9.12412 16.2372 38.9607
38.5495 30.9516 29.1387
28.5479 18.0914 18.3176
17.7801 40.7916 59.3372
43.1448 36.6347 36.503
20.8535 12.5139 24.5973
39.9838 35.4678 39.319
32.7291 26.4694 34.1802
8.67557 9.57301 12.9709
15.2836 19.9991 33.2659
39.4551 37.0843 37.2878
21.9685 18.9547 27.128
15.8635 15.7161 24.1165
28.3141 28.2863 40.3304
21.5033 26.9286 44.9851
16.1774 17.3468 31.5436
25.7022 28.5298 43.8606
19.3255 18.1248 18.4185
18.7934 13.5293 16.4693
16.7118 29.5638 35.0439
22.0347 21.0246 27.2928
8.70484 15.8829 20.4167
21.2239 46.0289 71.636
27.5788 30.9887 38.5182
30.929 28.9065 44.9703
26.4643 19.7182 26.3679
42.8154 28.0949 35.3038
10.0354 9.28118 15.3673
17.3147 12.6731 18.4083
20.1665 27.5499 47.2518
29.7128 27.4632 39.5052
27.3696 45.8572 61.1958
46.1894 33.5116 51.7248
17.0263 23.1634 22.3909
12.9263 19.0638 35.0191
55.8011 60.2376 85.5603
18.1338 7.597 14.2997
19.71 24.4898 31.7621
13.5141 6.96456 10.3634
16.0643 17.2232 31.9421
17.1207 9.82608 17.9149
21.2302 19.2745 18.8711
14.7482 19.365 46.0367
18.5279 37.5432 37.8682
10.7324 12.6806 23.2685
9.89196 24.8316 34.0429
16.4743 16.8077 27.0525
20.5418 26.6613 45.8718
29.1892 48.889 82.0564
33.8367 42.444 42.8787
6.38067 16.149 38.2351
37.4345 22.5259 23.8675
16.0041 33.0925 65.7429
44.5678 68.5261 84.3123
22.4298 27.8562 47.6329
26.163 32.3823 57.039
35.6855 22.5814 28.7313
11.4073 13.1282 28.3024
14.0365 28.0507 40.1643
39.1463 26.306 33.8679
15.0775 31.7292 63.7157
22.7477 14.2935 15.6322
12.8328 13.8744 12.3918
19.7957 25.9013 51.8692
26.9772 20.8885 22.4735
5.35302 11.6066 19.8883
31.1555 40.492 71.676
20.5925 16.2282 33.2964
21.5548 35.4817 49.8613
12.5334 19.2982 35.5765
21.5016 40.6988 62.1238
33.7573 41.4125 62.9799
20.8528 13.0392 12.7445
25.3089 30.9377 51.7814
10.1167 8.09748 24.1539
19.3784 23.5225 34.097
13.3707 14.0045 13.7857
19.5846 23.4004 44.419
29.2389 32.7944 34.1948
14.8935 26.1892 42.4652
8.45666 19.9389 42.7197
27.9368 33.3973 52.4356
13.5548 20.4638 38.0069
16.8675 18.6014 22.8323
10.9619 32.4526 66.8831
34.362 27.6226 51.0708
28.3434 21.0731 35.2018
33.8599 26.3767 36.7487
22.6505 16.8835 36.5725
37.8503 39.4659 49.8867
23.2125 26.3528 40.14
17.2463 13.8987 25.9027
17.6699 20.9569 38.4806
19.0448 24.7906 56.2394
35.3336 39.1291 56.3445
23.1247 32.148 56.6339
9.35568 8.30344 28.98
8.92763 18.7579 32.0774
16.1904 26.8631 53.9516
27.4722 43.5471 73.3995
24.3646 35.3178 40.8095
18.1167 23.2538 53.1396
52.4389 61.6098 78.4758
14.2939 20.5995 39.9965
12.2899 20.7353 60.5512
18.8654 22.3633 49.4648
30.1423 27.2783 35.3082
18.1078 31.9457 62.729
13.138 17.6625 48.5944
44.9305 43.8531 45.0515
22.252 49.0114 83.5491
14.7408 13.4821 29.0155
14.0244 22.0593 30.3042
15.7949 20.4788 44.8971
25.2166 34.4455 78.4214
9.97271 32.2166 81.68
25.9065 24.9584 31.0282
20.7768 42.0945 60.4289
17.7069 26.3632 35.3415
14.0224 24.0811 40.8923
12.9633 24.3598 59.3381
11.5738 26.8395 45.9996
21.3216 27.3678 45.3396
7.38279 15.7771 37.3208
16.1099 25.675 51.1425
13.3979 17.5312 25.6894
18.4591 14.6166 28.7004
11.497 28.3644 51.4793
26.8014 25.6918 38.2628
13.6588 14.9638 23.8813
12.398 25.5464 44.5161
12.1548 12.3795 26.0589
7.54837 29.4513 55.0174
29.9309 49.5235 105.497
21.8974 19.6827 40.8135
11.8633 20.5674 26.2326
11.1669 14.1881 40.508
35.436 45.8817 85.5425
11.0165 11.2282 12.7398
8.39672 13.078 35.1183
13.8641 40.3931 70.6693
22.958 14.6196 24.2544
13.6001 32.6249 59.0264
26.6212 32.6778 73.2008
10.8626 22.8721 34.5108
16.0739 25.1199 58.0379
9.67097 13.5518 29.5585
13.1502 13.8134 28.9731
20.1357 29.1579 79.6989
23.1346 58.0942 84.841
11.3917 9.91565 22.2427
22.6336 56.0769 115.873
30.0393 27.4374 44.7005
11.5295 13.2816 21.1489
12.7376 15.3728 42.9362
21.448 16.0725 24.2932
16.5689 17.1735 26.9508
6.50083 11.1796 30.0773
11.9732 14.6329 30.8682
13.8286 9.48466 27.3639
12.8135 23.417 62.0865
23.1701 24.4045 37.1209
16.7221 54.107 130.901
35.8574 29.1595 37.3535
17.2886 20.1536 51.6595
17.7206 38.8041 74.3054
18.7848 21.9807 18.5782
7.96167 16.896 45.495
18.3908 22.4341 32.4671
12.3185 10.2545 24.7753
18.4472 27.6863 42.3312
21.4008 27.6679 40.3147
10.5033 21.9876 58.6869
12.349 14.5001 49.4525
14.6905 19.5563 37.193
6.76871 10.6019 29.8523
7.54156 16.7562 34.9618
9.46462 22.1016 31.0247
11.463 12.8348 40.9637
17.2828 18.1245 33.1618
11.8054 17.4029 41.2729
11.7098 17.6569 29.0057
14.8817 13.7895 28.1517
10.2911 11.8856 29.0075
8.69742 17.1123 28.5732
5.22478 7.74434 17.3789
11.3463 26.9954 48.4528
7.80928 17.5884 67.897
20.8863 21.4441 20.3254
8.82277 29.6459 43.842
4.54248 8.39903 36.2158
18.9884 23.2424 57.0996
9.78512 11.7324 14.7191
13.7972 38.942 76.9257
15.5828 22.8808 44.5821
13.0343 8.35859 9.90096
5.53436 17.4604 37.2911
12.4975 14.2449 53.8064
16.9671 45.1081 61.1634
15.1184 33.8118 83.604
12.6881 12.5999 29.4933
10.1488 12.466 41.4892
20.0526 51.6645 103.286
14.742 12.2934 15.9838
10.0412 10.2017 22.2623
16.8255 48.3743 142.114
28.0261 25.2112 35.8824
7.31718 7.97652 17.3422
9.4997 26.717 89.8782
25.8377 35.4468 66.9365
22.1868 14.5251 30.479
29.1883 44.3639 68.8035
11.7998 30.3654 92.6166
30.7688 44.2962 82.8731
7.06851 15.7344 100.851
28.128 39.5421 35.0032
12.3315 14.4645 31.3494
8.28476 8.64436 16.0544
5.73811 8.97003 13.8811
11.0412 38.6591 83.8185
13.6786 16.7043 79.8086
30.8087 49.4785 82.1251
7.8002 7.19109 21.0073
13.7934 24.667 30.5519
7.87587 28.1154 54.5946
11.4902 54.0971 147.677
21.8154 19.7281 85.7079
34.7211 38.5833 58.0354
14.2175 22.0138 44.714
12.3194 25.3402 48.3389
12.3421 40.3431 123.155
29.4327 27.6035 58.5628
9.721 31.6586 64.898
19.5088 19.7319 42.6697
16.808 12.1354 28.2709
24.2031 37.9036 76.9934
15.7153 26.2714 58.5637
10.7045 27.3384 73.1309
10.98 11.3433 26.3228
11.8174 38.0668 86.7752
18.0928 13.4289 20.1825
7.68785 9.93861 39.1203
19.5608 21.629 42.987
5.70151 15.6514 42.4009
9.42735 19.3174 40.8392
9.43512 13.4626 24.3127
10.2451 25.4056 92.9806
25.1248 43.8684 73.4233
10.0139 9.65193 16.9436
11.8868 19.0965 43.1608
8.26292 22.1941 64.5025
10.7151 14.9751 49.638
14.3933 36.8757 66.3121
15.3048 23.9501 53.6208
6.80835 24.059 57.365
7.64971 11.6922 43.6001
21.0396 33.7318 60.0428
8.01731 10.7725 23.6473
11.2306 15.7222 46.7419
7.64926 13.8773 38.7608
11.4816 9.20954 28.7122
16.3631 15.3752 28.4649
4.36035 7.69328 38.7781
9.96388 21.2883 24.9482
8.5312 10.6058 27.8907
5.34233 19.3357 56.5286
7.37299 23.4829 79.4435
13.2677 18.9546 68.1853
12.9817 23.276 32.9823
8.34385 22.4893 60.3502
18.399 19.3249 39.3371
9.18549 15.2115 25.8214
6.54608 8.21869 21.6457
9.156 14.8562 35.3811
5.95414 7.1078 12.9744
6.3766 3.06273 7.60307
2.78256 11.4422 42.1467
15.1474 14.9987 26.9836
8.72881 7.32965 21.2579
14.181 26.2742 54.2584
9.55784 16.561 51.8137
7.54939 19.0702 53.9451
8.00089 22.7874 63.1021
20.3586 29.074 44.0322
8.56484 15.6706 37.7752
11.0878 16.5153 51.3549
6.95627 18.3631 49.4401
5.28014 16.3612 60.1788
11.0416 16.3433 34.6938
7.69407 9.55889 26.7756
12.7097 18.5544 71.9429
23.9536 58.861 105.931
5.61852 17.6364 56.1232
9.58912 16.8546 44.3915
11.165 12.1118 54.0018
17.0276 12.7309 15.6801
12.0114 16.8763 30.6451
9.61957 30.5479 75.2089
7.17327 3.50497 20.5837
12.9537 16.97 26.7448
5.83616 5.75801 16.2965
9.09503 15.1202 45.1276
4.45457 11.6868 32.5247
8.23149 8.99313 32.1664
8.43885 10.9252 62.2125
18.751 30.3688 37.5054
7.44456 6.83311 19.6758
4.6878 11.0396 45.827
11.1885 23.0058 79.5145
13.7053 21.3699 52.8869
9.43386 9.13664 20.6918
11.2428 25.067 32.4247
7.28372 18.9286 56.1232
12.7906 18.9098 35.7691
12.0518 29.0633 82.5
7.96544 17.023 44.666
13.4011 13.1646 24.2664
5.46987 12.6373 44.5137
7.57031 14.6004 45.1538
15.1655 21.12 48.3526
9.37282 22.5221 87.128
9.10318 24.351 60.2242
10.4563 14.0229 45.7687
10.3331 28.3752 59.7342
6.2681 20.3744 65.0902
15.1024 23.6894 49.0438
10.0095 14.2802 39.923
6.05284 9.05878 22.2358
8.30342 12.2317 29.6494
9.02822 9.38503 30.9649
10.7426 38.2963 107.622
17.6097 28.1581 68.3429
16.5 24.5682 86.294
12.9414 25.2402 40.0697
6.72444 19.3898 46.4423
6.84905 10.4085 31.7792
4.81353 8.10674 13.7897
7.03108 17.1234 42.1995
5.74732 26.8925 76.4757
8.51417 10.1569 30.5133
8.91142 19.4325 108.263
19.6345 43.1319 79.3203
5.98723 25.1142 88.7284
12.3255 34.3118 88.2539
9.07557 22.2358 86.7578
11.4568 22.2611 70.265
12.6471 22.0275 21.4398
3.55454 8.22281 23.7208
7.57557 29.6608 60.0837
6.91627 18.1312 70.6954
14.2201 14.3196 35.6477
9.78391 21.2556 57.1484
13.211 28.4618 55.8943
4.59451 9.53016 26.6827
7.54846 13.6087 61.4026
12.8704 15.941 48.8465
13.9922 15.111 40.4515
8.45025 9.4129 16.4437
4.70733 8.05999 23.8133
10.4766 18.3696 72.0938
15.5512 39.8994 98.397
12.6855 18.6213 71.2895
12.5087 13.4586 28.772
2.91425 14.339 31.3508
7.01166 13.3069 53.3781
8.23475 12.5159 29.4351
4.32224 30.1442 97.4513
16.7964 26.5691 62.0775
7.60404 4.8765 43.6846
11.341 19.9049 45.6725
6.13861 13.0708 57.7139
12.9212 22.5231 73.2086
11.6119 19.1015 17.201
5.66674 9.08252 32.893
7.28828 7.20904 16.642
5.95805 20.1327 47.708
6.60164 7.18323 8.52367
4.06242 18.3545 55.2828
12.0857 26.0341 68.5423
7.25561 10.5751 68.8562
19.2157 28.3769 71.6505
9.81107 21.9911 97.0611
19.2724 40.6225 64.5497
10.3206 11.2792 25.177
5.61803 7.77932 35.8117
4.31306 15.9801 53.4564
11.0001 9.97977 17.8489
3.91955 17.6169 65.1034
9.403 14.6666 41.5327
5.0594 14.5229 41.4692
6.64649 18.6521 67.0961
10.6861 20.3687 42.0971
6.90144 18.4167 57.4785
9.70106 14.9441 33.1853
5.71064 9.04695 54.8281
12.3256 27.8261 81.6822
8.44338 10.1896 14.6484
2.17905 13.9353 51.9919
8.96527 7.32046 44.422
8.39082 14.99 26.8836
6.01015 6.76405 26.2789
12.5351 22.2686 62.2796
7.94845 14.7797 53.325
10.7486 16.0561 26.3519
4.33748 21.2409 83.8629
11.6963 31.3398 88.7748
6.56306 11.409 34.5733
10.2189 6.64445 26.4278
5.83617 6.72986 19.2688
7.99158 13.5345 60.5199
6.61562 10.91 59.5522
9.19281 24.0371 62.7477
4.31178 22.6204 42.8906
8.14635 16.4641 49.6795
6.23467 13.6392 49.0334
11.3315 16.1313 59.242
13.988 35.9425 76.9153
13.3363 27.7292 82.5519
7.20122 15.6376 53.0747
10.0866 24.2531 69.3454
8.54998 22.1873 64.1952
10.8249 31.2626 89.4525
12.2707 19.2176 42.9508
5.55579 23.6303 112.701
10.965 32.3107 95.9914
12.9889 19.7325 42.6445
7.84643 7.2183 24.8778
2.02182 6.83396 23.3003
6.14727 24.6783 73.7051
10.9203 16.3658 84.2412
9.9707 6.88125 15.7128
6.13705 18.1242 23.4413
6.18673 18.6288 56.8133
6.07822 14.1455 39.8844
7.76987 6.14625 45.7255
12.1572 15.1213 49.8938
9.60209 11.2401 32.1493
7.11933 11.3006 21.4967
2.64397 9.32636 59.915
10.2742 17.7227 45.3499
9.55583 16.9691 25.8233
3.44454 5.61249 28.9975
4.57485 8.20602 31.303
9.14299 9.86628 23.9684
5.43004 22.2527 66.8614
9.75592 12.9138 29.5553
9.18083 35.4243 113.527
9.23663 5.44321 16.2793
6.96685 10.5313 35.2521
9.41474 15.6737 35.7016
4.58215 16.1227 62.5563
3.88891 17.2608 67.7204
9.34182 16.1882 48.366
9.32501 10.796 40.7367
1.79697 6.88872 41.5006
9.78507 18.6909 62.9633
8.85409 7.92799 28.2702
10.5167 16.8521 47.4787
6.90051 25.1475 79.2983
5.64914 4.7978 14.7692
3.96976 6.31263 30.2635
4.34613 4.0875 49.2788
11.3535 25.0203 82.3941
4.47528 14.4768 64.3043
9.2502 28.4231 60.0816
7.29104 21.5618 70.8455
8.943 43.5507 101.206
8.8085 5.55346 20.2402
5.07474 7.82112 35.1553
7.0442 12.9651 54.8849
11.2165 19.6174 64.4066
5.96068 19.7556 50.7302
11.5672 22.6891 94.6259
10.0918 12.1102 15.0446
4.54062 22.5224 45.3583
5.82043 8.94668 28.6519
5.54295 7.88522 53.6156
5.2351 19.5763 46.6808
4.06188 25.2512 85.6198
9.37312 12.3613 48.9678
9.65292 22.9769 61.7888
5.89598 11.2323 35.8292
6.609 18.9942 55.5611
7.59892 13.0979 44.9553
4.19293 14.6722 64.4038
9.44162 11.0451 89.6961
9.93849 21.1463 40.6502
7.4651 21.9933 60.2612
8.34333 20.3113 49.1066
8.59093 23.3369 101.431
8.74843 15.9616 95.1189
13.4695 21.6283 66.9841
9.25178 18.082 38.2105
6.62287 21.2992 52.2878
5.72932 7.03473 65.2829
13.1549 28.9076 85.4759
6.98227 21.1776 79.8651
11.6286 14.4095 62.626
8.87411 20.095 48.9548
10.2435 18.7159 39.8321
6.6984 11.3758 14.9068
2.84935 9.25889 28.9469
3.30396 6.24228 16.5692
3.64716 13.2841 81.2061
13.5004 26.2167 86.872
9.94007 17.7691 32.854
5.31362 3.32219 30.1002
6.95572 29.4712 70.6735
7.85318 13.3971 35.6692
3.59657 7.01899 38.0081
6.69001 8.81119 46.5249
7.88374 21.018 60.7786
9.53508 10.7926 25.708
6.75556 19.1265 72.9352
8.59995 26.3017 71.4281
8.91767 16.6168 74.8727
8.95122 13.6894 52.6714
8.25973 11.1492 27.7653
5.78833 12.6287 36.4604
4.485 5.24067 28.7919
5.54244 15.6649 33.7478
5.0308 11.9113 51.1205
8.53715 11.3755 49.769
9.79471 32.0369 117.449
8.61794 7.93184 20.7213
3.0142 12.0781 20.1669
5.04513 6.21019 16.6328
2.13175 10.5482 21.2223
4.79862 13.0353 61.759
9.40699 9.38946 36.3465
5.62264 13.2375 51.0971
3.05837 22.844 112.005
8.46016 12.1609 18.6322
3.07732 13.8987 30.3003
4.81775 11.9923 62.333
4.58669 17.1068 27.6463
4.03921 7.43207 62.2655
8.59163 16.6806 68.7194
8.36861 27.8871 39.7013
3.61047 11.7305 48.6671
8.41057 15.3046 62.115
6.25404 12.6952 85.5732
12.6539 6.81157 49.8581
15.0159 24.5423 28.1874
3.99664 9.5438 48.8642
9.2363 13.3923 39.0512
5.78089 10.9287 75.9082
15.2047 31.7653 59.2476
4.18924 23.6747 61.6444
3.63422 5.9049 72.21
9.37224 22.9294 108.266
11.9407 37.9247 87.2902
6.51155 12.7571 38.3965
4.4597 4.79855 25.025
5.50989 20.6723 41.8325
4.41622 9.86772 55.5375
7.53565 12.0058 116.35
8.48479 8.60092 17.7047
5.25639 16.9157 34.862
4.02482 13.241 51.5489
7.49709 19.1487 61.1059
8.65761 24.4114 72.3588
8.52106 17.7647 66.6955
7.01868 7.02873 42.1314
5.89395 9.54215 40.3239
6.33231 15.6296 37.3143
9.52494 13.2451 24.5259
7.33935 20.2579 29.1441
2.23846 16.3686 43.276
3.27189 6.23393 23.3554
6.46382 8.34714 48.1253
10.8148 15.3442 48.253
6.34915 17.5344 37.879
1.8707 13.623 100.849
11.5014 15.9754 50.9661
4.66685 5.05229 30.0438
8.27503 9.22068 31.9326
7.14897 10.5671 26.162
2.95598 19.6416 51.8022
4.95448 11.2329 83.4574
11.4901 17.0433 38.1001
8.11691 24.3623 113.431
11.3522 15.9071 65.1771
7.02504 19.5454 37.555
3.59426 6.85984 46.8274
6.25912 8.9866 38.1354
2.8511 9.46957 65.338
10.3473 10.8393 33.8653
5.5289 20.1157 29.1835
3.5304 4.8002 29.3682
3.59968 7.24089 41.5007
7.61224 13.4173 24.5311
4.23242 12.0576 71.6559
9.75057 15.09 71.8985
8.52113 17.4001 37.2629
5.83311 20.6366 54.9936
3.41592 10.73 38.548
6.85863 6.38983 46.8321
9.38119 8.51481 32.8589
8.10939 11.5441 42.1521
8.3192 14.9297 46.6133
9.61302 14.09 20.6448
2.99271 18.9254 70.0643
8.39402 15.4581 35.9649
3.95844 15.2431 62.1688
9.05756 15.4289 58.9742
3.09106 20.9519 87.3442
7.20623 20.4177 43.8738
5.53216 8.28818 61.4262
7.68357 8.28891 23.8109
2.86886 15.5651 67.1631
9.99231 7.51721 46.6189
6.85755 18.4902 74.5445
8.11667 18.3105 23.768
2.50415 13.3924 48.9854
5.86131 8.11977 38.1424
5.62631 8.88544 26.4265
4.03722 5.66003 52.2449
5.08725 18.0502 33.1277
4.26541 4.14319 23.0304
5.42979 4.48196 10.5274
5.27034 21.1755 130.159
15.6501 24.6406 34.7871
6.78582 12.9043 38.9291
4.65483 13.2831 44.62
2.28191 7.0401 35.0238
4.19597 4.13863 33.3824
5.27858 9.43199 79.3952
9.542 33.2683 74.1924
8.68259 8.94841 46.8686
9.99481 21.4617 67.4725
3.8888 4.86524 15.8125
3.93191 11.8826 73.3331
4.06045 18.8848 110.907
12.8673 21.8339 15.9197
4.33556 11.6437 44.688
4.30792 4.52206 4.99235
2.17562 7.04489 35.3336
5.90861 4.87563 12.8948
2.44457 12.9579 46.3495
5.06057 24.277 73.1935
7.5961 14.353 81.979
7.30451 13.8336 68.1332
9.72005 18.0736 57.3486
8.47189 10.1539 37.0152
8.30313 19.5094 57.1841
6.90991 5.95574 24.4611
4.12981 9.16987 69.5047
11.5704 18.5549 19.5797
2.72253 11.5573 101.946
7.65509 20.8837 42.6096
4.36283 20.4262 82.0025
9.11574 6.76357 20.9674
3.8369 9.6492 57.3018
9.60667 24.1123 70.4947
3.29102 6.22513 16.7396
5.3498 9.80692 49.2082
4.86496 6.40237 30.2646
7.66197 26.0171 114.756
7.5782 10.7778 48.9742
4.72796 21.6905 86.9887
7.97456 13.4744 33.5112
5.86608 26.1024 42.0647
4.80651 4.35181 29.3673
6.00032 8.68065 26.5296
6.48226 33.8698 148.349
4.19504 16.5577 88.1605
5.9807 12.5029 76.1036
5.33806 11.3522 12.5807
2.21217 15.1386 66.0856
9.21122 18.8539 51.2936
2.69831 9.13678 24.0318
4.66607 4.67658 42.4647
3.81959 14.4447 23.3769
4.61002 16.6602 75.26
4.66813 17.4796 43.2922
4.50299 8.57683 38.4851
7.01486 11.825 62.7395
5.13112 13.6054 27.1668
3.6187 12.2574 56.7987
8.33538 12.4849 31.9161
4.92759 11.5845 40.815
5.39104 3.43603 12.5669
4.1817 4.18401 32.4572
4.6512 9.3493 31.5276
5.08102 4.24379 47.2916
8.55021 18.505 40.2949
5.45575 13.9929 57.444
3.50507 4.35661 35.4362
2.30158 9.51087 3.87725
2.23049 9.34282 34.0288
3.64612 20.9859 67.4474
6.84638 7.67915 29.7986
5.9594 7.93349 28.2186
4.35299 17.2867 106.029
8.4629 14.2927 37.2234
5.69743 14.6341 31.3504
4.01534 9.74103 22.0358
4.73745 4.9648 17.3556
2.9722 14.961 110.605
14.0666 16.1534 60.4157
6.35886 14.9845 37.9613
6.41686 13.1191 67.1351
7.60854 23.3644 75.9548
7.89392 14.1787 63.5068
9.4621 18.9757 56.6566
5.05659 12.4204 61.591
9.88634 13.1292 49.8032
3.76504 9.99013 20.5986
2.13864 12.0202 58.6757
6.34507 6.14885 24.6245
2.29094 13.2332 44.1367
6.47216 12.4118 22.3811
2.85131 16.3452 96.2563
9.33137 7.48076 52.3633
8.54525 18.0333 38.7711
2.9672 8.38513 53.2722
8.38453 35.3466 165.546
9.85763 17.891 65.2226
6.68361 14.9133 57.4053
6.31924 9.64491 40.5311
6.00773 32.1964 233.556
16.7151 35.24 36.9383
3.943 6.46172 54.8987
7.47258 9.97922 25.4132
4.45949 6.50071 35.0585
6.02399 14.8179 53.0323
4.99793 15.244 22.3059
2.01968 15.5293 48.4645
6.28348 8.48977 67.7171
8.81066 21.3102 57.1471
5.25849 18.7981 79.47
4.99032 13.2493 62.6616
5.65993 12.276 20.6734
2.06646 6.11507 45.1379
7.16259 20.8122 33.9472
4.67318 7.10615 70.1174
10.0604 12.2036 36.8724
3.28079 10.0592 67.9237
3.75887 36.1429 100.325
10.6376 13.7979 28.1658
5.50684 5.57109 34.3814
4.56313 7.93049 31.1235
5.75814 4.43825 40.4155
6.29915 8.20857 23.4729
4.31311 10.9633 78.9481
4.45066 25.2417 41.1111
3.32798 9.96144 38.3349
5.92146 9.58225 68.1785
5.77905 11.188 49.7635
3.40795 8.79355 76.8344
5.54516 30.3695 53.0516
7.12972 10.9878 70.292
5.35959 22.3321 57.8246
6.60186 7.07525 45.9858
4.21066 17.7566 71.3433
9.37364 7.82469 14.4082
2.98245 11.8596 40.5952
4.76321 3.02558 31.3636
4.75704 11.7878 51.2218
2.462 7.15872 27.9474
1.64945 9.55572 43.1994
2.0199 11.4828 27.0854
3.76002 12.5821 97.4193
9.06272 28.8656 46.7356
6.12085 7.22677 61.2244
8.63481 5.74255 35.9895
5.17834 18.4197 45.4917
6.26209 13.804 36.066
6.78291 15.6535 43.52
1.6692 15.8628 58.9486
4.83852 9.20777 47.2014
5.76943 13.2609 43.1925
6.67823 8.08643 35.2667
6.63363 13.9443 110.01
12.052 18.1808 22.2579
2.8836 8.03144 22.9377
5.20919 14.5096 55.7902
2.80412 4.92898 30.0017
3.50823 9.56314 82.0743
5.8998 21.6989 25.1858
4.88681 8.58171 33.7099
4.16595 4.7655 28.7948
6.13886 23.6998 104.245
8.01552 18.3877 38.0137
3.63329 5.57983 31.5111
3.19592 7.68976 59.6426
8.06789 21.1469 75.8224
6.04969 17.4426 49.1301
7.55499 5.55743 49.9155
5.88196 9.05536 22.0981
5.46096 4.31645 32.3524
6.42383 6.63823 57.0416
7.9687 14.9273 38.7765
2.5454 9.72254 22.6227
3.52802 9.99441 99.8759
14.0686 42.0849 87.6243
4.7645 12.2518 113.865
11.8055 19.4627 80.8285
5.93208 14.3069 65.9373
5.81462 22.8809 53.4773
5.45356 17.026 37.6017
5.35092 15.0468 92.471
9.02395 13.5908 50.507
6.24162 18.1519 41.9921
4.7189 13.6958 68.7477
7.37988 7.71026 76.0732
11.7591 14.2218 50.32
4.86429 15.8627 24.7154
3.22572 4.66656 37.6045
6.48691 10.2552 44.8423
5.79318 21.7084 88.8755
3.48054 20.4044 57.6562
7.14993 6.79957 45.8912
3.79427 9.0364 53.7446
5.18027 17.2803 45.1108
4.19342 13.8239 72.4411
10.1859 15.4475 53.5658
6.91778 12.8315 58.4406
8.02287 11.1361 27.5019
3.10385 11.1443 44.6401
5.85574 9.46075 31.3755
4.86139 6.73354 87.8776
6.38746 19.7535 53.3887
6.93143 10.4848 71.6121
9.16877 16.1084 28.5373
3.56614 9.37978 16.3949
2.7409 1.36752 13.683
2.34223 4.70003 68.4887
6.32443 25.5922 13.8637
3.37383 10.1009 46.2721
9.16021 15.306 75.6595
8.44651 24.3425 75.0569
6.82545 3.85238 34.2772
4.88969 19.5008 64.3099
7.71943 12.6401 53.5651
7.7339 6.92901 35.5937
4.23364 5.29038 59.5299
8.40784 14.3827 63.2379
8.19885 15.5968 78.839
10.7506 9.42181 36.7892
6.89412 11.8933 9.66922
2.30959 5.07818 42.8391
9.02548 21.7981 51.6062
3.24554 12.8099 39.0192
1.54338 8.76387 40.3866
6.35782 8.6066 47.8299
6.26295 18.0512 42.3409
5.42202 12.403 35.8364
2.78414 7.02996 41.4632
4.6903 5.63678 39.8288
6.295 10.781 33.9218
3.48748 11.878 68.9958
5.39422 24.457 120.988
6.2044 9.42761 16.6725
1.38879 2.23471 52.9457
4.01624 13.0415 34.4433
4.98928 12.5356 24.7405
2.60145 15.972 65.7927
7.22066 3.83557 25.8036
5.52612 11.9557 44.67
3.43261 6.0591 15.5911
3.18053 6.79507 22.0549
5.15953 9.87904 37.674
2.74256 15.601 34.3684
3.79822 4.48238 31.1257
1.89665 10.0199 39.1
6.0267 13.2013 58.2825
7.25745 11.2756 40.0972
3.59047 8.74854 16.2088
4.67979 13.1862 82.2717
4.08353 14.8416 27.7918
3.26625 12.3202 112.424
9.40898 17.1502 19.8081
5.16796 6.42921 45.131
3.6521 16.579 40.7963
6.52702 12.4769 89.5943
7.85264 12.1386 25.3331
2.91722 15.3217 50.708
8.39089 3.6577 36.5781
5.34993 16.6332 79.5965
5.61607 23.1111 95.4862
9.13786 0 0