# pn-170911/CsIIF-av-USN7-1280-1959.psd
# Power spectrum* (dif=0,1,2) (really just |FT|^2)
# NOTE: only the first half! (symmetric)
# weeks: 1280-1959
# 540 clock-days, 522 excluded
# PSD: 1441
6490.98 0.272874 0.0300777
398001 9.23995 0.0467428
1.15915e+06 21.4746 0.0486731
509033 18.8522 0.0466773
319088 22.189 0.0456668
164809 16.5441 0.0478313
137658 20.0651 0.0442875
92456.4 17.6988 0.0514178
68217.7 17.9281 0.0537544
57943.5 18.8366 0.0546776
45845.8 18.2364 0.06031
35144.7 17.2713 0.0539363
33843.5 18.3784 0.0595874
27571.7 18.0341 0.0701023
22788.5 18.124 0.0621891
19972 17.3346 0.0629201
18268.9 17.7236 0.0639991
15073.9 18.0156 0.0648127
14074.7 18.0897 0.0714379
13023.8 19.1198 0.0725842
10974 17.6868 0.0766785
9281.71 16.3326 0.0784535
9045.26 17.2894 0.0935079
8419.49 18.2502 0.0910356
7766.74 18.0379 0.0961463
7549.34 19.1088 0.10237
6960.38 18.5093 0.109654
6636.65 19.6053 0.115619
5561.56 16.9147 0.105566
5617.29 18.2613 0.122469
5075.86 18.3125 0.131763
4916.58 18.8156 0.135436
4316.07 17.4645 0.13298
4156.24 18.2205 0.147878
3878.84 17.2828 0.138203
3856.47 18.6436 0.157391
3211.03 16.7462 0.160373
3248.45 17.5117 0.152867
3161.53 18.0776 0.172946
3167.09 18.7415 0.18496
2820.89 17.4343 0.175803
2684.21 17.8707 0.177579
2673.77 18.8061 0.198024
2499.44 18.4769 0.212464
2423.72 17.5597 0.207482
2207.45 16.7767 0.201154
2042.98 16.6625 0.215687
2193.84 18.741 0.247475
1981.22 18.0281 0.261105
2012.55 18.5368 0.257594
1870.72 18.6559 0.261719
1716.89 17.4936 0.260513
1718.56 18.4617 0.275029
1643.76 17.8855 0.28364
1521.7 17.3782 0.275231
1513.53 18.2258 0.29543
1577.51 18.6869 0.320042
1463.19 18.878 0.331782
1305.69 17.3335 0.310115
1339.88 19.2768 0.364747
1212.57 17.4276 0.338832
1268.3 19.1059 0.371923
1180.52 17.6528 0.376481
1159.03 18.3295 0.390181
1193.53 19.3428 0.421825
1131.17 18.4781 0.42629
1018.37 17.9505 0.395141
971.319 16.4193 0.384757
1029.63 18.7972 0.461872
894.734 17.2236 0.444385
945.426 17.6974 0.452317
956.229 18.3615 0.491615
869.84 17.1248 0.444796
848.849 17.4774 0.471323
828.463 17.3479 0.477807
862.993 18.6547 0.532
830.175 18.7367 0.561294
719.335 16.8745 0.499955
744.389 18.2973 0.57494
726.561 17.4864 0.553168
711.122 17.6595 0.567519
707.778 17.9725 0.602516
669.92 18.3166 0.639331
646.841 17.1917 0.607241
670.78 19.1458 0.678712
610.823 17.7163 0.650152
650.712 17.7082 0.664608
615.687 18.3073 0.67382
591.514 18.2883 0.7043
569.343 17.3555 0.675846
579.275 18.0743 0.731182
575.912 17.9083 0.742096
503.862 16.9693 0.706595
486.973 16.5966 0.705159
524.324 17.9127 0.757915
512.47 17.4329 0.784128
494.881 18.2097 0.824682
480.057 17.7156 0.796988
474.736 17.949 0.869112
478.047 18.5437 0.886022
425.134 16.4069 0.813907
448.023 18.1206 0.908846
430.841 18.2586 0.932746
450.02 18.0514 0.935801
409.418 17.2539 0.902855
403.957 17.9255 0.968948
372.774 16.3976 0.894476
393.834 17.9118 1.02275
385.203 17.3548 1.00065
411.537 19.1009 1.11229
417.13 19.1725 1.11547
384.384 18.4636 1.09178
402.92 18.4374 1.14182
348.744 17.5659 1.08582
362.271 17.9513 1.10163
352.119 16.9857 1.0686
348.88 18.8011 1.23141
346.341 18.5719 1.19982
351.409 19.0003 1.2792
310.484 17.519 1.19823
304.942 16.9115 1.15749
328.37 18.2715 1.27714
313.455 18.0282 1.27791
321.209 18.7936 1.34592
281.976 16.9704 1.24207
283.918 17.2373 1.28428
284.386 17.3395 1.31982
274.519 17.5521 1.35257
296.811 18.4727 1.42268
269.818 17.4041 1.38449
283.844 18.0519 1.4316
273.57 18.4251 1.48373
252.051 16.7758 1.38825
261.156 17.8554 1.4977
274.364 19.0879 1.64664
264.96 18.104 1.56049
237.704 17.1619 1.49138
236.97 18.2226 1.60538
232.6 16.4768 1.51928
224.106 16.7505 1.57842
236.048 18.5064 1.7445
213.336 16.6326 1.56604
233.347 18.7263 1.80345
242.427 18.5273 1.78614
227.566 18.1054 1.81057
224.588 17.8765 1.7493
213.657 17.2948 1.74067
223.724 17.5616 1.77376
197.13 16.5102 1.72847
198.151 16.6324 1.70745
209.435 17.8018 1.875
207.4 18.6799 2.02796
199.89 17.692 1.89342
205.921 17.9298 1.98502
197.42 18.0793 2.03045
202.324 19.0137 2.16913
193.574 18.0559 2.07945
175.586 17.267 2.00304
186.418 18.0953 2.15187
190.927 18.6976 2.20964
179.064 18.0603 2.1611
169.335 17.0283 2.13224
180.738 18.2004 2.24516
177.608 18.1957 2.23969
170.307 17.8153 2.26963
164.317 17.5143 2.2587
159.091 16.6113 2.15357
154.789 16.8539 2.21331
161.371 17.7172 2.34004
164.54 18.0649 2.4038
157.053 17.4808 2.37279
155.327 16.6941 2.30342
160.234 18.2808 2.53587
146.612 17.1673 2.4305
160.656 19.1446 2.68219
161.482 18.6824 2.74527
147.193 16.4883 2.40602
136.676 16.9281 2.52289
145.069 17.3367 2.5481
154.25 19.1133 2.85621
139.203 17.5691 2.69659
142.872 18.4741 2.79882
145.062 17.8531 2.77038
124.406 15.8527 2.53968
135.704 17.4685 2.76451
141.875 18.4634 2.93441
132.337 17.2632 2.82916
129.619 17.8409 2.92242
129.728 18.4408 3.10247
124.141 17.3486 2.87741
129.721 17.8173 3.00778
129.047 17.7608 3.04614
126.97 17.6893 3.04473
123.805 17.6794 3.09193
123.139 18.0782 3.19389
117.603 17.8373 3.1607
123.429 18.1585 3.29343
127.557 19.2489 3.41223
121.17 18.1071 3.2848
114.745 17.8436 3.30798
104.381 16.2973 3.05438
106.674 16.3677 3.18615
127.551 20.2659 3.83502
108.986 17.8373 3.55885
111.875 17.7567 3.46084
105.748 16.2469 3.15082
108.267 18.569 3.74837
111.986 18.2112 3.69608
106.776 17.0982 3.44904
96.3164 16.1786 3.3001
102.791 17.2915 3.53488
101.256 17.9755 3.75496
102.505 16.8287 3.53366
110.107 18.6981 3.88942
101.323 17.7023 3.79166
103.494 18.3691 3.94783
96.2032 16.9822 3.74641
98.358 17.151 3.76529
96.7206 17.6676 3.8076
105.175 19.8718 4.37351
94.8633 16.8024 3.80723
95.642 17.8685 4.19065
93.723 17.9349 4.16741
91.5151 17.1388 3.92883
91.469 17.5731 4.07907
97.0798 19.3903 4.54536
83.3223 15.6641 3.68941
92.9806 18.2981 4.42688
88.9677 17.6298 4.21413
90.0489 17.5907 4.25818
83.3523 17.756 4.44906
85.7334 17.8185 4.34777
81.6789 16.7872 4.1744
84.7509 17.1958 4.39488
76.1654 15.9574 4.09334
83.956 17.7413 4.48154
77.5371 16.5897 4.35161
77.218 17.0225 4.45568
85.3505 18.083 4.70073
80.33 17.7644 4.71404
86.0164 19.2206 5.18646
85.1439 18.8136 5.03996
80.634 17.7125 4.85741
76.0873 16.1981 4.39132
79.2313 17.7705 4.91108
76.6825 16.8999 4.63236
75.3394 17.3835 4.94079
75.7686 18.1258 5.13702
70.8436 16.8475 4.8467
72.7998 16.281 4.63576
73.617 17.6854 5.02992
75.4688 17.5918 5.15917
73.0188 16.8299 4.91021
75.4776 18.4683 5.49527
66.7175 15.9673 4.72353
67.4076 17.4725 5.31875
72.5994 17.0681 4.9887
70.0544 17.2503 5.38668
68.4729 17.9017 5.50284
64.7687 16.2411 5.07141
69.3715 18.3697 5.77613
72.061 17.6043 5.39418
70.5316 17.9103 5.72959
66.6762 17.2461 5.52729
67.2476 17.1849 5.41759
69.0313 18.3343 5.98564
68.4453 18.6045 6.00943
62.0044 16.7782 5.55019
66.5665 17.5645 5.86095
65.2205 17.5047 5.84679
63.662 17.774 5.98287
61.7339 17.8152 6.14789
61.2817 16.7213 5.74392
59.1539 16.3326 5.56986
65.224 17.3197 6.02146
61.8912 17.9858 6.24426
62.1018 16.6644 5.88012
64.7475 18.7448 6.6989
62.935 18.5664 6.55247
60.5002 17.3819 6.27681
60.9004 17.6256 6.35498
58.513 16.9701 6.13996
59.1455 17.8596 6.5566
58.7797 16.9087 6.16485
56.4967 18.1184 6.74172
58.4838 17.5357 6.56768
61.3694 18.1154 6.86775
59.0551 17.6903 6.7367
53.9735 16.8274 6.46748
58.2023 18.3972 7.07374
59.2457 16.9622 6.58546
61.965 19.4403 7.61914
54.6775 16.2859 6.41881
53.7209 17.3653 6.81482
62.9314 19.8403 7.62815
55.571 17.6424 7.25253
58.9723 19.0796 7.71404
51.6988 17.2538 7.02922
55.167 18.2687 7.48217
52.6713 18.0932 7.46439
51.4976 17.8941 7.46757
49.2848 16.5042 6.69386
49.5601 17.4503 7.52253
52.2276 16.8772 6.98444
47.5086 16.0094 6.8327
52.1138 17.4349 7.23327
50.3535 17.6549 7.73891
49.2589 16.4478 7.08276
50.811 17.3214 7.39473
51.6356 18.4057 8.08168
50.114 17.1721 7.63725
54.3107 18.6622 8.18839
44.6683 16.5488 7.40056
45.1162 16.8239 7.54202
47.9242 17.4492 8.04366
49.4742 16.0547 7.18588
46.2979 17.2693 8.08219
48.5162 17.0513 7.83136
48.9059 17.2135 7.83475
46.297 16.9503 7.76963
47.1289 16.8576 7.83221
45.6288 17.1301 8.16096
48.1644 18.2861 8.76053
45.6263 17.3711 8.28317
42.4159 16.815 7.93509
43.5535 17.0423 8.32768
44.5793 17.2214 8.30233
47.2211 17.4743 8.57489
44.4405 18.3162 9.01801
44.1242 17.393 8.36425
44.1745 17.8345 8.88752
43.1958 17.0629 8.55393
43.3092 17.9259 8.88569
39.9609 17.1094 8.7448
41.7028 16.9391 8.55508
43.6859 16.878 8.60516
42.3695 17.3724 8.91566
42.5607 17.7033 9.02417
45.9046 19.1649 9.88078
40.9394 17.4257 9.09407
38.1772 16.301 8.49832
42.6657 18.4865 9.8869
40.1029 16.7963 9.09389
45.7888 18.1652 9.40782
39.6195 17.9001 9.68198
40.129 17.3696 9.47711
45.7828 18.3551 9.86981
40.0776 17.2746 9.41479
39.456 17.3461 9.54413
41.8475 18.8179 10.3919
43.1134 18.9879 10.5546
41.9062 17.4378 9.68735
37.2032 16.3286 9.26444
35.6405 16.5659 9.40261
39.9094 17.4979 10.1819
41.4986 18.3885 10.346
39.1687 18.1094 10.3302
39.582 17.6017 10.3031
33.4711 15.534 8.94383
38.4847 16.3321 9.40807
37.7219 17.6948 10.0321
37.9203 17.9719 10.8489
35.3448 16.7846 9.87079
37.0008 16.5704 9.79763
38.5211 17.8151 10.5199
39.642 18.4786 10.9159
36.9321 17.5637 10.6832
36.6701 17.7916 10.7835
32.892 16.1221 9.84647
36.2173 18.0531 11.1871
35.8459 16.5897 10.2751
34.5918 17.0577 10.6093
35.5449 17.5138 11.0236
36.7261 18.267 11.3149
36.9402 18.2123 11.7061
35.1956 17.7859 11.3009
37.9464 18.6983 11.5554
37.0242 19.0593 12.0079
35.3648 18.09 11.5436
33.0035 16.4523 10.4246
34.8588 17.6154 11.5086
32.2784 16.4277 11.0468
31.8841 16.7925 11.1215
33.5732 17.0976 11.6044
33.5922 17.6959 11.7053
33.8363 17.175 11.3808
33.966 17.5731 11.6523
34.8287 17.451 11.8246
32.1091 17.8254 11.6869
31.0635 17.1366 11.842
34.3959 17.8196 12.1178
34.321 17.4731 11.8196
30.7298 16.4432 11.5756
33.6474 17.9071 12.2529
32.3763 18.3502 12.8213
30.966 16.5523 11.7999
29.6141 15.6579 11.2745
31.3849 17.4305 11.905
31.1314 16.3617 11.3175
28.9456 15.9792 11.4097
31.8334 17.8264 12.4703
28.4465 17.6574 12.8812
32.847 18.5455 13.2245
28.1572 16.1593 12.1365
30.5073 16.9104 12.2931
29.955 17.8674 13.0905
29.797 16.849 12.2133
31.7898 17.9841 13.3585
28.0545 16.8669 12.5654
30.4924 17.4002 13.1111
29.8499 17.4581 13.1361
29.4444 17.4776 13.1346
28.9603 17.6333 13.5849
29.9055 16.5641 12.2657
33.3315 19.0097 14.2902
31.9266 17.9425 13.4713
28.879 17.9788 14.1934
27.8092 16.3009 12.319
28.76 17.5073 13.5468
29.2961 18.0767 13.9528
28.7949 17.8979 13.9016
25.695 16.5624 13.5117
28.1118 17.0049 13.3666
27.4772 16.7706 13.2744
28.6638 17.9958 14.574
30.8567 19.0818 14.7636
28.2574 18.1754 14.6658
29.3423 17.5596 13.5352
28.1265 17.6868 14.5824
28.8606 17.969 14.8701
27.1093 16.7241 13.629
27.1042 16.3136 13.696
28.0226 16.8954 13.7701
27.1035 17.281 14.0548
25.109 16.5035 13.7389
24.7464 16.6045 14.4271
29.6307 19.4186 16.0391
26.778 17.7354 15.1404
27.5183 17.8378 14.986
28.5134 17.2844 14.1881
27.9365 18.174 15.3736
25.6805 17.5095 15.3708
23.7341 16.1686 14.1068
26.5509 18.397 15.6752
25.4151 16.5744 14.6445
25.4961 17.0503 14.9383
28.4922 19.3197 16.3741
24.6856 16.9569 15.4891
25.4087 18.1015 15.8837
25.4193 16.9163 15.3716
25.3864 17.8234 15.8911
25.2196 17.3458 15.4479
25.8389 17.9215 15.9391
25.7151 16.8192 15.1758
25.2239 17.6733 15.858
24.8273 16.2656 15.1381
24.4345 16.5535 14.9327
25.5023 17.6382 16.6382
24.5617 16.8928 15.0302
23.6511 17.5159 16.1189
24.584 17.1346 16.0502
25.2258 18.0415 16.3875
22.4355 16.1905 15.1746
25.3207 18.907 17.4731
25.2493 18.343 17.4414
24.6034 18.534 17.7445
23.7994 16.8655 15.5005
23.5746 16.8099 15.924
23.2198 17.6008 17.0116
23.6479 17.7581 16.9982
24.6622 17.4341 16.8311
23.0412 17.1431 16.2152
20.7028 17.3194 16.8466
22.4045 16.8976 16.4057
23.2528 16.2536 15.555
22.358 16.6596 16.9005
22.5296 17.3783 17.0757
22.2912 16.8656 16.8612
22.4342 17.0392 16.6367
22.2959 16.9374 17.4915
23.2257 18.0379 17.7514
24.0262 18.6163 18.3394
20.4154 15.2288 15.5104
21.6006 16.4575 16.698
20.6217 16.5935 17.2019
22.1726 17.0109 16.8053
21.4665 16.9567 17.6651
21.0017 16.3481 16.8364
21.5344 17.86 18.2996
19.6669 16.5231 17.8683
23.2703 17.68 17.56
19.8955 16.669 16.8704
20.5133 16.4083 17.3622
22.6474 17.5023 18.2737
21.6876 17.3177 18.7534
22.8694 17.8153 18.0491
21.0468 18.0611 19.6131
20.9034 16.5467 17.1219
21.3122 17.8755 19.4636
20.18 17.1189 18.4754
21.4022 17.2591 18.3287
20.13 17.1247 18.6446
21.3387 17.1433 18.3177
20.5022 16.7038 18.8057
21.1061 16.8149 17.9195
19.0049 16.9379 19.0046
20.7955 17.5744 18.7976
19.1724 16.3623 18.4493
19.8417 17.7774 19.9724
20.7132 16.7337 18.4442
21.4304 17.9036 19.7191
19.6422 17.0894 19.482
19.7364 16.6804 19.0288
20.9877 17.8131 19.8292
20.4923 18.1959 20.0055
18.9625 17.6955 19.9655
19.1105 15.6537 18.0694
20.1039 17.2464 19.4142
20.7843 17.3371 20.024
19.8732 16.8177 19.2519
18.8693 16.9924 19.9108
17.3217 15.0524 17.838
21.162 18.3321 21.0975
19.9841 17.8447 20.3386
19.4142 17.9418 21.3681
18.8584 17.1132 19.7781
18.9958 16.6083 19.1282
18.4874 16.5394 19.3575
17.9843 16.8331 20.3379
19.2131 16.4193 19.4721
18.115 16.6354 20.4281
18.0335 17.1522 19.9972
18.3835 17.2445 20.9392
18.1321 16.627 20.1516
17.0266 14.9256 18.8134
17.7825 15.7963 18.8728
18.8743 17.6606 20.8717
18.4917 16.8859 20.6331
19.4716 18.2148 22.4827
18.2787 16.7296 20.7184
19.2283 18.005 22.2552
17.0941 16.7552 21.4089
18.9847 18.3322 22.2692
17.2784 16.7742 21.6167
17.7344 16.7896 21.0607
18.897 17.6141 21.6502
18.7769 17.131 21.2842
17.4798 16.221 20.3145
17.4979 16.7625 21.2897
18.5796 17.3163 21.6522
16.4182 16.3561 21.4691
16.4843 16.4578 21.8198
17.1264 17.4198 21.8619
17.3734 17.6041 22.9202
17.1578 16.5595 21.1836
17.8064 17.3263 22.3789
16.4512 16.8605 22.2696
18.2061 18.6513 23.6352
17.1934 17.2076 22.4197
18.0521 17.485 23.5562
17.3936 17.1401 22.15
17.3531 16.386 21.6986
18.0322 17.6252 23.545
17.2874 17.2762 23.6955
17.2748 16.7002 22.5781
17.5963 16.5773 21.9061
18.2792 17.6048 23.6624
17.484 16.725 21.9897
16.6151 17.1891 22.8787
16.8093 16.8043 22.7283
16.1926 17.6978 24.9799
17.6635 18.3789 25.2997
16.5517 17.2686 23.8027
17.3775 17.378 23.6582
18.1213 17.7441 23.9906
17.1841 17.0081 22.7423
14.5211 14.5423 20.2785
15.7741 16.8804 24.0847
17.3419 17.9162 24.7711
16.163 18.2312 24.7769
16.772 17.0271 23.906
15.7536 17.0114 24.4326
16.1447 17.9291 25.3136
15.9897 17.3945 24.0602
15.5944 15.9379 22.3649
15.8416 17.2898 24.723
16.5856 17.1761 23.811
15.1315 15.6478 23.0589
17.0491 18.129 24.9926
16.0186 18.7992 27.7986
15.9547 16.1149 23.4328
15.7767 17.0888 25.0194
17.2185 16.9728 23.4117
15.4982 17.691 24.909
16.5097 17.5894 25.1315
14.7905 16.8596 24.8741
14.8836 16.6163 25.2352
14.8363 16.4051 24.4718
15.425 16.9443 24.0554
15.0652 16.6436 25.4289
15.2097 15.6469 22.6732
14.2435 15.8972 24.518
13.8973 16.0231 23.6529
15.0107 16.6954 25.1004
15.473 16.6687 24.6277
15.103 16.9813 25.3293
14.7691 17.3076 26.4522
15.4662 18.3952 27.4192
16.1437 17.4683 26.3423
14.8868 17.7872 27.0808
14.5978 16.7436 25.2504
15.8527 17.7055 26.7803
15.4285 18.3048 28.4366
14.2671 17.6933 26.7921
14.2236 17.2138 27.4857
14.7169 15.6802 25.4166
15.6993 17.8958 26.9765
14.8356 17.2366 27.2039
15.8195 17.5935 26.5548
15.0674 16.0733 25.6549
14.1759 16.698 26.0215
13.6958 15.4169 24.917
14.1639 16.1051 24.7583
14.3256 16.3739 25.2848
13.782 16.6507 27.472
13.2936 15.8686 24.9883
14.1253 16.422 24.6918
13.843 17.2097 28.0987
14.044 16.6365 27.1726
13.8331 15.5209 25.4023
15.4885 18.0169 27.2445
13.1131 15.5523 25.7239
14.0504 18.0439 29.6812
14.4907 17.893 29.7939
14.5628 16.8783 27.1461
15.0802 17.888 27.8004
14.1466 16.7428 28.385
13.6535 16.4299 26.7384
13.6659 16.7413 27.3337
13.5095 16.4867 28.0054
13.2442 16.0936 27.1042
14.438 17.3258 27.825
13.1871 17.1171 29.3182
14.5199 17.0232 29.173
14.0063 16.478 27.9093
13.8692 17.3913 28.1052
13.168 15.7749 26.412
14.0598 16.22 27.0707
13.982 16.781 27.4204
14.0278 18.7416 30.7577
13.4004 16.2673 27.8952
13.5276 17.0582 30.3121
13.0184 16.1257 27.1172
13.3597 16.8665 28.5853
12.565 16.7211 29.4258
12.9011 16.2706 27.4496
12.8955 15.9522 26.5845
12.2257 16.6733 28.6889
13.1432 17.1071 29.4614
11.3014 15.7769 27.744
13.4603 17.0017 30.7897
13.7559 17.8502 30.8484
12.7385 15.533 26.229
12.2418 17.4745 30.6154
12.4733 15.9332 28.365
13.4527 17.3673 29.733
13.0635 17.2632 30.107
12.1296 15.5817 27.5821
11.887 16.6409 30.3525
13.0262 16.9895 30.5626
13.2779 17.7117 31.5144
13.812 16.964 29.7895
12.6328 17.7571 31.1908
12.9608 17.1507 30.6332
12.5341 17.2173 31.9782
13.1617 15.9476 29.4434
12.6769 17.7601 30.8581
12.5493 16.7055 29.8287
12.2257 16.9038 29.7525
12.561 16.5556 31.3407
11.4467 15.3974 29.0392
13.2207 17.9439 31.7491
12.308 16.1842 30.1489
12.4712 16.2178 29.2182
12.6586 16.7153 30.7828
12.3584 16.801 31.5051
12.8869 18.1604 33.0025
12.2433 17.2963 31.9383
12.8777 16.0509 30.5683
11.8228 16.2838 30.4201
11.4925 16.2901 30.4602
12.6385 16.89 30.6003
12.2767 16.6691 32.0469
13.3108 19.1315 36.404
11.675 15.6898 29.9665
12.5139 17.0563 32.3932
12.8212 17.7034 34.4572
12.6905 17.1783 31.6041
11.1417 16.2067 31.6665
11.2427 15.6993 29.8175
11.3531 16.213 32.1589
12.0006 16.6121 31.3748
11.9427 15.8306 29.6523
11.2157 16.1892 31.0973
11.0842 16.5441 32.7088
11.2861 15.777 29.8388
11.7649 15.921 31.1907
11.9019 16.6333 31.7767
11.675 16.7761 32.9899
12.1654 17.6954 34.1278
11.6615 16.5141 31.5685
11.4608 16.0246 31.7536
11.7247 17.5493 33.9796
11.4385 17.0252 34.0003
11.7795 17.3456 33.8484
11.7733 16.8831 32.7376
11.0138 16.0105 32.5088
11.8254 16.3283 31.8157
11.0943 16.7141 32.9078
10.4036 15.0531 29.917
11.2949 17.3478 35.1843
10.7059 16.5617 34.0686
11.2779 16.4466 30.949
10.9021 16.658 33.5049
10.5368 16.6375 34.5823
11.3678 15.0553 31.2298
11.4737 17.4062 35.1007
11.023 16.669 33.7952
11.4941 17.8029 36.3075
12.0505 18.0045 35.7779
11.1896 16.5449 33.901
11.1034 16.7879 33.8132
10.9489 16.4697 34.7828
11.3803 16.7148 34.3342
10.2864 15.4417 31.1812
11.0583 17.9198 36.65
10.8169 17.4874 37.7352
11.4229 16.6537 34.0143
9.7782 14.4971 31.08
11.1943 16.8685 35.1555
11.4455 17.5236 35.6069
10.6896 16.4188 35.0576
10.4912 15.199 33.2181
11.7351 18.3176 35.7297
10.5284 16.4856 36.4279
11.0503 16.5472 34.8146
10.7691 16.087 33.5481
10.3947 16.0898 35.497
12.2041 17.8814 36.9585
11.2884 17.0285 35.2615
11.0188 16.6857 34.9596
10.7238 17.1643 37.309
10.8549 17.7874 37.6897
11.0843 16.5512 35.9344
10.5354 16.4982 35.426
10.061 15.9409 34.8243
10.6832 16.8129 36.1006
10.9282 16.9497 35.7521
11.0328 16.1833 34.9473
10.4259 16.0222 35.8423
10.5943 16.3681 33.8555
10.2579 16.1953 35.9975
11.4431 17.3179 38.0503
11.5149 17.7179 37.8881
10.575 17.4456 37.5448
11.1382 16.9519 36.3145
9.92659 16.3792 36.6156
9.89516 16.6848 36.8011
9.50889 15.2601 33.7156
10.3494 16.4466 36.7979
10.0882 16.6677 36.5026
10.3261 16.6534 36.3853
9.84825 16.6344 39.7335
11.3076 16.3041 33.1792
9.38778 16.4526 38.3048
10.4339 17.3091 36.8315
9.82096 17.2599 40.2146
10.4966 16.4845 37.2018
9.90387 16.7774 37.7988
9.81774 16.2392 37.2066
11.0387 17.7401 40.4752
9.97247 16.9296 39.0166
10.4317 17.9599 39.4101
10.4362 17.0409 39.3028
10.4731 16.8745 37.0123
10.0428 17.199 41.0062
11.0344 17.3114 38.1916
11.0905 17.8589 40.5141
9.67778 16.3902 38.3723
10.3691 15.9868 35.3408
9.28707 16.3388 38.1766
10.5579 18.6475 42.0855
10.5267 17.0587 41.065
10.1104 16.0558 37.2719
10.6074 16.9496 38.8349
9.70017 15.4226 37.6037
9.69271 17.3472 39.9471
10.2655 17.0303 39.4872
10.2103 17.3719 40.918
9.55249 14.3012 34.334
10.3911 17.0553 39.0695
9.48123 15.5138 37.6999
9.58068 17.4019 41.0598
10.8123 17.5334 40.4809
10.7197 17.7171 39.0244
8.81386 15.1701 36.0601
9.13818 15.8768 40.3083
10.3603 16.4119 36.2012
9.31943 16.1146 38.6242
9.6684 16.4916 40.5717
10.4182 17.2002 40.9815
10.2285 16.0642 39.3337
9.60243 18.5764 44.2253
9.97666 15.8154 38.5485
9.55851 17.4071 41.2086
9.18856 16.1295 38.8175
9.1701 15.645 37.6978
9.07806 16.236 40.4188
9.25318 15.3363 36.8401
9.42904 17.107 42.8163
10.1345 16.8804 39.6504
9.26936 15.8711 37.9764
8.71301 16.1666 41.4243
9.6578 16.2732 40.0869
10.3879 17.1219 40.9837
10.1847 17.6214 42.8048
9.17552 16.9365 42.22
9.96289 17.2728 42.6209
9.9109 16.6279 41.452
9.7611 16.2425 40.1188
9.16838 15.9352 38.013
9.30342 16.6011 41.4792
9.25304 17.146 42.1019
9.64949 17.1559 41.8621
9.31959 16.1353 39.7801
9.2892 14.5799 36.2899
9.09602 17.0577 44.0682
9.425 16.9217 43.3489
9.68878 16.1868 42.0236
9.91772 17.9306 42.3144
8.95023 16.1575 41.3172
8.42224 15.9194 40.0804
9.1443 16.7585 42.8414
9.13359 16.7724 42.8454
9.73843 16.6899 40.1013
9.17626 16.6481 42.807
8.94759 16.3393 40.511
8.50646 16.9283 43.0844
9.36498 17.0576 41.4628
8.51159 15.7156 43.2913
9.71746 15.7178 40.6139
9.10637 17.4066 42.6425
9.13452 17.3375 47.4076
9.51429 16.2609 41.9936
9.05066 16.3146 41.5253
8.52865 15.6172 40.0352
8.61428 16.9425 44.0607
8.76969 16.3664 42.4281
8.97613 16.5621 42.814
9.35772 17.032 42.3887
8.38709 16.6951 45.4787
9.17101 15.9864 42.1491
9.63286 17.6165 44.5748
9.0096 17.7472 46.1177
8.63325 15.6617 42.8837
9.31712 17.4915 47.4977
9.48462 17.2193 42.0714
8.70237 17.2662 45.8525
8.77783 16.3739 41.7381
8.1818 15.0466 42.7638
8.62739 16.0997 40.4496
8.13135 16.5289 43.9364
8.5119 16.7471 44.142
9.15589 16.5075 41.8026
8.14647 16.7541 46.7234
8.96629 16.3882 43.358
8.70895 17.1389 45.3352
8.81574 16.9508 47.6728
9.22651 16.3678 43.7143
8.93097 15.9178 38.962
8.10844 15.9362 41.7409
7.8349 16.3206 44.7236
8.81267 16.7262 44.5307
8.20118 16.6983 45.934
8.90589 16.3886 45.4111
8.80492 15.8626 43.9654
8.211 16.0801 43.9568
8.48741 16.5767 43.5124
8.38656 16.1935 43.8458
9.073 16.4647 43.5928
8.04788 15.2009 41.9534
8.10802 14.8056 39.819
8.09073 14.5801 39.6838
8.34575 15.717 45.117
8.34297 17.5131 45.5959
8.88665 17.2933 46.6912
8.92126 15.9582 46.9729
8.97854 16.8714 45.6822
8.97854 16.7616 44.9254
8.19418 16.8764 44.6009
8.32944 14.4367 42.6084
8.6032 16.2864 44.486
8.42557 16.5529 45.4607
8.0422 15.1424 42.8361
8.57129 16.7421 45.252
8.85081 17.1815 45.471
8.00783 16.0065 47.262
8.10179 16.6902 46.4066
8.2626 15.1378 42.177
7.91835 16.2798 44.4984
7.6991 15.3371 43.4409
8.08476 16.1452 46.9724
8.67168 17.0149 48.1365
8.84365 16.9475 46.1496
8.67525 17.7792 50.0735
8.3693 17.077 47.5886
8.08504 16.4524 46.5666
7.62744 15.6528 46.4921
8.84625 16.6749 44.0061
7.59568 16.2691 47.7451
8.03458 15.2536 44.4476
7.4176 15.7837 45.0437
8.24529 16.2348 45.5293
8.31509 18.2418 51.4037
7.8133 16.1469 44.2919
7.42927 16.8158 49.9328
7.81974 13.9247 43.1991
8.00309 16.9281 49.3044
8.52032 15.9331 45.633
8.17261 16.528 44.2782
7.34134 15.4329 48.1089
8.45609 16.4542 46.4618
8.33295 16.7299 47.6489
7.89704 16.3632 46.6614
7.8253 15.6943 46.1392
8.18201 16.7112 48.7946
7.96156 16.2974 45.4029
7.80108 15.2062 46.0478
7.93116 15.4829 44.5201
7.98706 17.1388 48.188
7.84353 15.8806 46.7455
7.88115 15.8524 45.7311
7.95058 16.9211 48.5982
7.57427 15.5696 45.9782
7.48545 14.872 44.6365
7.81663 15.8928 48.0883
8.00178 16.1148 47.2725
7.98636 16.421 49.0995
7.78974 14.9203 45.5465
8.17259 17.5219 50.2456
7.89337 15.3814 45.7832
7.92946 16.8444 49.6531
8.43191 17.323 49.7266
8.16477 16.2843 49.3688
7.78352 15.4298 47.3426
7.88847 16.7568 46.799
7.80838 16.7139 51.1931
7.44034 15.6516 47.7139
7.88853 17.6432 50.5188
7.27732 13.9541 45.0534
8.30153 17.2937 49.684
7.51635 14.6514 46.5839
7.62812 15.5302 47.0806
8.05111 16.7963 48.0575
7.48513 16.7197 47.6776
7.04332 16.7677 52.8763
7.97223 17.0121 52.688
8.21549 16.5455 51.5392
7.84279 16.7522 47.9895
7.06592 15.7561 47.3911
7.83909 16.966 48.3046
6.96765 15.6565 49.2227
7.46495 16.1005 47.7111
7.45746 15.842 49.298
7.79947 16.631 50.4632
7.44656 15.0584 46.0767
7.07794 15.9055 49.4339
7.56334 16.3831 49.2101
7.40727 16.8638 51.5008
7.55449 16.1874 49.5114
7.98895 17.8327 55.0609
7.9259 16.5682 48.9911
7.04838 14.411 46.8145
6.92574 16.0362 50.0845
7.46505 14.4246 43.0087
6.87907 15.2525 47.0573
7.25495 17.0759 54.4025
7.79953 15.9481 48.9652
7.30091 16.9563 52.1322
7.53032 15.8166 48.3063
7.08151 16.6653 53.295
7.98867 16.3677 50.7359
7.61225 16.1654 49.8943
7.67817 16.2498 50.8295
7.15197 16.526 53.7778
7.80306 16.0778 46.5696
6.96594 15.3905 50.5358
7.6092 16.623 54.144
7.86628 15.5141 48.3085
7.41138 16.3967 54.5794
8.26551 17.1363 50.7862
7.49418 15.6253 46.8944
7.26394 14.8887 50.0459
7.40986 15.6644 49.0247
7.17427 15.5068 50.6739
7.77556 16.7753 51.8732
7.61409 15.3802 50.8432
7.79177 18.2201 54.2788
7.22656 15.9075 50.2933
7.10907 16.6971 54.7741
7.57432 15.4445 49.9924
7.20852 15.7987 46.8711
7.01133 14.5893 46.4597
6.86614 15.6963 49.9306
6.43506 15.5197 51.4014
7.29536 15.9862 50.0188
6.64093 15.8676 50.7266
7.39745 16.2793 51.7057
7.14447 15.7843 49.099
6.90179 15.827 52.6096
7.65291 16.0397 53.0369
7.58 16.863 51.1864
7.3203 15.483 50.2995
7.02431 16.2718 51.5407
7.40171 15.6622 51.0353
6.92051 15.6767 52.2876
7.16299 15.9254 50.158
7.07211 15.5002 49.0935
6.92963 14.9743 50.2457
6.99309 16.7993 53.4093
7.17975 16.6474 54.07
7.54369 16.2463 56.4699
7.17299 16.044 53.2721
7.31647 17.0741 51.5773
6.37841 15.8997 54.5571
7.16408 15.5059 50.9584
7.1388 16.3276 50.4213
6.64003 14.7719 49.8522
6.53679 15.0376 51.119
6.7938 15.5843 50.0243
7.06183 16.4669 56.2183
7.0828 17.2624 54.603
7.32555 15.7921 54.5356
7.6822 17.0736 53.2232
6.62781 15.4231 50.616
7.17549 17.1474 56.2304
7.13413 15.582 52.6607
7.21888 16.3106 54.1865
7.09193 16.5146 57.7056
6.92639 15.6265 49.9533
7.03526 16.1287 52.7002
6.88872 16.5997 53.5873
6.53017 15.8313 54.1665
7.06221 16.0278 52.8025
7.16336 15.1642 49.7152
6.60491 15.3794 54.5957
6.76932 15.8145 50.4905
6.25456 15.5375 52.1506
7.02967 16.0759 51.5331
6.94505 15.6559 55.9226
7.22902 16.8834 53.2436
7.09215 13.8177 47.0134
6.79448 15.9721 56.8499
7.01254 16.1872 52.2422
6.91746 14.729 49.5742
6.75738 15.2705 49.2884
6.50213 14.6521 52.4531
6.99804 16.058 53.9797
6.83761 16.1781 52.973
6.1826 15.0186 51.4027
6.39952 15.4884 51.6497
6.65246 16.1581 58.2096
7.26399 15.6692 52.4628
6.69258 16.4524 54.8122
7.05725 16.5686 56.4099
6.61785 15.6271 49.7071
5.89295 14.5642 53.5761
6.98004 16.5938 53.9291
6.44204 15.7284 55.4173
6.77178 15.9846 53.0135
6.89475 15.6256 52.8387
6.62493 15.0158 54.286
7.23214 16.6541 57.9196
7.46607 17.0024 53.5445
6.42563 14.9088 54.155
6.79196 15.5413 50.0586
6.34746 15.4641 53.8518
6.66095 15.6387 52.6113
6.54322 15.2684 51.408
6.51909 15.5171 57.6575
7.00941 15.6026 49.1047
6.10302 15.6522 54.5123
6.89946 16.4271 54.6506
6.57235 15.5051 54.2005
6.4257 15.3655 54.0408
6.76729 15.6138 52.1952
6.64492 15.6577 51.6613
5.82795 15.9532 55.7321
6.40125 15.137 53.8167
6.69431 15.203 52.088
6.16406 14.7774 53.3312
6.47837 16.1948 58.0711
6.66088 16.2708 53.6946
6.40448 15.4297 55.9665
6.8048 16.1811 53.5308
6.09843 15.6784 53.3065
6.50899 15.0223 54.1911
6.53716 15.7846 55.1838
6.80029 14.7076 53.246
6.54311 15.3061 54.2544
6.09573 14.8502 53.0363
6.48771 15.1004 54.5853
6.257 15.7789 57.8684
7.00855 16.2064 54.1366
6.42056 16.058 52.2775
6.65564 16.7077 56.2417
6.67821 15.9097 55.3916
6.17395 14.1784 52.8055
6.26564 15.2466 53.7738
6.22209 15.1188 56.4447
6.20575 14.8459 51.7856
6.19331 16.9383 56.5008
5.74095 14.955 54.3071
6.6859 15.5873 57.1431
6.55839 15.8096 53.4674
6.433 16.1805 56.5386
6.39539 15.3605 58.6346
6.47537 16.3394 57.083
6.76723 16.588 55.5004
6.20399 14.6901 53.7571
5.97595 15.4175 57.2673
6.55519 15.6205 53.144
6.13524 15.8376 57.7425
6.75795 15.6049 56.8028
6.75329 16.8563 61.8976
6.49075 16.2158 54.4732
6.24494 15.4162 52.9354
5.97802 15.6745 54.5451
6.16361 15.0405 55.9072
6.56303 17.7672 62.3842
6.75075 15.9136 53.2236
5.62557 14.0768 55.578
6.45695 15.1401 51.2063
6.29015 15.3615 58.0001
6.60882 15.2924 56.0139
6.75445 15.4556 54.175
6.44887 16.5338 56.4681
5.87404 15.6131 59.3589
6.50198 15.2095 55.6636
6.24264 15.0387 55.3033
6.74637 16.004 59.6561
6.54472 16.1869 56.4881
6.40129 15.7003 58.1293
6.84899 16.1512 58.0533
6.71593 17.3302 60.964
6.66339 17.4292 59.9285
6.4978 15.8911 61.139
6.37543 16.061 58.0866
6.15778 16.7655 60.5115
6.44397 15.6553 54.5216
6.30998 15.3744 55.6942
6.0539 15.5323 55.1763
6.19179 14.2334 56.2351
5.74587 16.048 59.7873
6.50467 17.2493 58.5008
5.91367 14.8159 57.0444
6.34968 16.0074 58.5656
6.40649 15.1956 57.6812
6.25382 16.2233 57.8783
5.81075 15.288 54.9714
6.83013 15.1221 52.1023
5.87153 14.1025 54.2355
6.33744 15.0559 54.691
6.04346 15.7146 59.9224
6.66012 16.9631 57.8989
6.14339 16.0911 59.6102
6.06978 15.1363 57.2938
5.89964 15.4665 55.5987
6.18811 14.4761 56.6914
6.34926 16.3583 55.9368
5.95345 16.7136 61.5053
6.50805 14.7812 57.7769
6.05553 16.3465 56.6279
5.69179 14.5237 57.0522
6.08767 15.7737 61.7774
6.24026 16.1782 58.4017
6.42306 16.2198 56.3355
6.08907 14.1976 53.0096
5.91212 16.1634 58.2027
6.25639 15.8553 60.3747
6.17304 15.056 56.0605
5.89342 15.6038 57.4535
5.98426 15.649 62.3922
6.99387 16.1972 58.6383
6.24464 16.1013 59.2778
6.0789 16.135 57.2303
6.03736 16.0198 60.6109
6.10931 15.1138 59.6676
6.79775 16.2582 57.8163
6.32963 14.3688 57.9494
6.46381 16.5438 58.7702
5.54686 15.0933 57.1735
5.97286 15.9992 61.5317
6.25304 16.2082 61.5903
6.41227 16.7092 59.3116
5.84771 16.7894 61.1561
6.01968 15.9398 61.8864
6.43893 15.7391 62.101
6.6604 15.9884 59.4113
6.27228 16.7412 57.3414
5.46861 15.6627 57.338
5.85559 15.7001 59.7926
6.3519 16.4452 60.307
6.49449 15.2142 57.4478
5.93072 15.3415 60.0323
6.44584 15.4352 54.3581
5.74498 15.7186 63.4924
6.03067 15.4725 59.894
6.22269 15.4376 54.2627
5.55296 15.0284 60.5505
6.54311 16.0868 56.7268
5.56144 14.6159 58.6931
6.27062 16.0197 57.4941
6.06418 15.3425 56.5767
5.9822 15.8023 58.6225
6.10041 15.0114 57.792
5.80693 16.0082 60.5295
5.94895 14.9742 58.6353
6.15887 15.7 59.6197
6.14286 16.8599 61.6634
5.8058 15.406 57.2543
5.7573 16.1677 61.2117
5.93978 15.3728 59.3223
5.89586 14.7975 57.313
5.94187 14.9745 55.6796
5.39546 14.3379 56.3176
5.80056 15.5528 61.297
6.05181 16.0779 60.7627
5.69693 16.1811 58.5809
5.74415 15.0505 55.8869
5.86453 14.4698 57.246
5.98742 15.2874 59.5429
6.46847 16.0202 59.149
6.09311 15.7573 56.709
5.59544 15.4426 60.8583
6.10618 16.117 65.385
6.73052 15.3404 58.2197
5.9526 15.0418 54.3922
5.48706 14.4031 56.3333
5.83999 14.791 56.3382
5.65888 15.4101 58.4247
6.0473 14.5878 56.802
5.6731 15.7236 57.1389
5.56403 14.6126 56.5479
5.96343 15.3119 57.6995
5.92689 15.2857 61.7757
5.89995 14.661 53.5346
5.58411 14.1068 59.653
5.50912 16.0334 59.5927
5.84206 15.2871 61.7605
5.93824 15.8381 59.7216
5.82557 15.1036 57.5455
5.95208 14.9767 58.8374
5.84342 16.4197 61.9654
6.12774 16.0812 59.9948
5.97118 14.3868 57.7833
5.905 16.4422 62.6813
5.91956 16.2988 57.562
5.50916 15.0388 62.3444
5.98 15.8479 64.1646
6.26828 16.7136 56.9927
5.35045 14.6587 64.3181
6.31029 16.4252 58.3372
5.95637 15.9923 60.5988
5.89568 14.5567 61.6117
5.73914 16.7746 63.3496
6.16188 15.3845 59.0846
6.18091 15.8814 62.3272
6.16765 16.9546 61.0624
5.37863 15.2093 58.8738
5.69917 15.3757 59.276
5.69077 13.7746 56.6626
6.02856 15.252 59.2979
5.54958 15.0404 58.0939
5.6147 15.4862 58.0766
5.70975 15.5239 65.559
6.07497 16.7707 66.3564
6.24065 16.2143 63.0074
5.78361 16.3779 62.0583
6.27589 16.3453 60.1673
5.75227 15.2765 60.9104
5.78675 15.4532 62.1258
5.99903 16.283 65.5153
6.0522 16.5693 63.7195
5.90657 15.6779 59.1526
5.187 15.2218 60.0274
5.7987 15.1433 60.0368
5.61829 15.968 61.7309
5.94702 15.9747 58.4185
5.59183 15.4368 60.0535
5.76855 16.0356 62.1951
5.74027 15.3127 61.2948
5.91256 15.3221 61.7887
5.95551 15.6691 58.7579
5.6021 15.1027 59.9716
5.99042 15.6019 61.6162
5.71959 16.2265 59.9947
5.84151 14.0355 59.4057
5.64868 15.7568 64.2065
6.02041 16.2261 58.1151
5.55946 15.6231 63.6415
6.12838 16.0607 61.273
5.86493 15.1955 58.0226
5.30553 15.6269 63.5405
5.83875 14.8442 59.9913
6.27964 15.4469 61.8704
5.91237 16.8486 62.4595
6.02605 14.3143 60.3405
6.09555 16.3174 58.2424
5.21806 15.2499 58.2681
5.55921 14.3785 59.5462
5.68744 15.5798 57.9764
5.53842 15.7671 59.4087
5.46657 14.9653 60.697
5.42971 14.9783 56.9989
5.31571 14.542 58.1641
5.61727 15.8274 63.7795
5.69631 15.1939 60.6997
5.75469 14.8709 59.7127
5.92389 14.7272 57.9764
5.89732 16.6103 60.4893
5.34493 14.8061 62.5171
5.70569 15.4293 59.891
5.73405 15.247 63.9365
6.05803 16.5091 60.7341
5.53778 15.45 61.931
5.60836 15.5854 60.7574
5.79754 15.0213 57.6992
5.09047 15.3671 60.9599
5.98793 15.5453 61.7253
5.38787 13.9779 58.9518
5.30804 13.8238 54.3105
5.40957 15.3619 61.8829
5.63571 15.2629 59.3028
5.6551 14.8839 59.2484
5.08881 14.8689 64.3722
5.90309 16.5581 61.4558
5.7476 15.1709 58.6224
5.61086 15.368 56.8298
4.8994 14.5986 59.7986
5.29282 14.5926 63.0728
5.93273 16.0022 59.4202
5.49299 14.2461 60.0277
5.40969 15.0011 55.6895
5.42516 13.7346 56.4009
5.35901 15.8262 62.5187
6.35422 15.5817 61.1106
5.27027 15.57 63.2176
5.62809 14.923 54.0446
4.87127 14.3343 57.6609
5.52568 15.326 58.4516
5.30719 15.0175 64.3328
5.62245 16.2731 61.5356
5.99985 15.3561 65.5033
5.94484 15.8191 58.2715
5.19537 14.7403 59.892
5.68406 15.1156 62.3891
5.75896 16.202 60.0829
5.53017 15.7156 63.2247
5.4654 14.8549 59.0533
5.76265 16.1415 63.2111
5.45664 14.9288 59.7555
5.44421 15.085 58.9357
5.59435 15.5892 63.8856
5.82118 15.9554 62.7697
5.92009 16.9986 66.0753
5.85886 14.2504 57.5315
5.55685 15.169 61.3716
5.57627 14.8722 59.6109
5.76001 16.1768 58.9287
5.5221 14.7929 64.9805
5.97397 16.5495 60.5882
5.64032 15.8281 58.4293
5.24181 13.9036 60.3577
5.38619 15.1932 64.1222
5.96899 16.1126 60.6551
5.68924 15.8117 60.0721
5.52975 14.3235 60.8885
5.72088 14.3689 59.2237
5.15462 15.5698 60.9911
5.83741 15.1231 60.9923
5.59044 15.579 63.6264
6.02046 15.09 58.2856
5.2857 15.1847 58.2097
5.54069 14.5938 60.5446
5.53597 14.9334 59.613
5.34955 17.6641 70.0581
6.19361 14.8915 63.2967
5.47751 16.217 57.4786
5.2211 15.3223 68.1198
5.9758 15.8556 58.6663
5.79275 15.5016 61.51
5.7176 15.2334 61.7884
5.32087 15.1457 63.638
5.68233 15.8837 64.3973
6.04234 15.4901 60.2483
5.32369 16.0002 64.4772
5.68017 15.3354 60.7041
5.40616 15.5692 62.1959
5.57106 15.0887 60.4198
5.44558 15.681 60.3842
5.44496 15.7998 63.1239
5.74226 16.4707 60.6984
5.63902 15.8202 63.4489
5.4593 14.9397 64.9449
5.90783 14.7927 61.0871
5.6693 16.1325 59.7817
5.31229 15.0958 63.6967
5.88398 16.3919 61.8624
5.65418 15.7233 63.3207
5.7326 15.4891 60.763
5.67182 14.5093 60.4945
5.35136 15.1258 61.4053
5.3616 16.3068 64.1767
5.98059 15.2357 60.0812
5.7217 15.6739 64.2386
5.81572 15.1616 57.9257
5.14371 14.4238 60.1091
5.83581 14.4272 60.2594
5.52842 16.7126 60.0882
5.22738 15.1205 60.7251
5.00491 15.1875 59.7597
5.39296 15.0213 60.1981
5.64323 15.1016 64.5486
5.81329 14.9591 62.8826
5.41324 16.038 64.4914
5.8852 16.9055 67.3961
5.70012 16.7535 62.6294
6.21827 15.7133 59.4775
5.47748 15.6448 66.6084
6.0398 0 0