# pn-170911/CsIIA-av-KOKB-1280-1959.psd
# Power spectrum* (dif=0,1,2) (really just |FT|^2)
# NOTE: only the first half! (symmetric)
# weeks: 1280-1959
# 40 clock-days, 12 excluded
# PSD: 1441
46361.3 1.30314 0.0238019
2.46368e+06 30.9084 0.0145038
1.32288e+07 287.223 0.0165985
1.50921e+06 61.6084 0.014962
2.35034e+06 186.134 0.027636
699555 64.8498 0.0176518
530813 65.1441 0.0237115
333085 59.1304 0.0287525
198387 61.2683 0.0305827
167082 48.4612 0.0335769
153760 52.0011 0.041766
84091.6 38.1179 0.0295746
84906.6 42.9966 0.050855
98009 52.839 0.0542792
83633.6 61.2006 0.0734754
70802.8 60.335 0.075388
61131.9 57.8512 0.0812387
61605.4 70.571 0.113651
41702.4 56.5035 0.100967
44970.7 64.542 0.128363
34374 54.8052 0.12012
29091.1 56.7845 0.146409
27940.4 60.6583 0.141673
30057.8 60.7998 0.176581
32592.7 74.2371 0.198283
24913 59.9484 0.197227
28441.7 67.1376 0.235856
20315.7 53.9691 0.196572
20410.1 52.701 0.208424
12987.6 46.3558 0.19932
10887.9 49.5191 0.243574
17330 57.5437 0.264307
14762 53.7132 0.270271
16212.5 64.402 0.362538
12207.5 57.4123 0.33698
10825.6 49.8793 0.294342
13835.4 74.9394 0.453899
12259.3 63.8238 0.430245
12099.1 69.0049 0.49885
9336.62 62.2393 0.465973
9066.94 56.409 0.423812
7867.49 51.1345 0.436023
7418.6 51.1021 0.417718
8218.2 68.5715 0.64918
7121.08 50.2391 0.493105
7628.34 63.2022 0.642916
7467.58 63.0313 0.623735
7191.73 59.594 0.651555
5728.4 49.0146 0.524842
4990.82 44.1269 0.517121
5802.73 54.9014 0.660523
6790.05 61.7591 0.778078
5342.19 53.2771 0.742629
6806.06 85.2806 1.17182
5951.6 62.4768 0.860136
4076.3 46.5353 0.655582
4662.02 65.553 0.998885
5848 74.5269 1.12054
3737.52 51.5172 0.803658
3082.86 38.9569 0.662154
4192.47 63.3085 1.06096
3725.66 51.721 0.9182
4101.89 52.7221 0.959318
3795.16 58.4548 1.14938
4799.33 61.878 1.19533
3406.19 56.1672 1.08438
4618.18 91.8068 1.95375
3198.14 49.7471 1.11189
3121.24 53.1744 1.20272
3224.86 52.1966 1.23673
2853.34 53.2518 1.20273
2712.66 50.2255 1.19469
2460.96 46.9589 1.15016
2435.12 49.4234 1.25047
3197.22 55.9116 1.50249
2284.14 54.8331 1.52892
2838.72 61.8583 1.65704
2478.18 54.6069 1.58899
2843.12 66.7258 2.02058
3054.39 63.4984 1.87717
2764.18 68.0842 2.0299
2381.44 55.5885 1.76057
2973.07 79.645 2.5245
1323.22 39.1513 1.27061
2091.56 54.2206 1.82119
1903.37 46.5575 1.56667
1837.26 48.4796 1.75647
2543.64 63.1221 2.22743
2046.49 60.0923 2.17481
1865.6 58.3254 2.20101
2405.77 68.3726 2.6907
1551.41 46.7479 1.87554
1913.05 56.4386 2.36086
1860.68 58.6389 2.38598
1586.1 49.5695 2.08168
1497.06 54.2208 2.41569
1544.54 55.2868 2.34374
1856.06 61.3243 2.77221
2129.71 69.5963 3.16755
1559.12 52.4485 2.47841
1747.28 62.3954 2.95607
1524.72 56.9778 2.71724
1164.28 46.8408 2.27653
1371.61 59.6321 3.07069
1569.51 63.8513 3.25757
1088.88 40.0544 2.17631
1342.83 59.7583 3.1995
1219.38 53.5831 3.09761
1317.34 48.7502 2.67819
1271.83 53.74 2.98098
1104.39 55.8252 3.31857
1480.1 56.6034 3.24816
1212.52 47.1895 2.85672
1079.62 48.1052 2.91646
952.85 42.7378 2.57584
1286.72 66.2417 4.21076
897.422 47.3765 2.96497
1041.08 54.5335 3.46789
891.086 56.7267 3.9367
1098.74 59.0166 3.88923
678.749 34.9313 2.39534
871.015 47.3226 3.28363
1040.83 53.6193 3.77445
889.137 45.6781 3.22336
834.373 54.1662 4.02887
1044.71 59.691 4.51009
838.702 58.3797 4.57511
931.042 55.1953 4.08723
692.294 42.0646 3.33742
1009.83 62.0808 4.81901
824.617 55.1107 4.61201
892.39 50.6197 4.13364
779.513 49.325 3.97314
655.914 41.598 3.27814
733.258 48.3731 4.15992
983.687 71.8619 6.18896
869.645 67.9718 6.01874
716.776 52.3167 4.70462
738.532 55.0034 4.73662
532.252 44.7076 4.21603
729.008 50.5794 4.65716
746.439 53.4494 5.00427
507.801 42.9319 4.14261
602.396 54.3677 5.28135
697.632 43.7887 4.18772
796.939 52.7672 5.36789
675.387 49.5023 4.89515
470.85 35.5719 3.81119
533.089 47.5048 4.81616
637.994 44.8694 4.71593
798.459 68.3393 7.58268
651.16 50.4379 5.09643
566.101 45.2756 4.77198
482.925 47.8616 5.44279
499.237 58.5721 6.36484
665.087 47.2698 5.39075
463.45 47.6615 5.6319
635.065 50.8717 5.63003
654.536 62.1413 7.42042
491.976 43.2167 5.14823
526.592 48.2237 6.23681
548.706 52.4041 6.50994
611.501 53.719 6.67562
453.909 43.6934 5.50563
491.589 44.4661 5.70946
383.383 34.9371 4.7118
548.992 53.3411 7.06793
524.089 57.7061 7.60828
496.299 55.3997 7.00144
384.294 42.3814 5.76187
446.013 48.3838 6.45157
380.09 44.9151 5.98202
510.799 52.648 7.37527
403.838 45.9498 6.28174
427.152 50.4897 7.15126
629.29 60.7123 8.50424
390.256 45.7079 6.95813
512.215 55.8545 8.02781
419.806 37.4308 5.6099
430.954 44.7448 6.47879
536.207 59.0921 8.96429
380.754 47.5874 7.66342
374.789 50.6636 8.16879
433.012 49.7657 7.32769
402.736 45.5922 7.19978
486.092 58.5808 9.52332
303.42 29.7855 4.81925
349.697 45.36 7.46265
273.376 40.2648 6.61014
388.758 51.8224 8.78454
337.865 40.7332 6.7235
277.157 45.8865 8.18522
377.706 66.0969 11.52
345.261 51.6821 9.26226
255.212 35.7892 6.24657
289.984 43.7707 7.34114
322.587 50.498 9.48746
334.677 45.4009 8.29278
289.657 38.2236 7.10434
283.014 40.1133 7.84442
304.995 38.1145 7.16172
328.075 41.543 7.94303
277.799 40.6381 7.54608
202.406 32.0966 6.51152
282.928 44.0666 8.32563
250.134 41.0274 8.21976
364.884 53.9205 10.1181
307.022 48.8283 9.98722
326.835 55.1416 11.0177
350.595 57.9644 11.0967
244.757 38.9967 8.25893
257.08 48.0512 10.6379
284.345 39.0813 8.18878
321.052 54.4284 11.3853
265.107 46.1053 10.5358
309.126 47.0671 9.89962
308.216 58.1633 12.9534
285 45.0045 10.1717
233.404 34.5301 8.09398
261.163 52.6314 11.402
296.124 51.1666 11.5191
225.036 37.5277 8.89868
221.824 34.6424 7.70932
316.137 53.0455 12.0818
166.638 25.2577 5.93188
243.599 41.8712 9.66592
264.217 40.2247 9.1671
224.753 46.2186 11.2633
223.772 48.544 11.7945
266.787 41.032 9.48446
182.736 34.0702 8.99148
211.744 41.838 10.2344
257.829 47.3763 12.73
226.423 43.77 10.905
227.351 42.2839 10.7246
191.443 37.8664 9.61626
234.698 39.2135 9.93459
253.451 41.0691 11.2539
220.215 41.3288 10.5625
202.916 33.2477 8.98619
203.113 31.6022 8.13709
213.413 37.3336 9.75763
212.919 39.5181 10.5727
204.74 46.7807 13.0143
197.66 36.2867 10.8137
194.393 41.683 11.6661
152.096 36.3282 10.4769
179.424 44.6772 12.7829
203.824 44.5283 12.5753
166.116 34.9147 10.5289
160.666 29.043 8.7632
195.942 37.057 10.3834
179.053 39.9828 11.7245
139.727 29.1788 8.87389
189.023 45.6096 13.3594
162.838 30.5532 9.25468
167.324 35.0729 11.1197
170.57 43.7688 13.2243
187.785 42.007 12.7167
157.237 34.0464 10.3583
207.733 46.1952 14.4197
185.853 39.9202 12.5026
190.878 43.8488 13.9948
205.557 47.7817 16.1286
202.232 45.2479 14.202
144.431 30.1314 8.96891
181.158 50.5084 17.1151
155.579 37.4781 13.1801
170.391 38.5931 13.2432
163.582 45.0488 14.7478
145.868 39.6929 13.7026
148.419 37.591 13.3206
161.817 35.0585 11.255
150.141 34.0639 12.3033
124.129 35.183 12.4801
189.543 46.0193 15.2038
170.438 42.0895 15.5041
140.178 38.6644 14.217
197.109 40.9731 12.4228
122.822 31.4542 11.6992
161.918 36.8201 13.278
170.938 43.8704 15.7175
158.496 38.4427 14.6031
122.436 32.8762 11.7081
126.673 37.2192 13.3043
119.879 32.4197 12.1099
143.431 31.362 12.3215
138.258 42.9132 15.8283
133.537 34.5102 12.9851
117.74 32.3858 12.535
126.19 34.1095 13.3638
111.488 31.1393 12.7859
154.249 39.456 15.2324
146.797 39.6136 15.1379
103.128 25.2202 10.8962
113.383 27.7085 11.1224
125.385 39.3347 15.6587
147.54 40.5175 15.4977
136.651 41.6436 17.686
112.595 28.2742 11.1013
137.902 40.7493 16.4493
105.202 25.3133 10.9505
120.804 42.1208 18.8414
116.497 35.4213 14.84
167.757 48.6287 19.6661
125.777 38.3848 15.5975
105.646 36.3094 15.4262
128.874 45.3868 20.3766
111.722 27.6875 13.3335
104.148 32.0413 13.8502
113.384 31.5412 14.267
113.196 30.663 13.1949
113.577 42.048 19.0308
133.706 38.8785 18.5275
103.162 41.2149 18.602
102.909 37.4085 16.8457
114.13 34.8555 15.4049
104.48 37.2898 17.3354
116.27 41.8588 17.8637
122.538 36.7776 18.0566
133.06 39.7192 17.8564
103.073 30.5199 15.4369
128.07 41.4332 18.2703
78.8931 23.8293 11.23
140.347 45.5433 19.5177
92.7971 41.2387 20.8111
100.445 31.5175 15.3465
132.757 46.8363 23.4668
114.964 37.8215 17.8084
108.056 42.6771 21.6071
126.582 44.3221 19.9625
93.756 36.819 19.51
89.8735 29.1355 13.4483
113.984 36.8587 18.9799
89.2757 30.4142 15.4576
83.4675 33.392 17.1128
100.077 38.9543 18.4599
105.366 35.5994 20.2015
71.4147 27.8059 15.2685
91.0943 39.9692 20.3784
90.8174 28.717 14.6473
80.9294 32.1682 18.4689
84.0018 35.1199 19.3914
102.64 37.3916 19.6076
66.6106 24.9965 13.6186
85.0942 39.099 21.5983
81.9607 28.308 15.181
71.9959 24.8636 14.7621
91.9513 38.804 20.6062
101.849 42.6417 22.9237
74.7984 35.3254 19.031
96.7285 35.135 20.4565
98.2686 32.822 19.8955
95.0208 36.7596 19.7788
100.385 38.2109 20.573
79.9284 32.7741 19.1565
92.1941 33.8094 19.1296
81.5448 31.7152 20.4483
89.79 35.4235 21.281
82.5073 30.1514 17.014
91.009 38.2386 21.4645
85.0521 35.3825 21.212
82.1404 30.2408 19.1795
73.2173 27.1352 15.9143
104.049 45.1691 25.7582
86.1478 38.85 23.3338
59.2058 28.6517 17.718
95.2153 38.3266 22.5513
64.7407 28.9148 18.7218
87.5863 35.4952 21.9814
66.1785 24.5764 16.1061
64.0182 22.5482 13.6731
76.9083 31.7973 20.4824
80.1357 35.8345 22.6412
81.0404 35.9141 22.9722
84.3588 34.6067 19.7275
63.8002 35.0268 21.739
71.6072 36.4383 24.1821
76.3702 25.715 16.5008
79.6991 33.4147 20.6846
52.0612 26.3816 18.2241
92.5322 34.6775 21.0541
59.5917 33.1837 23.4639
73.465 30.7298 18.4726
65.5164 24.9132 15.9153
74.8679 39.8413 26.031
63.9772 32.6883 22.2489
73.1499 35.8369 23.816
67.1264 30.7542 22.8204
61.1482 26.2244 17.4754
64.9406 35.2661 23.9216
45.6395 21.6193 16.019
61.1349 25.8028 17.298
62.424 31.3047 22.4176
56.3676 22.6009 15.4497
61.4007 26.5279 16.6608
48.1695 23.5754 16.7911
57.4124 21.6077 15.0957
67.3492 28.2396 20.3034
53.8124 25.0931 16.8598
70.7238 32.7897 25.2086
68.2229 36.7093 22.4736
51.8445 27.2168 20.8858
71.6079 34.1264 25.8633
52.6673 25.8374 20.3512
78.9916 37.8136 25.257
55.8045 30.0204 22.1853
59.7048 29.2872 21.9444
78.887 36.1083 25.5595
43.2445 22.8525 18.1134
56.0833 26.7064 19.7752
53.3809 28.0226 22.9412
70.1931 28.0103 20.5261
63.4271 30.2751 23.8552
82.9597 37.9366 26.8826
72.5681 37.1079 28.0206
58.0715 30.8881 24.5692
64.0756 31.6458 25.1328
63.166 39.8793 31.0177
56.1806 24.9428 18.5443
56.6915 30.6543 23.7395
53.4117 36.75 31.1376
80.1059 40.3157 29.4566
41.2968 26.3207 21.2641
53.5442 29.0024 22.7325
59.1423 38.5602 32.5428
56.4472 29.6181 25.8293
69.3308 35.2789 24.5597
34.3187 21.3074 18.9425
56.3142 32.3532 28.1062
57.3938 30.5681 25.1898
54.0839 27.1872 22.718
56.6987 28.6264 20.5498
42.8851 23.0068 20.1627
53.6466 29.0618 23.9134
61.9537 35.6911 28.1949
47.3819 27.7007 25.9181
47.2308 26.6839 23.0487
57.1801 33.1611 26.6642
46.3801 20.2992 18.595
56.2453 31.7293 23.2517
43.2988 17.0946 14.0952
43.8679 28.7486 27.0469
58.1066 30.7458 23.7873
39.4686 22.4002 22.1251
51.5865 24.8014 20.6078
34.7066 25.8592 24.5063
44.2793 22.1423 20.6367
55.4214 30.6401 25.3589
52.7262 28.4519 25.8568
43.89 26.3171 22.6053
44.7959 29.7138 26.2524
43.5844 25.7173 26.6925
42.5888 22.9544 22.3314
47.2406 36.2586 31.5042
51.5075 27.3604 24.9655
40.1523 29.6683 27.5166
56.1108 32.2559 28.1388
52.7864 27.8779 27.3921
55.2806 28.0822 27.3997
38.365 23.6655 24.0756
58.5615 28.8592 24.9908
50.2536 32.6947 28.3523
40.1807 20.1139 19.3583
40.2748 29.1441 26.7134
37.3271 21.8313 20.1959
53.2689 35.2633 32.3171
39.5663 25.2208 24.0227
47.0508 28.5304 27.0276
53.1333 27.61 25.3574
38.2812 23.8361 22.6116
49.8116 29.0011 27.6253
46.8907 28.979 29.4663
55.0325 32.9144 30.6782
37.2262 22.5478 22.8885
48.6394 36.7538 36.7925
38.9798 30.1523 28.7541
29.6359 18.8774 20.5004
38.5361 24.5837 22.916
50.183 34.2491 38.4624
48.8737 33.1256 34.1724
49.2909 29.2626 27.2388
42.7583 28.3235 27.6313
39.1277 27.5409 26.9462
42.8819 30.0663 31.71
34.8285 30.2749 32.3441
38.0976 21.1234 23.1193
57.0329 39.7467 39.2642
38.5514 22.9006 21.442
52.4892 35.7304 38.5485
43.0479 25.0689 27.0376
40.0048 22.8154 23.8377
47.8073 23.8421 23.6244
35.4445 20.0693 22.8739
37.8434 33.5752 32.5017
38.7541 19.2628 21.4247
41.704 31.5223 31.9387
43.4562 32.6532 32.3742
38.6356 33.8091 37.325
28.986 21.7589 25.6615
32.0036 21.886 25.2644
39.5178 24.8286 24.7139
34.755 23.9604 28.5181
47.8653 27.6239 25.0488
48.764 35.5021 35.6406
39.9772 25.7865 30.3692
34.7949 31.5482 34.1527
41.9192 31.5249 35.2509
30.3637 19.2623 21.6502
36.4836 24.197 23.365
40.5017 27.3602 33.6024
35.3385 21.9465 21.7431
34.0803 28.8704 32.6464
34.1542 20.3965 23.4993
39.4309 27.1481 31.7224
38.1817 31.6512 33.1846
33.1023 19.7092 24.9897
36.8515 25.9466 31.6105
43.6717 30.0167 35.6422
30.7382 24.0735 26.0892
48.3595 32.4053 36.1327
43.1396 36.3605 41.7517
29.9478 28.5255 34.3645
38.4639 32.9254 39.1631
36.1685 22.1065 26.8554
37.7501 27.8849 29.2324
35.6328 19.9403 24.5445
33.2125 23.8575 25.1228
21.6533 16.6229 23.8296
33.7903 27.8449 32.4908
34.5408 25.3787 24.2126
31.1786 29.3168 41.9944
31.6409 21.4042 24.3436
32.2971 27.2089 34.8357
29.551 24.119 29.2927
28.8547 26.7052 35.6766
30.2629 20.3353 24.0266
29.262 23.9462 28.595
36.7391 29.2657 39.6263
27.6871 25.0262 26.319
32.6515 26.1231 31.5069
30.9002 20.4768 24.3917
24.5646 22.7759 30.5232
38.8615 26.851 30.7389
35.663 30.0717 29.322
21.275 22.4659 35.7334
34.2395 28.3393 36.0128
30.3125 23.4851 29.8918
30.999 19.0009 21.3793
31.4737 24.6934 33.3888
23.6359 19.9031 27.8171
27.2504 21.136 26.1213
26.8679 24.2087 28.066
19.136 22.2775 28.7591
27.7026 21.6476 26.9319
21.7735 22.9144 37.5022
31.7959 22.921 26.6222
24.749 20.1677 28.8745
24.6457 19.7318 28.3596
26.8876 23.133 27.2837
29.6386 23.0392 28.7337
23.8419 24.1237 32.949
30.3972 23.2747 30.1517
25.6926 16.3574 24.7238
34.4129 26.1284 38.7083
43.8574 34.2306 39.0521
25.9766 24.6935 33.6999
23.5171 15.8367 24.883
34.2601 26.1959 33.0702
24.714 25.0806 33.9446
29.3814 22.8082 30.4727
30.2635 24.2805 33.9778
32.1512 30.5214 39.2035
27.0224 21.7036 32.8108
22.8312 25.2352 38.2042
25.8203 26.2324 35.5433
28.7744 19.4823 27.6696
24.2068 23.0791 29.0418
22.6976 17.8721 22.0586
28.9492 23.481 33.8734
23.2479 24.4044 34.1145
22.9768 22.7361 30.5864
30.4331 21.4759 31.6941
24.7363 20.0639 26.614
31.1455 25.1125 33.7763
23.7617 19.3711 28.0508
17.3678 16.6863 26.1797
24.6896 21.9472 34.39
29.0447 27.4361 37.6489
31.777 26.9328 34.3879
25.1839 21.69 37.6175
27.4308 25.5376 32.0118
24.4016 24.7547 37.3333
31.7706 26.9735 38.1644
22.5642 22.203 33.4079
23.5095 18.9967 25.945
26.4225 14.117 17.8698
30.4209 21.6338 31.2411
17.5307 15.7788 27.55
30.4452 28.4108 38.3233
16.2395 21.3543 30.3099
15.2182 18.268 28.1066
20.2922 14.7657 23.8184
21.76 19.8852 33.3291
25.6454 20.6757 30.2984
24.9154 23.6865 40.5521
22.9491 21.5869 28.4478
21.4301 28.9291 44.203
24.0181 24.7159 37.1914
28.2281 18.2963 25.7739
23.6032 22.5701 38.9849
28.6733 33.7865 50.434
26.4145 17.5409 24.2224
26.2413 24.1049 38.565
25.0256 19.4211 29.8799
23.4851 17.4303 27.9444
26.3926 24.0521 32.6622
24.1098 21.1597 29.9733
23.4827 22.4866 37.3783
19.4692 15.7845 25.8635
25.0585 19.7962 28.9211
25.5773 20.2489 31.7494
24.4123 23.1081 37.1748
25.5469 24.9264 41.6411
25.7177 27.5043 41.69
21.322 17.1293 30.5506
19.0429 18.0627 27.7367
20.2588 20.6376 37.5102
28.1204 29.1469 42.2764
21.4555 23.7115 38.9567
21.4881 19.6504 31.0356
18.6859 16.7486 33.8629
21.1613 20.6479 27.8687
14.0841 17.9598 27.3586
21.1207 19.4798 33.2212
22.1943 27.1845 42.2806
17.1463 18.6484 29.7571
20.5009 15.8295 27.3384
20.3424 16.9899 27.4079
20.1545 21.645 33.988
20.6344 23.756 39.7844
21.0708 18.3751 27.033
21.611 26.5652 46.8284
20.8263 16.2961 28.3272
21.9616 22.2168 36.4994
23.9794 21.5564 37.4345
21.0008 16.7951 23.7618
24.0665 24.3932 42.7122
23.0268 18.7807 27.2623
17.8279 16.6001 28.635
20.8254 20.8943 34.2453
19.3034 23.1162 45.9836
22.0849 20.134 31.6558
23.4924 18.7671 29.2736
16.7647 19.9012 36.8754
19.359 18.9929 37.4796
25.1423 21.0362 32.8625
19.97 22.486 40.5766
23.5366 24.8833 38.9988
22.202 23.3389 40.9397
24.5837 24.9061 38.78
17.6672 18.4639 34.9939
21.7675 24.5599 45.0988
16.6646 19.9261 39.0179
20.6303 16.6373 28.5429
15.0666 19.2782 33.4073
18.0279 17.5623 36.8443
17.3831 18.3215 26.858
22.184 25.7402 41.8321
15.1209 14.7084 31.795
18.6851 18.4916 30.6451
19.3823 17.9948 34.3973
21.1679 24.4688 42.1584
16.5058 16.6538 34.7728
20.8881 18.5472 31.6496
16.3047 18.3174 28.7504
15.3385 16.9235 32.7009
21.142 17.8458 28.8785
18.1837 22.9584 47.6257
17.7092 17.9526 27.4109
13.8999 17.4073 35.6182
14.6987 14.1758 24.8814
15.6881 19.86 40.4777
17.5085 18.153 25.2805
15.0751 17.277 35.0623
17.4875 15.188 26.4879
17.4587 17.3748 30.5877
15.1081 15.4574 28.4835
18.3452 15.6249 29.4184
16.9774 15.701 31.4448
14.3968 20.8191 35.1858
21.2415 23.1129 44.0283
22.2997 22.0717 49.5087
15.9091 17.756 25.219
13.5089 12.7757 26.7261
21.1019 27.5878 52.3232
19.4167 18.529 31.3812
12.9097 14.7831 27.4349
16.7597 25.3811 58.7612
24.3177 18.2809 24.6034
17.4118 18.3968 34.0709
16.5454 19.4403 42.6374
15.2315 21.4326 39.6375
17.4433 16.7018 35.1707
15.723 17.7029 26.3607
12.9569 14.3245 32.6799
21.832 23.2463 46.5057
18.6253 24.912 46.9442
19.6528 21.1759 36.2066
16.202 22.19 41.0129
18.8211 20.139 39.359
17.2299 19.873 33.6278
14.1097 13.9379 35.2051
17.5562 15.1393 32.0325
11.5049 14.7794 29.6121
15.698 15.407 32.5513
16.1745 14.4438 26.2374
17.2061 20.993 46.1664
16.7622 19.695 40.5588
17.7495 18.0077 36.6018
17.1312 20.6325 45.8959
15.9317 16.7639 34.375
15.5517 14.9647 33.274
17.9678 20.293 40.7444
15.8583 17.7659 26.3374
13.767 17.9991 38.3187
16.1534 16.8841 34.3978
17.709 15.3601 32.1941
16.2435 20.8275 35.725
17.2826 24.5257 41.478
11.5364 17.8852 40.5813
14.3387 19.2194 43.8814
13.458 15.8481 35.3141
17.0392 18.9978 44.377
13.6523 18.7584 31.7497
11.0369 16.4929 36.2118
17.7311 15.8213 39.5213
21.3168 19.1183 33.1169
11.9437 19.2657 38.7181
13.7741 18.6151 41.6757
19.0834 20.6208 43.1663
16.6133 22.5089 42.9815
14.2858 16.8247 36.6094
13.7822 10.2723 23.0309
14.6943 19.6175 38.7007
14.8416 12.744 32.5084
15.456 13.2995 27.8611
12.6423 17.0433 34.9379
11.4396 11.4275 27.5231
13.7504 15.5423 31.7667
14.8953 15.7665 29.1003
12.6742 16.4646 31.0966
12.4315 14.6735 35.2506
12.3242 11.4627 20.9411
12.0064 15.6163 33.6506
11.5847 12.7801 39.5021
12.3964 16.1807 29.2631
14.6764 19.5558 39.5325
13.0192 17.4497 37.5456
12.9996 11.7524 29.9101
14.6264 22.0053 48.941
14.6587 18.3577 28.9738
13.7655 14.6983 29.1399
13.2872 17.0782 48.0273
18.5054 21.2465 41.8779
14.2626 12.6279 29.2821
14.1777 21.1628 49.5648
17.4349 18.1944 38.5883
16.5102 15.975 43.5895
20.8683 20.7704 34.3122
12.6114 14.3504 32.9342
15.8971 19.5613 44.4295
15.6912 15.7004 40.9976
14.1959 18.5281 30.0829
10.7901 11.9351 27.8347
12.9457 12.817 25.5108
10.8855 12.4616 26.8959
11.9307 17.0873 38.8708
12.8361 14.0458 40.9392
15.8929 19.2688 42.4695
13.5827 16.0546 33.9592
11.1345 15.3516 30.5992
13.1937 17.7347 43.0302
15.3452 24.0573 61.0304
13.5642 14.0319 39.8064
19.1362 20.6425 41.137
15.2445 15.3392 27.1092
11.4423 16.9765 38.9775
11.7771 19.0732 54.4635
18.1079 22.3278 44.7958
12.1018 15.812 38.1568
13.2944 12.1437 29.1143
14.4676 15.1833 30.6668
14.2022 19.6987 42.139
11.8091 13.8665 30.348
10.9978 20.7632 53.2393
13.3722 13.3956 28.4448
11.5838 18.5029 44.6494
13.3571 12.0996 24.2944
13.1341 15.8024 49.6107
14.5658 17.7966 34.1107
12.7549 11.8806 26.5128
11.7688 14.2505 31.6669
10.0753 12.3098 28.6559
11.4705 16.9589 46.5444
12.4812 18.6006 41.8378
11.8875 12.2667 25.3568
9.53891 11.0087 30.4766
12.058 13.973 32.7402
15.4182 20.8534 44.9167
13.2449 17.7041 44.0312
11.8627 12.972 22.5955
10.4457 13.8896 41.498
12.3753 16.0883 36.316
12.8909 12.3395 27.5524
9.32996 12.88 27.5402
9.59107 13.483 36.4648
11.2418 10.624 31.2533
15.9064 17.2575 36.8584
9.78576 16.306 42.108
11.9743 11.0238 27.5546
10.6704 15.0135 33.8858
12.7937 14.7502 33.5865
9.22591 12.4131 33.7453
12.8923 15.575 41.2116
12.5554 12.9526 36.2164
12.2466 16.8959 43.8121
10.5267 12.0849 28.5519
13.9924 14.7053 35.9942
12.0571 12.0668 24.8018
8.29672 9.09307 26.8977
12.65 16.8791 44.8955
9.49164 11.0693 27.5372
12.7253 14.1641 33.2064
10.5816 14.2199 34.4067
14.0123 16.3724 36.1759
10.59 13.7753 35.4668
13.5912 16.8587 40.8586
12.8899 14.4477 36.4013
9.44169 17.8928 45.6229
12.9081 17.7633 51.1195
14.5669 16.7493 36.1424
12.9221 15.1962 35.1759
12.7654 12.6593 34.7173
11.3627 18.3006 44.5364
8.29044 11.9553 36.9945
11.7971 13.2109 31.4092
8.29125 10.3608 27.2262
10.8203 15.672 46.729
15.7873 22.7058 48.0458
9.735 17.378 52.2756
14.065 14.6146 33.9975
12.7146 12.9444 39.6402
16.2494 16.8109 32.5508
10.0985 9.98772 27.9131
9.57952 14.8106 44.2138
10.8206 13.8254 32.2844
10.7707 14.0789 34.0338
8.18327 9.21689 33.5919
9.71767 17.4285 37.6695
10.6673 11.8835 28.1422
9.51897 14.6812 39.47
10.6343 13.6543 42.3786
15.2625 18.2963 35.4492
9.03732 12.7303 48.5527
15.9361 20.7761 43.5967
11.0517 14.2769 41.991
12.7674 14.6947 43.3599
13.4939 15.5822 35.2932
9.26476 13.464 31.6556
10.2949 12.0327 36.4166
9.28031 13.5721 30.229
10.8757 13.1133 41.6274
9.93762 11.2734 29.7115
10.3466 11.9458 33.265
9.14713 15.6805 37.5866
8.60125 9.4983 27.4534
11.1572 11.5732 33.5026
11.0919 15.4298 41.0683
9.65666 15.1629 39.5979
10.7564 11.3798 32.5819
10.419 16.3264 48.1493
11.678 17.0532 45.0315
13.5002 16.31 40.8488
9.48067 10.2002 28.0536
9.0769 14.5625 34.1336
8.96342 11.8557 33.1128
11.6306 14.9977 42.2463
10.3366 13.3537 38.7339
9.5525 15.8284 39.2905
11.2854 13.4921 33.1867
12.2765 15.2199 38.9457
8.66585 13.1417 34.8081
8.91508 10.4796 28.6313
9.14377 11.315 34.4603
9.92394 13.2819 34.114
7.32856 11.6423 31.363
10.5321 13.4892 37.1154
9.05041 12.7733 42.8597
9.71561 15.1413 33.8144
8.08214 12.9794 35.2018
9.66372 15.2234 41.6072
8.90156 14.1974 44.6832
9.88063 15.9186 49.2767
12.2173 15.9843 36.7976
8.84795 9.29222 26.9085
9.45395 13.5585 32.3518
9.11006 11.9602 40.3949
10.0253 13.152 35.5621
10.3518 16.5115 45.5954
10.1689 17.9346 44.4379
11.5729 12.3565 36.7027
11.1822 11.5618 36.1389
9.81335 11.2204 32.1077
11.2536 11.6994 28.4456
9.3014 10.3896 29.4533
9.46886 9.81863 25.6374
9.93492 12.2976 38.6755
10.6034 17.2307 39.2777
9.55079 13.647 42.7213
9.13997 14.1992 43.072
9.75315 10.8786 29.519
9.85039 10.7601 44.1829
14.3727 16.5651 44.2477
9.93557 15.7429 44.5604
9.88183 15.658 38.599
9.36777 8.51914 27.3061
9.63615 13.4889 38.0828
7.55372 12.3734 40.0122
11.5712 13.3695 36.834
8.95554 11.5642 27.732
9.96904 10.0722 31.6394
10.3689 11.9823 32.7784
10.2545 15.3288 43.1121
9.58817 10.3197 23.5573
7.80619 13.9766 39.1972
8.49588 12.2036 42.3234
9.13422 11.0214 36.9239
10.9085 12.002 36.5156
8.94379 11.2549 39.8617
12.1894 18.1191 45.0569
10.444 13.0289 37.4501
9.01063 13.7805 34.9111
8.38686 12.3395 37.0865
11.4887 11.675 31.6841
9.42086 14.5583 41.9245
9.99274 18.0563 51.4889
8.66049 10.0281 37.7568
9.36854 10.1619 31.7765
8.78681 13.0672 35.5864
8.27297 9.46732 35.2598
9.77974 11.5329 28.6838
8.15683 9.00508 36.481
10.1684 16.3814 40.8457
7.33737 9.61268 24.0601
6.9068 9.55357 37.6049
9.77014 12.1843 41.2383
8.753 10.7041 24.1441
9.64377 11.6004 38.2956
9.6281 13.0496 38.0789
10.3779 11.8107 37.8146
10.384 12.6911 31.3607
8.09251 12.9082 37.7829
8.58762 14.6584 42.6334
7.28766 13.4014 38.8258
9.35241 10.1863 29.3626
7.13559 10.2503 27.7342
9.84737 10.3633 39.7914
9.31053 11.5497 43.0959
8.51816 13.3999 35.4124
8.27436 12.8569 32.2826
9.73781 16.0721 48.8894
7.89001 11.558 35.5976
9.37465 11.2885 33.8217
10.0634 15.7728 45.3681
10.7555 14.4983 48.9606
7.51188 9.01974 31.0665
8.60871 13.9041 45.6696
10.6434 12.9899 34.6624
7.50611 15.4752 42.924
10.0717 10.1198 21.927
6.62613 12.2528 39.6586
8.24788 16.7116 53.4872
9.38367 11.8425 41.1802
8.77402 11.9831 39.0724
7.54106 10.8194 32.8432
8.08921 10.5976 36.4307
9.39584 17.254 51.7405
10.0765 12.1123 30.9763
9.44137 13.7837 51.4459
9.92509 14.8026 33.6663
8.74457 12.2247 38.0591
9.30649 9.49777 40.8393
10.5957 12.0224 36.7998
8.96991 11.9119 34.3117
9.01521 10.0217 33.1801
8.1868 10.024 36.1403
8.78406 12.7658 37.6261
9.92305 15.1853 38.7945
7.96292 10.7346 33.8458
8.38148 10.3634 35.8983
9.01073 11.7105 31.2861
7.73251 10.8916 45.4596
8.04949 11.95 40.0031
9.48267 19.4494 50.7754
10.0935 15.2279 41.0116
8.53547 11.7999 50.2999
11.2312 13.668 35.818
6.73288 9.31661 27.4815
7.01493 11.8701 35.5905
6.8638 12.4002 44.7029
9.37633 11.8107 38.1194
7.58686 9.75516 36.1549
9.40243 16.7001 52.2683
8.22556 13.9105 56.2567
10.5094 13.3317 37.1778
7.65377 11.4124 37.2351
7.46764 11.632 37.1214
8.73592 12.0981 26.8534
6.99773 9.01562 41.5541
9.50693 13.7256 33.5232
5.88969 11.9085 40.2108
8.47287 11.7248 38.5173
7.42741 9.38239 35.8171
7.699 16.5579 46.7424
8.82845 7.68409 24.9341
6.5834 9.76618 40.4093
7.73349 12.9003 42.7111
8.97889 12.7633 37.4993
7.92942 13.6738 39.6569
7.00788 9.73315 39.776
7.62446 14.2043 31.0765
7.7765 12.6611 36.8478
7.66598 10.226 38.694
9.08534 12.8719 48.7258
7.69784 10.7706 30.1184
8.89229 12.1009 40.4227
7.72945 7.41567 31.0478
8.37005 12.5947 38.0054
8.85942 11.6857 37.4212
10.1645 15.1543 45.3245
6.95884 11.2813 36.8337
7.00898 10.3656 41.0844
9.08737 12.243 43.9032
8.46471 14.2362 32.1892
6.45983 11.1306 28.8825
6.77466 10.1034 42.6045
7.9222 10.478 34.3853
7.05063 9.59313 40.056
10.0225 10.9952 31.9179
7.16769 9.24009 29.9833
6.69935 10.6928 33.7013
8.45719 10.8554 38.7411
7.85598 11.8987 40.1928
6.56711 12.9842 47.1776
8.78932 10.6203 38.9921
7.26415 11.4295 36.0724
7.70139 10.6446 35.5084
7.79331 10.8392 37.53
7.89129 10.1533 28.9022
6.45151 6.0403 18.9431
6.46443 9.24355 36.5859
7.40689 11.1142 39.5482
7.05718 9.88906 25.2712
7.54009 6.61652 24.0456
7.6868 13.1633 40.3748
6.64408 11.4317 30.9967
5.97758 7.9389 30.226
7.83025 8.34741 27.522
6.84466 9.77346 42.9205
9.22048 9.84749 34.7127
7.93977 11.4038 36.6105
8.40253 11.0329 38.7969
8.72623 12.2664 47.0807
9.57387 13.927 41.2499
7.98647 9.70902 37.0701
7.47614 10.4117 38.9604
7.14319 10.5205 29.8
6.7964 10.523 25.5553
7.09887 9.60383 38.5899
7.18441 8.30263 33.5233
7.64574 15.9598 49.7356
7.41904 8.60748 30.6179
7.51386 11.825 36.6993
7.72429 12.1993 44.3179
6.37444 8.47245 28.421
6.9281 12.4886 49.2085
9.52412 10.7402 29.7846
6.9582 8.66926 31.6324
6.8743 9.56442 37.2588
6.04828 10.4347 29.749
6.43205 9.10621 24.1753
5.85689 8.02818 39.0091
6.8871 9.45765 26.3921
5.85 9.59869 34.6869
7.31438 9.61956 41.0133
9.76672 14.4183 39.987
6.88974 11.8749 38.9736
6.87533 9.46402 29.4644
6.24353 8.47053 43.1932
8.1477 8.81905 38.6935
9.72247 13.786 28.3819
5.08519 7.3165 35.2654
6.6086 9.65142 33.3797
6.55878 10.145 35.2537
8.20588 13.0487 40.3988
8.03698 14.4044 43.0901
5.54588 6.89321 33.2755
8.01773 9.61337 37.6886
7.84745 15.7265 49.9895
7.66953 10.6043 33.2523
6.7371 9.38335 32.0047
6.98332 9.25028 34.0699
5.88835 8.90487 38.6591
7.80577 14.2014 53.7406
6.8088 10.4734 39.5906
6.60596 10.6816 29.6219
6.40039 10.0834 30.9021
6.84142 8.44978 31.5783
7.74556 11.6821 44.3412
8.72531 10.5727 34.0358
6.67531 9.3831 42.3896
6.62089 9.09378 35.1738
7.24932 12.2987 37.7825
7.3166 11.1972 36.1667
6.06739 9.39375 30.3253
4.89444 9.98517 36.3606
7.01279 9.19536 24.2344
6.00766 8.2975 30.1453
6.82872 8.73252 37.1287
7.65665 10.3287 30.7215
6.09039 11.5949 51.2404
8.64019 10.2929 38.938
5.95782 8.90642 27.5839
6.51512 8.53423 27.0955
6.278 7.43562 27.5381
6.75538 13.5717 41.1206
7.25846 8.97217 47.4032
6.70028 10.8271 34.1907
6.33163 13.0467 56.0479
7.7166 12.9802 47.6384
6.50564 9.68163 28.6699
5.97902 7.96287 34.9814
6.98973 10.4326 30.0054
5.5013 6.63751 32.6061
7.26048 8.00824 32.9568
7.33043 10.7677 30.5799
6.46759 11.1313 31.5783
5.98776 9.39392 31.8251
6.44564 9.03813 36.6544
6.84509 9.23925 43.2268
7.53304 10.8708 38.9661
7.21197 12.1871 33.7729
5.41517 13.0395 45.5397
7.04049 9.99918 26.7641
6.02509 8.87396 45.4954
7.79478 8.64397 39.2865
7.87432 9.31322 36.5617
7.64503 9.72386 34.0121
6.86689 12.6129 39.6232
7.06073 10.4082 39.8967
7.53622 11.8693 28.6773
5.75792 8.31574 39.1037
6.98038 10.5112 40.6462
5.66486 15.8042 49.1688
6.36302 10.2972 36.7294
7.06149 8.46112 44.882
7.52646 8.82039 29.1025
7.05352 10.3846 46.3009
7.59733 9.79642 25.9499
7.69974 10.4877 36.4345
6.49812 8.47225 34.6979
5.89935 11.6091 44.1925
5.75388 8.46326 32.0729
7.16295 10.7331 37.684
5.68376 7.30797 21.9795
5.72599 9.67362 41.4623
8.59701 15.6424 34.5608
5.35472 8.90343 34.633
7.21128 12.2215 53.5888
8.46589 11.2129 39.9888
7.29657 7.15528 30.0612
6.32413 9.45192 30.0483
5.87053 6.55087 25.25
5.2131 7.26883 34.228
6.15454 6.95092 32.4207
7.5017 11.1282 36.4445
6.42199 8.49054 38.3986
7.63802 10.547 34.6221
7.48124 11.0196 30.4692
6.07381 10.1975 40.965
5.48622 10.4013 47.9549
7.69739 9.0574 20.7753
5.34713 8.55325 30.4124
5.60977 8.33908 35.2193
5.96677 7.45568 33.6932
7.3302 9.96935 39.3857
6.4675 12.3602 34.4589
5.62244 18.2491 62.0189
8.3703 9.65698 43.6818
6.26967 8.34993 34.0907
7.55327 8.87965 36.7828
7.8822 12.6404 46.3119
7.80306 11.7559 43.2521
7.59645 9.85153 25.3876
5.70475 7.56251 36.896
7.07034 11.6544 33.739
5.93159 8.77265 40.7717
7.11185 11.4787 33.5537
4.82334 9.26767 40.4673
5.45084 6.59812 26.627
5.61261 8.06892 32.2152
6.50744 12.1341 40.1577
6.35266 12.9121 41.1869
6.69657 7.14632 45.6365
7.30519 11.3982 26.6778
5.45906 7.56842 36.0243
6.44628 11.6711 56.5367
7.87762 12.4423 39.9213
6.60841 7.26265 25.7312
5.35634 9.36438 33.2078
5.90456 7.87696 32.7139
6.46308 9.39779 32.3807
6.51639 9.98476 45.2856
4.58257 8.33257 34.9633
6.17945 12.6772 57.2485
7.50225 11.6677 32.6582
6.51628 9.32641 37.0364
6.42671 8.64493 26.6017
5.78484 7.98476 27.3762
5.83921 7.74325 35.3839
5.03638 7.49382 25.415
5.87254 12.0859 45.2433
6.11887 8.44303 23.2036
5.07697 6.64458 29.8657
5.38522 8.85019 35.4547
4.83298 8.484 46.8154
5.52409 9.62873 34.0462
6.05134 8.7767 27.4079
5.85007 10.5518 35.1831
5.52911 7.97359 22.3195
4.64817 5.7729 32.5263
5.59171 9.64004 31.7621
6.46714 6.06018 32.5516
6.17435 9.95885 27.449
5.44527 9.48873 34.0213
5.22234 6.4388 31.1263
6.43555 8.27586 18.8744
4.75479 8.5068 43.4322
7.2249 12.1317 42.5938
6.75183 4.87759 24.9243
6.54948 9.02221 31.2256
4.37636 8.62002 36.1395
6.32774 7.49873 26.3846
6.0858 8.99174 25.3528
5.24329 8.60346 31.327
5.65216 7.02499 37.8512
6.24012 16.807 55.981
9.30994 10.1546 45.0714
6.90143 10.2377 37.4343
6.56064 9.56326 37.457
6.9489 12.3985 50.5569
8.10224 9.62178 40.7936
6.62817 10.5955 33.4677
6.54681 7.56323 39.7643
6.33576 8.4243 36.7258
7.24241 9.60941 23.6273
5.19955 9.48782 34.0669
6.00993 7.30273 35.2313
5.55432 9.20167 32.2701
5.39794 6.32107 24.242
5.64916 11.1581 47.1655
6.61284 8.17387 34.5623
6.3582 7.25535 30.6365
5.58852 7.51381 29.3247
5.48973 12.401 49.6511
5.55558 7.11326 34.1932
6.74443 14.029 42.7017
6.72905 6.54443 28.7073
5.06111 11.3262 54.1496
7.11299 9.84002 28.8377
5.94575 10.2362 46.3073
6.92596 9.22915 31.6784
6.77254 7.30183 26.9924
5.32833 10.5484 36.6956
5.76982 9.41642 39.1834
6.20716 9.11024 35.1275
6.66056 8.18047 45.2013
6.92608 11.4276 34.549
6.17233 14.4673 47.8417
5.38639 8.07935 33.2483
5.63593 11.2664 42.8431
7.25039 11.2028 58.109
7.59601 13.8096 31.9089
5.26819 6.54184 34.7757
6.49337 9.8163 28.839
4.3309 6.78865 33.2628
5.47387 12.4963 48.3892
6.98311 13.8602 44.8651
7.46813 7.0261 29.02
6.62683 6.34081 22.8692
6.09963 8.43642 44.0073
7.22016 9.33221 27.1302
6.12485 9.11043 39.0771
6.01593 10.6897 27.0721
5.03597 5.99674 28.7241
6.26016 11.5793 48.1392
5.44535 8.52553 37.6264
6.04329 8.91333 50.3458
6.72618 11.146 30.155
6.16816 8.84604 36.9689
6.07939 12.2486 40.7739
6.38835 7.54267 27.0395
5.3503 9.11701 47.1095
7.13239 9.28152 32.8624
6.27157 10.3241 34.7356
5.09347 7.21631 32.6811
7.02056 7.26563 33.5451
5.79926 9.0921 31.3017
4.83266 9.05678 35.6333
5.18053 7.04231 25.4326
6.22072 9.08206 50.933
8.41066 11.6673 28.44
5.08338 8.14624 36.5764
5.56559 7.91751 37.5671
6.59641 9.52977 31.1194
5.88275 10.6464 37.4491
6.25254 10.1682 33.7102
5.0625 7.1163 27.7491
4.95539 8.77206 43.4604
6.86993 9.77045 38.2811
5.93548 8.82228 29.1649
5.03611 9.24955 49.8499
6.63958 11.5106 30.8664
4.79777 7.21513 34.4998
5.9128 8.62274 43.6836
6.15323 8.82971 22.7291
4.94776 6.58922 33.4004
5.15404 11.0963 32.9371
6.16125 7.82744 39.9906
6.8247 7.4774 40.0358
6.91995 13.6448 47.3996
6.50251 12.9433 39.7536
5.69439 8.38348 32.8555
4.98966 7.87309 32.507
6.12799 8.5424 32.5044
5.46423 8.56504 44.8451
7.18973 10.0037 28.4534
5.61 7.80069 35.4138
7.07379 10.8634 32.435
6.17829 6.39694 36.1498
6.38014 9.66311 38.9064
6.76253 9.38474 28.134
5.49716 9.45702 37.5624
6.64863 11.5944 38.7161
4.84995 8.22771 46.3137
7.78831 11.1406 44.8646
5.98276 8.05854 35.8484
6.31198 7.95164 27.0959
4.17436 8.87587 33.5779
6.67344 7.83225 30.5885
5.08208 5.89328 37.842
6.73117 12.4688 35.5502
6.14392 10.122 51.9066
7.08039 14.6683 51.3874
7.07282 10.0233 39.2226
5.25287 9.58584 41.369
5.60215 9.46255 33.496
5.5295 7.88544 21.2507
5.07006 10.0805 58.7011
8.47583 10.606 36.2879
5.53114 8.39363 31.7185
5.44756 8.98205 34.1841
6.06822 8.42574 27.4726
4.1818 9.0234 37.6149
6.68616 6.9648 29.0229
5.36205 8.35684 37.7599
6.97804 8.93486 27.2637
4.50007 8.16901 41.2049
7.04531 8.89669 42.6572
6.75194 6.69647 27.4662
5.66183 9.53417 42.3189
6.80423 8.15617 33.3306
6.54262 13.1694 36.2727
5.09787 7.31253 28.1495
4.4905 8.27629 28.7169
5.49964 6.53994 43.8054
4.59303 11.0288 24.3222
5.08719 5.82353 33.8291
6.05563 8.12618 35.7343
6.25283 10.7766 28.7677
5.19533 7.05578 36.0567
5.24525 12.9473 39.542
6.16305 6.85021 35.7283
7.59145 7.98886 31.1163
5.64229 5.5167 38.5988
7.2506 9.99654 39.9072
6.56899 7.81086 29.4888
6.87123 8.96403 37.7116
6.54229 7.81983 22.5835
5.09073 6.89491 30.4557
6.49746 10.5314 35.2127
5.29173 10.1418 39.1387
6.48718 7.24534 34.8382
6.40747 6.85107 38.4557
6.48206 13.4207 31.2841
6.07494 6.15028 30.3626
5.77051 6.83173 23.0658
4.58927 6.57925 34.5962
6.08605 6.91087 25.6293
4.80996 7.85341 35.1051
5.42825 9.44857 37.0464
5.01729 8.38553 28.2605
5.03092 8.14325 34.4817
5.30789 8.23365 38.3192
4.81399 10.2753 27.0646
4.97398 9.46292 37.356
6.2415 6.58564 31.8345
6.15095 8.82839 40.4886
5.74462 10.0354 41.1548
7.03953 5.95462 26.0995
5.23337 7.34182 32.8629
4.69539 7.81531 36.3078
5.70217 11.7299 30.5102
5.14292 8.08662 44.9478
7.54985 10.7014 32.0634
5.66606 8.61068 46.2382
6.06042 7.68521 22.2603
4.68183 9.44376 40.0497
5.55221 7.20507 21.3356
5.20181 8.63579 42.791
6.78261 8.45077 27.6413
6.25621 5.93953 27.3285
5.50688 10.6532 36.3957
6.96355 9.34366 41.501
5.99209 7.76529 32.348
5.60043 11.9001 39.3462
6.43081 5.40454 31.3458
5.97507 9.21885 39.3829
5.82241 11.2276 42.6078
7.3815 0 0