# pn-170911/CsIIA-33-USNO-1280-1959.psd
# Power spectrum* (dif=0,1,2) (really just |FT|^2)
# NOTE: only the first half! (symmetric)
# weeks: 1280-1959
# 7 clock-days, 0 excluded
# PSD: 1441
47684 2.19181 0.0187466
1.66156e+06 23.1831 0.04549
6.61389e+06 114.796 0.0662757
923541 39.1269 0.0463484
2.19278e+06 133.962 0.041692
717124 75.528 0.0527401
420144 62.1825 0.0602861
289641 56.3135 0.0816406
324250 89.7713 0.0461557
186133 67.2663 0.037213
146941 78.6482 0.0886277
106690 58.2771 0.0724522
85898.4 45.6679 0.0361189
74401.9 45.4403 0.0528338
50924.5 25.3247 0.0757566
42425.5 40.4658 0.10903
38638.1 41.0147 0.101409
49714.6 61.6036 0.129126
30375.6 61.3151 0.132795
35860.8 46.0693 0.164551
23331.1 46.1754 0.217866
27157.5 44.0488 0.128182
21687.2 39.6401 0.107011
37858.2 94.0559 0.255672
21773.7 50.8017 0.0816464
14564.9 42.9839 0.167209
12872.9 38.5687 0.0892602
6579.88 25.2376 0.112889
17928.4 56.3258 0.272031
16456.6 52.1994 0.275694
11545.3 28.8765 0.144312
14796.9 69.0263 0.374634
16471.2 70.4612 0.344297
12317.3 51.6522 0.326475
8925.64 46.6165 0.251375
10324.4 64.8647 0.357167
8750.07 40.9075 0.339794
4444.39 27.4565 0.229546
12151.3 72.9959 0.42196
6024.48 33.0828 0.304467
10018.2 76.2727 0.677341
6278.88 51.4821 0.419989
8996.77 79.6987 0.856076
7532.05 53.6628 0.543638
8694.59 78.5134 0.627513
7996.01 66.4885 0.775914
3695.65 44.6685 0.593331
3933.54 25.8576 0.294608
6768.34 60.6548 0.719732
3738.16 48.4456 0.446628
3714.56 43.0197 0.65864
5543.3 62.7992 0.697888
4486.43 61.7834 0.837956
4248.72 49.8473 0.618373
3720.61 50.1721 0.960237
3667.12 34.3993 0.547134
3026.28 36.9092 0.546214
3357.11 47.2732 0.802574
3608.07 51.6348 0.989782
2439.36 38.9108 0.646047
4368.22 62.4229 1.01155
1759.25 29.9111 0.54579
3532.34 56.8654 1.1229
3449.12 74.0684 1.36013
3036.76 43.215 1.05206
3395.83 47.7559 0.904547
3833.49 53.0518 1.34131
3046.82 74.1598 1.63834
5904.76 106.22 2.58564
3898.52 70.0024 1.8519
2446.81 48.0452 1.30188
2600.02 65.6836 1.68336
1863.09 37.1195 0.792738
3929.13 90.2213 2.57245
1763.92 45.4269 1.27533
1987.72 49.8324 1.36388
2291.87 64.7552 2.30127
1207.87 26.4034 0.46114
2476.81 60.7928 1.63566
960.832 26.4109 0.875472
1830.75 42.9724 1.2065
1022.03 21.9235 0.761821
473.3 9.70825 0.396818
1613.2 47.8813 1.65517
1303.47 39.9151 1.58405
1575.48 43.0036 1.8812
2358.26 81.6671 2.55525
1225.24 45.6919 1.60571
2045.72 47.0657 1.76712
1499.49 50.9531 1.89744
1240.75 26.429 1.2094
1607.38 53.9627 1.80289
1609.42 59.5087 2.39472
900.41 40.6986 1.99501
1061.72 41.1314 2.17295
2556.45 94.2249 4.15594
1115.46 40.2249 1.98674
1179.02 40.1729 1.9824
1490.52 64.01 2.63515
1087.17 33.8651 1.61452
1790.72 65.34 3.19192
737.682 35.6562 1.68326
1665.48 82.703 4.10968
1374.4 58.872 3.24332
1198.37 40.1062 2.33213
643.922 32.0229 1.86824
1011.58 49.5232 2.68584
754.007 54.8012 2.96263
919.214 43.9106 2.63892
1077.61 56.7558 3.50967
980.342 44.4216 2.62647
599.946 43.1053 2.59835
741.618 39.3925 2.61842
892.02 59.8265 3.8177
870.682 30.324 2.15744
547.05 29.3579 1.68711
851.399 43.8919 2.73968
905.049 53.3261 3.19123
545.241 30.3265 2.03034
1003.72 49.4725 3.34033
546.352 39.1101 2.4143
860.338 47.008 3.28873
919.006 60.1852 4.78387
595.514 55.845 4.14898
728.371 42.9298 3.03894
863.561 43.008 2.9286
572.391 38.7262 2.98716
776.897 61.154 4.74285
624.636 36.4137 3.06506
713.603 50.3221 3.68736
420.629 25.672 2.28573
440.841 46.5996 3.46597
975.634 76.9164 6.38162
924.548 79.6157 5.8739
629.801 49.6488 4.26172
912.177 69.0695 6.12545
382.159 29.7092 2.59893
920.897 55.1537 4.86648
539.569 38.4458 3.70436
378.592 31.8332 3.06035
573.526 47.0898 5.1343
577.599 52.9643 5.1738
548.528 44.1269 4.22422
412.946 30.4372 2.72705
134.38 15.6018 1.75979
698.595 58.7001 5.10075
328.691 32.2124 3.39966
1371.02 114.352 11.3487
549.972 55.4623 5.49753
602.076 61.9304 7.14214
575.948 50.9296 5.37945
485.914 61.226 7.12895
459.781 49.1958 5.66703
606.465 48.218 4.82767
473.042 45.3796 5.6444
507.176 55.0331 5.74316
591.935 74.4325 9.04271
364.402 35.592 4.01609
443.361 37.0736 4.28066
454.476 45.6945 4.6785
362.171 45.5702 5.94887
605.314 57.0588 7.00924
496.969 60.9313 6.46923
454.138 44.4078 5.53261
244.797 43.123 5.70823
318.14 22.7548 2.85271
666.86 73.6226 9.25786
390.806 48.472 6.35998
440.315 43.4553 5.70162
283.023 41.5411 5.48511
628.148 84.8445 10.9717
396.467 64.1793 9.67078
677.132 71.6364 10.1626
540.78 42.932 5.85055
326.299 32.2621 4.44173
319.504 32.6078 4.94009
290.22 38.5418 4.63223
589.27 60.2752 9.65441
345.116 45.6829 7.09591
569.769 70.5839 10.7203
373.925 36.9746 5.10332
349.63 44.2287 6.03562
358.838 32.532 4.8779
370.424 48.1028 8.02481
284.579 30.1423 5.08216
232.753 30.37 6.06675
484.535 79.4299 12.5484
188.013 35.1999 6.11796
488.785 82.1968 13.9911
656.561 79.243 12.86
419.259 64.5186 11.3496
207.891 35.6435 6.00151
253.13 49.6627 9.89915
375.159 73.6805 12.0369
244.904 48.0395 8.96939
279.967 45.3924 7.26659
261.515 25.673 4.91568
272.497 40.4773 6.92042
441.298 64.7719 12.7805
113.758 20.1662 4.30604
327.092 48.4214 8.40181
85.8997 17.1717 2.51382
370.521 81.2111 15.4109
153.21 29.3076 5.51657
238.182 40.8594 8.00122
223.645 26.1553 5.35355
110.271 14.7544 3.2629
138.747 24.5035 5.25997
446.619 76.9081 16.2208
248.953 45.0796 10.4635
304.305 46.4852 9.35658
240.069 46.5823 8.58934
128.869 26.4836 5.23829
213.752 43.0935 10.9816
217.202 45.1478 9.96879
409.252 82.3077 17.306
494.887 94.7632 19.9338
297.106 39.4577 8.60999
253.002 61.4593 13.8468
445.634 86.4706 21.1703
342.099 67.5621 16.2713
155.014 34.3675 8.73055
135.913 24.4849 5.16337
233.119 56.1002 11.8054
129.297 27.6403 5.49334
137.15 38.1728 8.87872
123.011 18.9602 4.57263
274.364 58.8614 16.4846
354.592 86.8505 19.4957
220.191 38.0743 8.76401
268.43 54.1501 13.9166
157.429 34.1466 7.4848
232.479 63.2684 15.7552
252.525 68.0088 15.3635
134.556 19.895 4.58994
174.093 52.8102 14.7706
262.829 50.5819 12.2023
154.526 39.5826 10.3533
214.889 30.7902 7.78214
150.945 31.1321 9.25016
333.95 77.4842 22.1702
180.585 58.6465 13.9273
106.335 27.3222 8.70244
199.953 34.9934 9.49561
115.599 26.3426 6.15024
128.696 39.4123 11.0902
102.071 31.4479 10.021
231.402 67.4309 18.3215
104.083 17.2828 4.88566
184.192 54.7754 16.967
231.584 54.7809 17.0507
173.288 48.3897 14.052
235.661 45.3837 13.1233
235.744 45.8571 12.3252
210.675 54.1289 15.5589
151.462 35.7263 12.5716
155.512 44.1054 12.37
143.743 43.741 15.0409
137.252 50.5106 15.1328
153.954 37.5187 13.2731
148.54 32.7455 10.7652
215.2 63.6775 18.917
94.6601 30.7164 12.1872
138.36 39.4348 11.0476
137.027 24.4714 7.61237
91.8134 39.5341 13.5971
206.374 43.3998 15.078
168.091 54.7768 15.5165
98.7299 42.7871 15.4602
261.916 72.6432 21.7501
84.7397 24.9482 8.25795
123.163 23.506 7.79598
96.2202 34.0544 14.0945
182.569 45.6069 14.201
84.1959 23.217 7.5529
116.698 31.2947 11.7128
246.661 56.0888 18.5976
121.359 42.0961 13.587
134.716 33.4144 11.5207
61.6391 21.3063 10.58
158.3 62.6699 21.0784
163.24 61.2974 25.9984
129.945 42.9954 14.8415
197.683 48.1515 14.1324
143.645 46.312 15.916
104.663 31.2728 12.722
111.986 25.3704 11.3308
194.781 59.8919 20.4351
130.084 39.3043 14.9565
223.906 67.0011 25.2363
77.7011 23.6031 8.89918
181.232 56.7923 23.34
112.555 44.8274 17.8699
107.631 40.5257 14.9381
119.438 56.9552 23.5855
146.887 36.3835 12.4085
133.208 51.7032 20.2911
70.9804 14.8226 6.44931
84.0403 27.2003 11.5713
66.8991 21.8834 8.48989
116.725 25.95 10.0122
57.4618 19.9523 8.00184
179.82 55.0703 23.4557
77.6773 31.3186 12.668
115.667 41.9887 19.6255
85.2701 28.1689 9.9977
87.7138 36.8111 18.3706
148.977 41.0668 17.1303
163.864 64.2364 27.6428
135.025 44.9886 17.2859
72.7091 30.45 15.6018
99.0181 29.6411 16.0073
151.007 58.9863 22.6994
79.0099 34.2178 16.5076
57.2709 33.4325 17.1556
137.718 41.4524 16.6633
31.3786 23.4815 10.8346
94.3789 41.1183 19.1971
172.037 59.3008 26.7056
103.95 41.4415 18.9436
84.7284 31.7797 16.405
121.347 28.7555 12.8872
138.463 55.3731 24.9787
160.038 73.6252 29.7861
97.3168 46.5557 24.0174
133.374 64.8778 33.9056
109.921 28.7819 11.4816
134.708 47.1683 22.8297
60.0578 19.8244 10.9508
67.5415 31.1381 15.5614
193.804 84.4225 42.2335
117.956 49.405 27.0245
86.5721 40.4734 23.2807
101.48 56.8699 24.7915
61.6949 38.8397 25.0709
203.269 59.3656 27.6731
206.316 80.017 39.78
118.797 49.4601 24.2783
91.6908 46.7561 27.2304
120.781 41.5927 19.1103
124.473 57.3647 29.8614
65.974 26.5008 20.1887
101.715 53.5978 25.0373
54.7431 38.7273 22.5689
133.287 46.6459 24.5581
85.6248 46.245 26.6187
73.3961 32.0771 17.7819
90.8423 42.1778 22.2464
135.38 56.2033 27.5786
72.4451 38.9016 19.8383
137.202 87.1883 50.1796
80.269 23.9772 17.7262
69.842 29.317 17.3827
83.3144 49.218 21.9452
106.95 49.1898 26.5796
124.424 65.4763 33.9574
111.408 55.2074 35.4023
96.1843 57.9295 30.8053
65.7722 42.1891 24.5546
52.5015 21.4434 17.0127
86.4106 46.2425 25.2407
97.8262 50.7694 29.7338
38.0699 27.322 17.9119
82.4875 39.6207 20.1903
58.958 44.9663 26.2968
78.9485 35.558 23.3464
73.3654 43.1579 26.4858
48.6737 40.837 28.6629
131.235 52.627 27.4486
166.073 90.6385 50.2989
96.501 52.2543 32.2806
89.3935 38.0392 23.5963
44.3451 37.7495 27.8652
72.337 28.1115 17.4872
35.6207 25.2124 18.4706
68.6162 36.0455 19.7494
30.6332 13.8999 8.06631
24.3264 21.2365 18.9826
59.5026 20.286 13.4944
96.0203 59.0383 32.4575
141.068 86.8968 57.6648
59.8562 34.0044 17.8911
55.3881 41.5691 32.4827
73.7566 62.1003 42.1077
92.2458 55.6464 37.6207
109.104 64.8849 46.8922
86.6233 51.8209 37.4914
50.6503 15.9959 9.38334
107.042 54.2021 35.5304
105.935 50.743 30.1763
15.9249 10.365 7.09414
98.8977 52.1758 36.6727
59.2845 25.5935 16.3559
95.1257 69.3377 45.493
84.3903 36.8615 22.732
72.1296 43.9714 26.3267
87.5415 54.6967 42.6187
50.8454 37.9929 28.8204
99.601 67.3998 40.3365
39.8164 15.1106 9.63291
45.3632 35.7199 28.9613
46.5139 35.7571 25.3473
34.6478 27.5445 23.433
49.3682 18.1234 16.044
123.289 71.3006 40.3579
44.2731 33.3752 25.8324
96.7206 60.5252 38.6947
54.5364 33.2729 31.5486
27.8671 27.0518 23.4017
97.6493 43.4666 27.8427
55.1405 44.109 33.4258
32.5465 36.6522 35.6562
47.3369 38.6548 33.7296
98.0141 52.5184 35.1562
43.062 37.2062 30.8645
72.235 28.7786 18.9694
50.4475 40.2164 30.5068
55.1658 21.5646 12.3682
42.503 23.6074 19.4735
65.8838 38.4096 32.9601
38.3618 25.5526 20.6607
62.3292 64.5527 67.0995
95.842 41.2006 15.4282
43.8588 43.5396 34.3386
82.0956 50.3123 36.6553
31.0939 22.3511 23.9688
44.8039 25.5419 18.5543
51.6451 22.7109 16.7863
48.7335 48.2044 36.9759
67.9778 45.0432 36.3061
67.2778 43.9428 33.6596
46.5618 40.1377 36.0111
39.301 25.197 13.8504
34.4244 31.0289 28.4662
32.881 41.4457 49.9558
93.6603 42.6751 26.4194
52.3137 40.1147 30.0104
26.6753 24.4425 23.8405
53.1765 30.3085 27.8609
54.4182 29.7542 24.2678
30.8839 15.3867 10.0106
47.8159 40.4724 33.5436
76.1814 45.2961 32.9701
70.0483 60.2927 60.1139
44.5025 22.5993 17.4282
40.5579 32.0219 34.1795
36.922 19.0558 15.3356
26.6506 22.435 26.816
45.2305 30.3195 16.6204
48.0376 33.6948 30.8128
56.2694 52.0313 47.4146
45.4932 38.1501 34.3732
87.1831 86.1026 80.4071
52.6617 28.681 25.8376
71.001 52.5462 37.397
28.8578 22.0155 23.967
41.384 16.3244 13.5197
75.8394 66.4635 63.9049
51.6062 27.5003 24.5027
24.4334 15.932 11.892
26.451 23.8868 27.0857
51.992 63.2381 60.0401
42.7218 42.226 49.7671
58.952 32.674 19.965
35.0614 20.0776 18.3608
33.7229 34.2405 26.3073
29.4667 29.1084 35.1554
70.6497 58.1531 57.6402
49.9493 24.5207 23.794
51.5028 32.1704 31.2503
80.7855 48.9382 31.4006
38.2247 51.0901 53.862
48.3283 28.8033 27.5332
25.4027 29.1903 23.3293
34.01 45.0034 59.2382
91.2038 43.9834 29.7821
9.23898 17.2171 27.7315
49.4677 33.6015 31.5863
57.4736 44.7084 33.9515
48.2478 39.2853 30.3785
46.3599 40.3082 38.0458
31.2581 32.6486 37.9571
30.7562 31.8234 39.1609
57.2865 42.5782 46.523
29.6765 29.4501 28.4499
44.7132 42.0891 46.9977
36.769 14.1088 10.1344
76.7953 66.2406 61.1989
26.0233 19.3941 27.4683
17.6867 18.3949 22.7971
40.2242 52.2989 50.3073
24.6714 15.0017 17.3494
16.6972 17.5994 27.0616
73.0929 67.9063 64.2735
63.0472 47.2047 42.2474
36.3299 35.9963 47.9644
24.2708 11.2087 9.47923
38.7712 49.2248 64.9906
49.3448 32.354 28.8013
31.9795 31.5959 26.1221
32.5438 56.5756 70.7256
41.9988 45.0428 50.114
39.2486 28.8201 25.6277
36.1024 35.5342 45.0602
29.6038 19.1844 14.1057
41.8385 37.8719 37.8288
52.0395 33.5423 40.9222
23.6044 27.8288 29.9323
42.1399 24.1607 26.1844
53.304 44.5757 45.4007
41.9971 32.4953 36.6979
46.8776 44.9627 43.2798
45.3113 38.7997 42.756
33.9011 28.8093 32.666
20.4342 22.1347 35.6585
32.6463 28.527 42.6771
43.5629 33.4356 36.2219
47.2272 53.6281 60.2565
50.1917 34.0003 40.7518
47.0226 50.3077 63.9608
22.9531 23.1566 30.7189
40.0087 42.1699 42.4258
31.3515 29.8903 38.546
28.5874 23.7715 23.6153
33.3044 36.4363 44.1225
24.3367 33.8633 28.5418
21.649 30.6433 47.6293
36.9147 30.897 33.2437
51.7589 57.0453 62.9595
28.1986 29.5265 34.0081
12.1423 13.5043 16.6029
12.0221 11.1964 24.023
50.616 33.8993 29.2273
14.245 12.9074 21.4317
40.9765 38.8402 40.4993
28.0998 34.8648 39.0797
24.0567 38.2135 51.074
32.0447 32.5971 40.327
28.8495 36.3275 44.0403
48.2481 65.9365 84.0918
18.5132 20.1622 36.5307
45.2063 41.541 49.4639
45.8034 47.9894 62.1187
31.3261 40.0509 56.1772
69.3767 46.7702 43.8618
32.8512 31.6379 35.7561
29.8749 14.5083 19.5292
21.341 22.2774 29.7023
34.7886 39.7858 57.9588
34.8465 48.2296 52.3798
52.5973 37.1131 37.3256
19.1669 22.8816 40.7679
28.9115 22.0221 24.9461
25.5804 25.8326 33.1332
12.2784 26.0753 37.4497
12.5098 20.5544 40.5028
38.1377 43.2436 52.1053
34.3995 20.8347 29.8293
35.1314 30.2607 41.0252
37.58 35.5009 45.2867
28.534 23.2023 27.7956
21.3647 27.31 33.2197
24.637 17.6678 24.7784
32.2349 40.3279 56.2336
40.8206 28.2913 25.851
10.8052 14.1067 18.2646
14.3087 14.729 27.1699
23.4135 25.4188 34.1904
31.6347 54.8299 73.8695
45.7106 27.1099 37.5615
29.5964 33.4005 39.9497
15.3322 15.7919 32.5771
18.5735 13.4345 21.5081
42.5333 63.5168 82.4559
48.6084 33.6602 46.8055
57.4164 56.3826 66.9368
23.9685 25.8582 50.5711
26.6486 27.1411 40.1411
35.378 38.1758 45.9876
21.5949 30.7269 53.5563
37.3636 39.9671 54.3304
31.9288 33.9012 36.9584
16.2627 30.4599 58.1308
44.6168 32.4483 43.4521
34.7499 39.7101 55.0717
37.9236 42.732 59.6276
39.9369 35.5776 53.0188
45.938 42.5893 48.0463
17.8355 27.7203 48.4842
41.4185 37.3321 52.3507
19.6283 35.9088 40.7919
16.1097 24.5662 45.8446
64.4777 73.3748 86.6585
23.4184 24.7241 40.9883
25.5922 39.5682 63.0675
23.5349 28.6121 39.3067
44.4502 66.5569 91.3904
41.5385 51.1558 83.275
27.9227 21.1217 32.0851
18.862 25.2546 48.1502
17.4848 18.9869 31.0211
28.0919 32.5796 48.9355
16.7483 25.6573 23.8566
12.4171 14.4625 17.6171
22.4992 51.2835 73.0915
28.5777 17.3446 22.9298
11.5314 12.917 19.1613
27.7007 26.0048 35.9863
17.3794 27.6539 53.7955
46.7796 45.0986 70.7798
17.4587 14.331 21.7577
32.7158 24.0809 31.7354
25.9009 32.0452 43.543
38.8162 32.3857 41.9797
29.0688 31.5394 49.6124
21.4333 33.1647 61.1115
23.4135 21.2416 34.5545
27.2367 28.0748 43.9974
17.0043 14.0931 23.7453
22.5273 36.7586 48.7293
53.1382 100.371 161.226
39.0669 31.8915 54.6365
25.2124 34.4803 59.2888
47.3065 56.1995 70.6819
30.3386 39.277 57.1116
18.6549 15.1907 43.5104
20.3391 25.0876 34.2827
8.74932 5.47703 18.916
27.1198 44.3403 53.0321
15.2507 26.975 47.8162
22.3759 33.5956 45.5899
15.3659 38.5502 59.5927
24.0835 21.8932 37.8171
18.3584 18.9835 55.9206
22.4031 24.9257 34.2245
34.8472 47.5741 85.6671
29.7563 38.2713 46.9813
25.3127 31.933 64.264
38.7673 36.7763 50.2465
19.5059 27.0801 41.3781
14.84 27.1753 69.2224
25.3678 34.5056 44.6285
23.7274 9.44467 17.3704
26.6263 39.4764 54.1671
22.3098 23.1577 47.3575
28.9494 27.6914 38.9459
37.0072 45.5046 64.2925
14.869 20.7619 41.304
17.7709 30.2661 64.285
39.8085 46.8239 66.7387
20.6204 15.0778 24.3755
20.1464 20.6638 37.972
27.2401 29.4558 37.8493
9.74417 21.8885 47.7112
19.077 13.4863 30.5485
18.6037 29.5632 47.1185
20.2204 33.4853 69.5831
28.4845 26.885 29.0063
19.4813 34.2689 58.4836
20.1896 19.8648 37.6718
22.3494 39.4592 55.1332
15.1599 25.5462 45.3299
13.8898 13.0454 21.2844
22.985 33.8975 64.093
30.7761 54.9458 82.9481
20.2407 31.6193 69.4185
32.5675 39.5286 74.4884
30.2696 51.5971 68.637
23.3533 19.1706 43.7292
18.4177 36.2199 50.324
14.7798 16.6162 32.4514
25.2996 44.3921 90.8847
26.8597 47.5206 105.488
17.2223 29.1857 34.7018
17.9785 29.7546 64.9853
32.1942 30.3254 47.9553
18.05 41.0523 89.8826
15.14 18.834 26.8202
8.46362 15.9709 33.1308
16.9291 18.9368 26.2561
21.5875 32.831 54.9267
7.80513 13.8996 33.145
14.0033 17.316 38.5957
17.9606 29.885 51.0631
10.1158 18.0315 30.7291
16.7809 21.5432 44.199
8.2267 18.5852 42.7073
17.5768 20.8553 37.1867
17.5423 24.6122 52.483
27.1533 26.6764 44.568
14.5421 33.2969 55.4473
22.2668 24.9497 36.4683
5.01392 32.7547 68.577
23.1768 23.0137 58.3445
20.4131 15.7838 33.3282
16.9299 27.7913 68.3003
37.2265 34.5962 41.4619
13.9416 27.2569 70.5662
19.9866 27.573 43.8285
16.3229 20.6574 20.4988
20.4984 44.1353 86.1592
25.3937 19.6038 48.6154
12.9253 28.1129 76.6809
29.6382 37.6098 34.9874
11.1083 24.8931 47.4395
6.61795 26.032 58.7276
13.6087 13.2714 41.6984
17.1331 13.9617 25.8903
24.5274 36.4677 63.0949
7.72639 19.9025 43.188
18.981 24.4836 72.007
31.8923 40.7653 88.9753
19.7491 33.7514 34.5431
19.6119 33.9936 51.8384
12.0214 13.021 28.0926
12.7742 17.8283 36.1616
9.68819 14.8124 32.5363
17.9239 14.0652 22.6626
5.37771 14.9466 47.5256
23.6856 31.1979 44.4701
12.6731 34.2202 68.4784
12.2342 33.6757 84.3091
24.1164 12.3942 27.5063
31.8641 43.3364 50.5033
8.80901 15.7062 33.8612
16.2256 31.2459 69.4448
21.573 29.4308 59.1301
16.7467 43.4241 113.319
16.7314 19.156 41.9239
21.9201 22.2944 32.4201
12.0535 23.5595 49.7792
18.9615 38.7198 74.7976
14.0376 26.3137 52.2267
12.8633 18.4372 36.0688
19.1196 27.3144 50.2158
12.4911 15.6275 30.9311
12.4025 21.5264 41.6438
6.95124 12.1518 28.2372
15.9275 25.4306 59.5123
13.4649 21.8775 49.2492
18.5015 38.3717 56.908
5.32409 6.13016 20.5105
16.7581 35.638 79.3946
12.0847 16.0458 44.8509
22.5559 36.1994 86.5282
8.22928 15.6734 45.223
20.4168 38.0373 68.6301
19.0711 26.0341 57.6691
13.3769 31.1641 64.7486
11.0827 24.2684 61.3564
15.1024 27.0902 68.1903
21.8554 45.6219 64.4763
13.264 13.2229 33.9773
18.8918 34.3553 77.7053
24.2585 44.746 93.565
16.6427 26.3537 43.6399
4.26534 10.5013 36.1712
12.0467 17.5531 20.4602
9.62127 23.6524 66.0188
11.4597 18.4885 56.531
32.5397 42.5435 87.9058
16.5517 29.6695 74.9186
10.8814 16.4339 43.8036
16.2851 22.3828 45.7062
10.7101 21.9922 46.6445
10.5712 25.9895 54.2468
10.2536 16.3124 37.758
14.4523 43.8228 94.5922
10.623 17.3607 42.1746
17.1849 31.8321 77.3024
24.4345 38.5958 60.4561
10.9837 27.3874 69.5145
17.9052 33.6032 78.7768
7.98631 16.4415 70.4184
25.6637 41.2778 72.481
19.4088 33.4815 56.4222
8.12532 17.3223 46.1804
7.98605 17.2238 47.1715
17.5677 28.0366 64.6475
13.795 24.9275 42.3224
13.8412 21.8202 61.7348
25.4279 42.7184 82.4682
16.6712 11.9011 21.2144
13.4616 15.3383 39.1845
13.3467 25.5042 46.1924
5.68172 9.40729 22.5287
13.4253 21.1824 63.3229
12.2419 16.2484 36.0675
16.1396 40.1504 77.5883
8.804 23.2084 80.0371
16.9694 29.5904 61.9605
19.0498 53.9021 79.555
7.94113 22.5188 78.6854
14.2043 16.3882 35.0694
14.3534 26.1038 55.1133
6.30869 22.7672 55.3653
17.0158 27.4391 69.8234
11.815 23.127 48.2072
17.34 20.284 48.2989
11.6805 10.358 21.0895
14.8131 18.6561 55.5636
10.5899 16.9002 47.3168
12.2771 21.5215 38.9463
15.2232 28.3005 46.8563
9.89737 28.0771 73.0027
16.9927 23.5689 66.4455
16.4606 17.8016 46.4659
11.3689 19.0134 56.9379
11.2091 8.26395 16.3879
23.073 37.0603 78.2134
13.0569 28.3781 49.3271
8.56754 19.5854 42.9311
11.2857 19.1724 86.7951
17.0924 39.4483 56.2707
8.51792 23.9692 66.0749
10.9229 16.7452 53.4496
16.623 28.3012 57.8021
20.3391 29.3539 63.8577
14.6229 21.1876 57.0585
11.9543 17.0613 42.3254
13.0007 23.0412 48.658
10.3606 34.9539 92.8439
18.9273 30.3407 57.6325
6.28893 12.7984 43.7171
18.169 37.5352 100.584
15.9708 13.6435 35.9268
16.5659 21.5146 46.8088
13.802 31.777 64.2538
4.99076 14.1732 36.2027
16.0533 26.4702 43.6563
10.2076 22.6003 83.6078
9.54397 16.9598 55.8216
23.8369 44.7975 67.7414
3.33212 9.27971 31.6674
4.5323 14.7584 39.0774
8.46095 31.5911 138.557
29.0178 34.6597 47.5204
16.4338 37.9881 87.2504
11.575 14.4394 42.4147
11.2106 33.8409 78.9519
8.19636 20.7496 38.5503
8.90516 24.7118 82.2692
20.6513 40.799 93.0667
18.1894 30.3702 75.3085
11.851 26.5251 93.3133
14.3642 20.3687 50.4934
9.86236 11.4976 29.9532
12.8281 25.1606 66.5901
8.90429 9.19658 35.7618
11.3302 21.4329 63.5017
10.8361 15.2552 38.4245
18.0781 41.4249 71.9893
6.46224 11.8368 34.7879
8.36842 26.8882 61.2488
8.68077 20.5962 54.3152
11.7862 11.7958 53.1006
8.1246 10.6268 42.2507
15.8475 38.8651 73.7652
11.5198 27.5918 80.5956
17.0668 43.9226 101.292
17.6085 15.2228 37.1717
18.9163 49.9374 93.4552
10.6744 21.1661 59.301
8.96338 29.5154 60.0747
6.23703 22.5214 91.458
12.7994 15.5907 48.2785
6.34477 16.8983 88.0716
23.6852 42.7176 81.9234
15.3054 24.2892 54.9721
12.949 28.1786 90.3028
15.8086 24.72 56.7801
8.03289 19.0197 36.8321
9.74431 20.4002 57.9273
8.19653 22.1862 71.0625
19.4553 24.1043 58.9718
15.2361 25.604 55.5419
7.6749 20.067 62.6351
13.6214 24.1791 48.5085
5.72217 19.5255 53.8324
11.3556 18.2083 36.8339
8.32314 11.9145 28.3504
5.9368 21.3649 52.4349
7.2273 17.5011 41.7567
7.57632 6.19787 21.89
8.04636 14.0537 52.1199
10.1747 14.7203 34.5642
7.36962 13.1516 101.551
18.7802 41.7243 69.0803
11.8 18.7184 24.5128
7.02992 24.6564 96.2619
8.36156 22.8787 49.0075
9.00449 10.813 34.0508
10.8446 12.3655 62.552
13.0808 34.3635 70.8527
7.61153 15.0499 35.6325
6.0916 20.177 58.2154
11.8861 24.9899 58.8007
5.69697 14.2808 54.0155
16.6397 40.519 84.2613
5.68657 13.6454 63.083
9.33755 29.0768 71.7192
11.0831 18.9574 54.5077
7.97967 24.8278 58.7683
6.06089 13.3004 41.707
7.19334 10.5232 40.1213
9.83098 10.3547 25.1721
7.90064 37.0277 117.935
12.8944 23.1108 69.1889
12.3128 24.5191 32.2565
4.91781 13.5709 53.6407
10.4037 16.6318 48.6163
13.3747 11.354 38.3713
6.58688 12.874 29.3458
4.99141 18.9992 88.9112
13.4533 20.7181 54.1201
10.2165 26.0238 67.9541
7.00191 20.428 49.0391
9.52673 15.3824 47.9461
12.4823 16.5266 51.5153
8.86699 15.6737 58.5856
14.8864 32.0245 66.0568
12.6052 26.3481 72.6554
11.5514 24.729 84.0373
6.31618 10.4556 49.5419
10.881 18.4361 83.3833
19.0987 29.5275 35.4316
6.14274 24.5811 69.7017
9.12856 20.9587 47.08
8.15691 19.9136 35.473
5.48721 13.7128 63.3181
12.9531 27.4339 70.3667
10.4632 9.18901 48.1567
10.8242 32.8879 68.8948
4.88586 12.4101 66.0825
10.977 24.2441 47.2277
4.88211 7.68004 30.8898
10.5545 17.5158 67.5039
14.6719 50.2351 132.559
10.2134 13.5223 24.1393
2.5732 17.5384 81.1357
12.0054 11.6512 40.5477
9.32256 13.1409 33.0303
8.05413 9.57941 50.7228
13.3763 29.5873 79.1882
8.43027 15.9116 48.4616
11.3814 14.3949 31.8505
7.8549 20.3448 65.2982
12.9263 24.46 55.4153
5.61071 24.3343 72.8626
19.9783 48.3169 88.0368
7.24778 16.1555 59.313
6.7494 12.8775 55.9476
8.00432 12.7144 43.486
9.64609 30.3966 91.7746
14.695 9.63792 32.6287
11.5829 26.4118 49.7918
13.5965 39.1018 118.572
10.8785 27.735 98.2066
11.0874 12.5932 84.5014
13.5104 34.0382 115.055
25.6819 40.8068 85.6774
8.75685 12.1585 19.6294
4.25565 12.1662 36.6991
6.613 16.3405 82.0133
14.4351 34.269 84.457
10.0071 23.1586 64.4291
14.0794 17.6114 56.5755
11.7995 19.5941 53.4127
7.12587 28.8295 77.9248
9.56565 20.3884 59.5199
12.6892 22.6722 71.3842
12.9763 27.1138 58.9851
2.53983 13.4729 70.8673
10.0066 18.7383 82.1391
11.2538 30.3821 65.3058
8.94687 21.6621 64.6769
7.90788 24.8016 77.543
15.0181 25.8064 48.7472
6.29057 21.8554 47.0613
7.21257 32.0814 82.4104
8.54769 20.8476 111.069
10.5807 31.0159 65.055
9.88966 24.7481 96.3246
9.70011 18.0461 48.6441
10.3409 10.5611 40.6955
5.54019 14.5489 67.8994
11.6523 20.946 34.4095
4.93687 11.8947 50.0219
7.59815 16.8917 37.3667
8.34334 13.3328 44.1341
3.98599 10.219 48.4572
6.28903 12.4601 56.5813
10.5412 34.8911 82.2309
8.30718 15.299 51.7642
13.3977 16.915 63.5692
9.88781 20.2485 51.8759
7.92359 15.8273 50.0099
6.37809 19.5781 67.3743
13.8368 14.1933 46.212
13.9577 31.5109 50.8621
3.59026 11.9411 39.6078
9.03185 10.6794 37.7646
6.49879 22.8329 105.08
13.6225 34.6721 81.7449
6.7526 17.2292 59.6013
7.93351 20.2203 76.456
8.4873 6.79024 33.4129
7.09353 27.3489 105.213
6.54656 25.7531 98.9886
12.9843 17.7217 43.7903
13.4788 13.1474 30.1374
5.60707 19.9769 41.8362
7.26412 17.2144 55.2226
8.96853 13.5797 62.2377
9.92159 25.6156 81.1009
9.47706 28.9362 85.5841
12.9452 20.3598 65.3857
12.1126 22.9233 78.0964
7.40366 21.5609 78.2845
10.4795 24.2168 48.1951
3.91131 21.4466 78.2387
5.33631 10.8319 87.8996
19.623 18.5253 23.6896
8.07365 19.7335 107.371
10.937 32.9736 65.8906
12.2258 28.7643 67.2992
3.82943 16.5813 56.7163
8.76741 13.6972 42.9037
5.9002 7.22046 36.1615
8.16518 11.0571 42.0936
10.1854 17.5738 44.6596
7.25633 9.40417 33.8646
6.99081 12.2766 17.1135
4.00603 14.4346 30.139
4.22292 13.6954 51.181
9.44177 19.8815 73.1293
10.107 16.4661 67.7563
7.97165 23.1416 96.6851
9.33667 20.7838 77.8554
9.03741 19.9889 41.6213
6.1602 22.0985 73.95
9.94688 27.6942 57.6745
4.34445 11.7717 36.6648
4.62545 32.759 175.287
16.3543 25.1017 88.5486
10.3791 26.6629 52.6363
11.3334 9.92858 39.8042
6.57097 18.6693 53.5491
2.80176 11.7354 59.4168
6.64631 12.6051 30.5909
1.08044 11.6891 62.666
9.3384 23.1541 60.2437
7.61289 27.3548 109.195
11.3214 19.5522 45.2689
7.18572 15.4636 53.4297
8.72749 13.9305 62.1095
8.50909 23.3419 45.2139
5.57286 16.5128 38.7484
6.03816 22.3278 64.6357
8.12397 13.5502 56.29
7.91185 13.7624 78.0549
10.6417 14.4182 56.2816
10.0202 23.778 59.2189
6.7044 13.5973 44.624
7.33516 7.32557 24.5716
7.74727 19.9075 60.139
3.45438 20.1388 84.9083
8.22973 5.6929 45.6052
6.13098 23.7072 53.9625
8.21539 12.2115 34.5848
4.20009 18.2234 77.202
14.6423 24.6331 60.994
6.86038 11.4434 44.3177
7.08706 17.1528 55.7319
4.40067 7.03081 28.3938
5.0561 21.0039 54.7333
4.89899 16.6694 101.673
14.0496 12.5985 33.4808
7.31201 20.4938 43.3208
8.24043 14.8209 35.0711
3.41122 12.8896 72.7635
8.66276 22.4116 54.8652
5.39009 20.6866 57.0496
5.52078 14.9876 94.7308
11.4113 22.2331 47.7955
5.47461 31.4365 87.9393
9.55869 15.6769 81.4874
9.04864 25.3784 71.8135
9.69039 14.9574 81.943
7.40817 31.4901 121.894
13.3203 19.9727 33.131
2.93017 8.02542 44.7964
8.67822 20.1029 77.4228
9.05235 22.9214 56.7446
5.42907 20.2461 49.9763
7.76223 9.19973 60.8577
5.45084 18.0796 55.2261
7.20027 14.9501 46.2531
6.60094 11.3489 60.4287
8.99014 12.1199 60.3226
7.44551 18.2793 21.8482
3.39652 8.75124 66.5025
8.28227 26.5504 70.1156
4.08678 13.08 32.6861
2.98316 9.0642 44.5764
7.64062 15.0672 65.6628
7.0146 11.7364 37.2552
8.52164 13.8691 40.9586
4.61838 11.4181 36.955
5.20931 9.84665 57.9943
5.94278 21.229 89.6198
10.3144 14.1421 39.759
7.31178 15.0947 76.8114
10.7174 25.7179 33.525
7.16212 23.7453 52.2902
5.32227 17.0022 61.9567
6.72438 9.5031 45.8777
4.27442 17.1685 68.9878
7.76532 15.4937 57.9177
5.27887 15.2259 58.9616
5.59052 15.1824 32.5455
5.90715 11.3824 49.6028
3.36492 13.484 54.2141
6.8296 13.4709 31.5735
4.46792 12.7546 62.7645
7.62584 18.7361 47.2207
2.56665 15.6801 108.127
9.03481 34.8912 77.1262
9.64792 9.62942 33.064
4.54813 13.3654 50.2823
7.29874 16.0567 53.9643
7.87942 18.1125 86.7187
9.69194 14.2331 40.5993
5.18422 18.3407 85.6983
8.92493 26.1565 77.2774
8.87887 16.3487 57.0323
5.48737 18.0646 89.1723
9.16149 27.6784 102.69
11.3451 11.6408 35.6637
7.63679 14.8961 38.9807
7.24609 12.4351 42.2691
5.04665 9.52104 33.8206
6.25109 10.4966 53.0133
5.80688 13.0811 48.6734
8.45427 15.1719 66.1204
9.86586 11.001 26.3086
6.16513 22.789 74.5995
7.12231 12.7627 70.1657
7.09643 21.0923 56.2795
2.99191 15.9034 73.5011
7.09541 11.581 42.5572
7.42374 17.4044 36.4445
4.24245 24.9195 92.3722
5.67132 10.4961 62.6738
6.82723 20.5032 49.8677
5.67459 12.2772 87.4939
7.40426 14.9835 38.2363
4.60553 21.559 56.9541
5.12654 12.0955 36.6916
6.18095 11.568 52.8362
3.07403 15.3043 62.2376
7.14534 15.2301 39.0488
4.72655 8.97748 35.0215
5.08559 17.9613 66.5219
6.03894 11.9491 31.004
5.91894 16.1669 79.3127
8.56747 10.3524 33.0425
3.17206 10.7283 35.3811
4.91775 11.4969 65.8834
9.85899 16.5966 25.5467
4.3924 15.0909 57.5243
6.2084 29.9064 110.672
6.88811 19.4839 62.8817
6.57107 16.8131 71.6183
6.15139 24.2657 100.761
5.99487 12.9803 58.0621
5.75145 13.5338 119.611
10.4052 33.3716 74.3306
7.60943 33.0754 115.021
11.9423 11.5093 47.0117
7.55903 32.9454 68.0519
3.12048 12.9793 67.727
6.73074 20.7173 76.8304
9.01137 12.4078 85.3473
14.5321 24.9441 58.7579
5.90846 14.2854 43.3997
4.40208 19.6131 86.3718
8.8149 16.2965 85.786
9.94029 26.7818 55.0178
3.79629 11.5132 67.1626
7.98727 20.1292 43.7819
4.82216 13.1006 53.9335
6.44687 14.5238 82.1974
8.18629 26.986 86.1699
6.32838 13.0042 56.9862
5.00403 14.3625 55.2881
9.16907 39.4826 73.9958
5.19483 5.96351 49.093
2.17801 8.66142 34.9975
5.06373 18.858 62.6694
6.61772 21.4028 68.8453
7.74695 13.7018 48.2818
4.89306 7.70657 57.0052
5.3985 16.7575 53.5219
4.89257 15.8162 43.7841
2.8354 8.96175 38.9387
3.43024 14.0984 63.996
5.72673 16.1457 44.1474
5.58903 9.38566 32.9179
4.66009 10.8448 50.8389
2.72011 12.4636 76.0536
3.71895 14.49 94.3334
9.47387 23.0949 69.9279
8.29463 19.4562 50.7221
5.22204 20.3305 72.037
6.41949 12.5492 37.4352
4.46183 13.1331 31.9625
4.1497 9.53532 33.761
1.32828 9.65245 85.0914
6.2168 16.0411 46.8401
5.16698 14.0725 76.8018
10.9276 26.1097 94.8946
9.10262 31.0403 58.8967
4.76035 21.8628 99.5578
7.00497 12.4392 67.6796
6.36852 23.6853 73.1242
6.93443 7.89292 87.9393
6.35483 22.7782 76.1536
8.02163 36.31 81.818
6.93387 27.5376 92.2649
7.79964 27.1856 66.9943
1.96889 14.8567 110.326
7.39332 15.9503 37.6164
6.32042 8.65612 62.403
7.75069 20.95 23.9077
2.43745 6.09593 42.7451
4.23637 11.889 39.9304
3.38988 14.0562 96.2188
5.7678 30.1659 123.281
10.5056 45.5485 119.507
11.1256 7.3223 48.317
6.39707 15.0924 69.4789
7.81216 23.4417 118.479
10.7339 19.2354 90.1995
10.4729 13.8807 33.7603
6.8523 23.2386 75.5603
6.63531 9.81907 33.5388
5.77098 12.6183 52.2956
7.92669 15.3365 65.289
6.65815 14.2431 56.048
5.18535 13.3558 61.831
8.25351 11.2377 35.9508
7.17335 20.212 96.0944
5.60658 14.1219 70.0211
4.7466 22.8082 57.6579
4.27246 14.1902 45.5181
6.33413 11.8956 54.4666
3.4617 18.9626 86.0304
8.14638 14.82 55.5254
6.14745 24.2868 52.2893
4.02041 14.2153 52.3453
6.06597 12.0263 55.4943
3.96965 7.50132 68.18
6.47769 14.8933 47.1243
4.98552 11.1612 75.0291
9.22005 22.1553 35.676
3.21849 16.328 39.5606
2.69919 19.7707 92.5668
7.13234 13.069 30.4848
3.51745 15.0998 67.7088
5.95039 14.9979 55.0339
4.7137 16.1441 56.637
5.87341 13.5556 44.1708
6.63773 7.9573 14.0405
2.26559 11.3748 72.9898
7.34246 15.6791 29.2824
3.58699 12.6638 51.7889
5.74685 9.76666 84.0239
9.57106 20.1532 61.2806
8.32211 13.4733 67.1555
9.67245 15.6015 18.4683
2.42898 8.45948 42.3236
2.30697 11.7952 65.9125
8.22995 16.4054 35.7523
5.95304 11.4819 75.7354
8.15107 14.8088 63.761
8.71888 19.4071 76.9586
4.94434 8.51371 105.857
9.78168 43.3356 69.6803
6.69799 11.8191 46.2077
4.2614 9.40814 51.8407
5.12966 11.2327 55.9905
6.61891 11.6513 66.0621
6.5437 37.695 82.4761
4.15013 13.3402 109.864
6.21193 15.8363 37.8742
4.39338 22.8034 105.489
7.36037 18.5128 64.9711
5.61075 15.1604 51.4677
6.05723 11.6418 47.5873
5.70325 9.90401 74.8026
8.53384 25.0563 28.3116
3.19114 15.5274 51.716
5.89678 6.84321 73.6859
9.26122 20.5118 44.7262
2.55024 9.92502 64.6447
7.87745 30.2072 111.502
8.21983 13.3512 86.6094
9.20664 12.6102 37.8617
5.75912 16.3016 58.4139
4.36183 15.6899 80.7875
7.38885 18.3763 39.6408
5.58128 11.9143 67.4004
5.85112 20.7344 36.6655
4.44549 8.20053 44.4
6.14365 11.0185 62.6553
6.94571 12.411 44.8991
5.84421 15.3968 47.4213
4.3816 20.2481 79.2103
4.15545 14.4312 68.8562
8.3341 10.5157 68.9317
7.35841 19.7274 57.8114
4.44038 20.1479 42.5617
3.96693 10.0943 56.3307
2.85112 17.4162 109.402
7.68195 20.6698 83.5323
5.4658 22.3292 57.9145
5.63641 10.6381 48.4153
5.30945 13.1098 55.5463
4.65004 15.2757 37.0363
3.38307 16.6727 59.749
5.5351 18.4881 99.9095
11.618 20.2984 57.3802
4.52259 10.1223 34.9785
3.6404 8.11029 40.9384
4.66584 13.1988 61.7119
5.1975 15.2642 32.1977
2.11836 16.6174 94.3462
5.93519 28.306 87.9182
8.95529 12.2308 68.1714
6.75809 24.7123 84.9633
7.77813 9.43814 55.2765
4.49311 14.1406 50.4811
3.35696 9.87093 36.8778
5.00639 12.6531 68.063
7.29387 22.0274 46.8139
3.93204 7.48655 50.4533
2.76894 8.17362 30.766
5.08175 9.93251 46.1672
3.24834 18.3649 76.91
5.1569 16.2844 86.1309
7.89318 11.5006 34.7529
4.40558 7.14605 13.7749
2.59036 5.67769 28.3609
2.13997 9.427 25.1589
5.56281 11.9061 67.3847
5.61557 17.995 68.6816
5.16781 3.36003 25.2078
4.31028 5.36746 22.5048
3.54472 10.4916 38.1122
6.88446 8.37884 38.5298
2.93911 8.94205 33.5914
2.57328 12.71 42.5235
4.14391 6.51268 62.7694
5.4913 17.2048 41.8829
3.87894 5.49026 44.9476
4.94999 32.434 44.747
4.92406 18.9892 74.4038
6.92495 14.1715 59.9552
7.92683 11.7028 52.942
3.0399 10.2843 85.9084
8.14698 19.2353 99.1314
8.45973 21.6541 59.6389
4.03508 21.2506 60.7647
8.94308 9.84962 45.4152
4.40817 15.4697 45.181
7.22664 15.5776 57.0542
5.1434 7.28929 54.3408
6.36104 19.2063 48.2612
6.9061 5.76802 33.8915
3.02164 13.2186 38.0712
6.00135 21.0941 52.2393
3.53874 7.25045 59.4723
3.60038 9.21212 50.5291
6.69629 9.65771 28.203
2.1266 8.10727 65.9603
7.76788 16.2705 72.944
3.79002 16.0284 39.3803
4.46599 8.23893 31.3243
2.97264 32.6928 192.315
12.5212 19.3378 35.7203
6.10188 18.2784 76.6609
4.01193 6.66385 32.9789
4.294 21.2799 85.6367
7.09158 10.2843 41.3175
6.55438 15.1085 43.8189
4.72979 3.86963 57.0749
7.0128 27.9902 43.8467
3.01382 7.01471 40.2392
3.24813 12.7893 37.385
6.49937 7.75031 61.7169
4.92945 8.25875 59.5628
6.58802 12.3557 32.0231
1.9925 15.693 51.8418
4.57944 10.2445 61.4633
6.07581 12.7393 50.359
3.86995 27.3576 88.5533
8.39622 17.49 56.8223
5.03575 9.53458 70.9853
7.09882 18.2549 52.3276
4.45967 15.5403 44.2648
3.97936 7.96421 40.5261
6.00663 11.0806 23.4161
2.05804 15.9663 80.3797
11.9666 11.1506 34.6681
4.19024 13.8881 43.5075
3.21467 7.15436 51.0332
3.46264 12.7349 82.3094
6.22229 13.2754 37.1284
5.84622 17.5953 84.2223
7.59818 24.9118 64.6264
3.92012 10.1682 80.8418
7.87589 20.0776 49.9759
7.12099 12.6672 17.3789
2.63379 9.19614 69.5675
5.7853 23.1359 68.2504
4.32585 13.4532 45.4976
2.96025 20.7369 54.6481
6.01935 8.51395 84.9095
4.68112 10.7394 30.2512
4.28693 9.17581 62.5366
4.15697 19.1389 71.3324
6.67643 29.5456 97.9698
4.59414 25.8816 89.8011
7.06979 10.5789 43.9412
7.63225 23.7665 57.9982
6.20207 18.971 156.223
12.4394 26.4775 51.2385
3.18462 8.09427 48.2631
4.45249 10.1204 70.7506
6.20807 0 0