# pn-170911/CsIIA-32-CsII-1280-1959.psd
# Power spectrum* (dif=0,1,2) (really just |FT|^2)
# NOTE: only the first half! (symmetric)
# weeks: 1280-1959
# 568 clock-days, 191 excluded
# PSD: 1441
84755.8 2.32015 0.0469461
8.76293e+06 100.778 0.0593017
6.95082e+07 1512.27 0.0910527
5.50994e+06 202.135 0.0693356
1.60348e+07 1298.6 0.158492
2.08802e+06 196.968 0.0834452
1.4438e+06 196.15 0.0886124
1.04697e+06 191.525 0.102399
1.09032e+06 201.274 0.117193
637678 189.476 0.139731
647756 178.336 0.134345
451615 194.528 0.174771
497809 185.995 0.185319
296920 176.565 0.206181
427918 194.431 0.239351
259313 200.337 0.285882
332113 189.065 0.300189
184802 187.316 0.309131
264568 195.13 0.363203
146092 183.724 0.37688
222183 191.956 0.429408
117608 190.838 0.452229
180731 196.009 0.506589
107009 190.07 0.549499
155030 188.675 0.582742
88726.9 191.187 0.616557
132175 200.124 0.688477
77999 196.411 0.722113
99260.1 191.591 0.76576
69653.7 201.145 0.858248
80239.1 181.037 0.828011
59810.8 200.134 0.960209
68241.7 201.757 1.04141
48795.8 191.408 1.05354
55141.9 198.675 1.16987
48298.3 211.195 1.29618
45973.9 201.531 1.27254
41445.3 194.265 1.33432
41131.1 190.964 1.35167
34498.3 185.026 1.38651
34496.5 204.736 1.60087
31822.5 201.38 1.66069
29546.8 190.409 1.65725
29505.7 209.602 1.89921
27435 201.777 1.89609
26552.7 190.128 1.89816
29477.7 211.361 2.17253
24085.4 197.167 2.10941
28045.3 200.171 2.22349
22555.4 196.787 2.29031
26798.3 205.959 2.46436
23900.4 217.874 2.70072
27356.5 214.63 2.79105
19978.8 204.544 2.74108
26420.7 202.138 2.82036
19091.1 197.098 2.85899
24156.5 190.097 2.87041
17768.5 184.471 2.872
25252.9 197.61 3.19236
15671.1 181.896 3.04108
24559.5 208.612 3.62536
14204.4 176.319 3.1609
21803.4 191.583 3.55433
16053.8 210.859 3.96647
20776.9 190.228 3.73907
13842.3 189.349 3.83843
20317.5 198.417 4.14745
13166.8 190.913 4.06413
16998 180.825 4.0086
11962.4 184.78 4.2561
15268.8 186.729 4.34212
11539.8 183.237 4.4273
13843.4 194.683 4.79798
10990.1 197.362 4.96681
12359 186.018 4.86814
10053.8 181.656 4.91353
11179.3 189.974 5.25389
8971.23 178.933 5.10456
10165.7 193.817 5.59996
9154.16 184.379 5.50304
8275.04 173.458 5.26331
7368.76 170.888 5.34817
7462.39 170.493 5.44959
7265.28 168.263 5.50973
7646.02 182.997 6.093
6819.31 170.277 5.84086
6794.97 164.087 5.70106
6475.38 168.615 6.10085
7356.48 175.206 6.43413
6326.95 175.154 6.62751
6519.57 158.978 6.1514
6249.86 168.211 6.5675
7006.69 168.836 6.78238
6404.69 174.355 7.17002
7236.48 158.161 6.64538
6130.74 159.285 6.76431
7049.37 158.157 6.90548
5713.34 157.564 7.05118
7488.12 163.566 7.47838
5463.43 172.318 8.0037
7842.13 163.675 7.77436
5414.96 152.63 7.32237
7505.9 158.891 7.89387
5084.23 153.162 7.63863
7162.01 153.706 7.90008
5022.51 148.136 7.77806
6307.07 155.373 8.26313
5215.29 157.238 8.51566
6295.76 149.246 8.25003
4748.13 151.933 8.57494
6038.81 166.76 9.52911
4273.73 146.154 8.54557
5148.45 152.623 8.98901
4088.13 140.901 8.62546
5188.2 151.652 9.27524
3910.77 145.233 9.12293
4150.99 142.57 9.12467
3394.87 138.809 8.97001
3617.9 130.21 8.52708
3264.37 138.462 9.19872
3149.66 137.621 9.33717
3087.48 131.731 9.22318
3046.29 137.711 9.58539
2957.57 138.041 9.9367
2738.51 135.407 9.82569
3065.74 141.803 10.4269
2605.16 121.275 9.00699
2842.68 144.955 11.1372
2630.82 125.686 9.70917
2457.64 125.767 9.86787
2519.82 127.517 10.1192
2603.5 132.881 10.8871
2776.67 123.471 10.2639
2354.03 129.118 10.8052
2931.29 124.581 10.4626
2517.91 126.695 10.971
3166 129.915 11.2904
2494.22 123.522 10.9227
2990.26 118.605 10.7152
2478.24 112.95 10.2984
3270.76 124.448 11.4368
2545.29 108.518 10.1313
3168.5 124.541 11.7983
2558.5 113.682 11.0688
2852.18 119.763 11.618
2535.75 120.047 11.9528
3046.29 116.203 11.7393
2443.95 116.897 11.9413
3182 127.239 13.1428
2166.22 110.637 11.5233
2737.19 112.904 11.9327
2186.3 110.839 12.085
2602.63 108.134 11.7056
1944.55 109.933 11.9596
2539.81 108.373 12.1546
1875.57 115.602 13.1745
2346.73 114.869 13.2005
1652.02 104.281 12.214
1808.53 105.882 12.4423
1775.4 121.018 14.4793
1753.25 104.177 12.5134
1489.19 102.818 12.3824
1633.56 110.588 13.6397
1388.88 100.073 12.5383
1464.8 96.502 12.0967
1383.18 102.456 13.2909
1255.04 97.7477 12.6728
1418.54 101.023 13.1214
1331.71 100.43 13.5004
1340.52 98.9379 13.3058
1239.64 95.0094 12.8164
1285.22 102.523 14.1438
1268.11 90.549 12.644
1193.35 95.597 13.4508
1446.54 91.4803 12.9465
1259.68 97.0184 14.064
1506.51 98.3439 14.2224
1281.11 95.8673 13.9948
1605.33 99.3593 14.8074
1299.63 91.6058 13.8029
1735.14 95.0115 14.3991
1301.87 87.2456 13.4254
1836.37 94.4215 14.5401
1233.76 90.6638 14.1284
1772.92 85.2952 13.6114
1213.74 84.8008 13.4183
1866.65 87.109 14.2994
1224.09 90.4649 14.9254
1798.65 96.7458 15.8821
1211.42 85.8279 14.3287
1805.17 84.737 14.5048
1231.8 91.9073 15.8373
1799.54 95.4029 16.542
1092.28 82.023 14.2503
1522.12 83.1637 14.5393
1075.89 90.3416 16.2523
1488.92 81.5794 14.6862
1001.91 83.1756 14.9299
1282.15 82.6166 15.1437
917.285 82.0468 15.2939
1074.93 79.7377 14.7796
886.664 81.6159 15.3543
990.818 77.2456 14.6414
797.041 79.9099 15.3791
886.787 84.4887 16.2863
742.298 77.9788 15.4689
782.533 74.1968 14.7042
739.313 79.1136 15.8296
743.108 76.6908 15.2985
701.58 74.3426 15.2301
680.659 76.8855 15.9135
716.096 78.1036 16.2415
689.81 72.3904 15.2404
737.585 72.2581 15.4963
746.662 75.1971 16.0989
700.229 75.8274 16.2913
816.019 69.6629 15.1115
739.11 74.5265 16.3085
874.851 64.8769 14.4207
684.721 73.6625 16.4419
985.32 72.4163 16.3863
704.839 70.2659 15.9982
1092.12 72.9912 16.7491
674.427 64.8213 15.1735
1179.18 68.1282 16.071
666.863 67.0337 15.3878
1118.15 63.6649 15.1503
709.154 70.8268 17.1765
1173.57 69.2102 16.3978
665.662 75.6907 18.5801
1160.16 75.6604 18.6186
667.129 62.8957 15.7672
1138.16 64.793 16.3621
630.191 67.2823 16.9734
1114.98 65.4167 16.6956
595.541 62.9369 16.3112
1012.81 62.4351 16.1909
562.668 66.8105 17.3674
919.54 62.8942 16.5918
524.991 64.347 17.2418
809.801 62.1147 16.6499
508.035 62.1316 16.8324
713.579 61.1463 16.6559
465.131 60.9963 16.5229
611.184 63.8708 17.6556
471.641 61.3566 17.3267
501.588 61.9929 17.2776
435.344 62.7195 17.6295
435.614 58.0599 16.493
431.837 61.4524 17.5124
431.997 60.2652 17.6867
441.633 59.7264 17.54
439.5 60.5888 17.8
435.052 58.9749 17.4328
435.432 59.2071 17.8467
404.852 57.0786 17.1001
505.286 60.3756 18.3762
419.072 57.3191 17.5983
558.011 58.0047 17.7944
403.243 55.4541 17.4143
636.139 63.3275 19.5285
425.176 57.8507 18.2206
675.182 53.3927 17.0716
391.44 55.7273 17.762
755.918 52.8537 17.034
403.597 55.3842 17.7676
847.755 54.6857 17.8858
376.477 54.2361 18.065
851.318 56.7149 18.7357
407.504 57.5667 19.101
821.537 55.0456 18.5231
386.741 52.0827 18.0827
843.97 55.216 18.4848
372.113 56.0074 19.473
789.937 50.2736 17.3223
330.896 50.5983 17.5788
750.645 51.2472 17.903
347.038 53.3357 19.1381
690.125 52.115 18.7618
329.808 52.9622 18.695
641.893 52.923 19.0622
300.84 49.4287 17.9739
527.461 51.2728 18.9128
317.64 53.0327 19.4441
465.024 49.2891 17.8884
295.036 51.7171 19.4606
366.96 45.1203 17.4607
303.381 49.5797 18.4251
323.937 48.1158 18.2899
264.07 50.0887 19.1302
281.592 48.8463 19.2257
263.614 46.4805 17.9397
258.856 48.2638 19.0799
248.788 47.4876 18.8639
271.33 49.7713 19.7071
247.823 50.4803 20.1888
317.919 47.4848 19.1211
233.057 45.0899 18.0005
330.087 50.1418 20.3932
275.716 50.2242 20.5139
391.196 45.3888 18.6932
250.472 47.4128 19.5047
425.9 45.6646 19.1384
244.782 48.2785 20.6567
462.954 44.8185 18.6901
258.919 45.757 19.4316
517.681 48.4764 20.8455
265.57 44.645 18.9957
577.427 46.5312 19.9078
263.971 43.9987 19.5005
614.499 43.0817 18.791
264.231 42.309 18.8347
659.318 43.4552 19.2459
261.103 45.8272 20.7404
608.688 43.0516 19.5057
254.762 40.9852 18.5538
594.322 42.695 19.421
266.565 43.9724 19.8135
525.699 41.1393 18.6605
243.66 42.1375 19.7713
476.137 40.9304 19.0653
239.953 39.4359 18.6635
405.087 40.9353 19.5676
241.418 42.4062 19.871
378.736 43.2146 20.8569
216.801 39.0173 18.9938
316.884 44.0075 20.9803
202.712 35.94 17.6406
266.389 39.6434 19.9114
204.827 40.7454 19.831
246.503 39.8141 19.2106
183.796 40.6297 20.8333
186.276 38.1994 18.839
184.694 42.1566 21.035
201.216 39.5463 20.2194
182.766 39.8882 20.1803
212.671 40.7393 20.7648
196.393 39.409 20.2836
220.318 35.5191 17.9916
188.503 38.4352 19.8026
240.876 38.6964 20.5159
205.251 36.96 19.5211
277.992 35.7211 18.7033
201.915 37.6273 20.586
342.272 38.1131 19.8423
196.706 38.0316 20.9109
366.209 36.0528 19.197
218.269 36.2885 19.8791
405.078 36.5163 19.7637
212.518 37.5906 21.3386
428.273 38.4326 21.0011
211.203 36.4977 20.4816
439.805 32.9161 18.6351
216.134 33.7398 18.6214
439.09 36.6127 20.5562
207.424 34.7903 20.062
418.644 34.2738 19.982
217.61 36.4398 20.6535
421.315 33.4374 19.1131
219.176 36.6815 20.9398
365.732 32.021 19.0276
216.292 35.0598 21.0659
366.831 36.2147 21.2028
193.257 31.2066 18.2784
322.973 35.2442 21.1164
186.543 34.4868 20.9211
272.332 34.0616 20.4873
191.409 34.9001 21.0086
219.174 31.8423 19.4105
164.514 31.1182 18.897
200.463 32.5166 19.8322
159.84 32.1836 19.593
176.255 31.9951 19.8288
152.555 31.8943 20.0543
161.464 33.7326 21.3246
157.622 33.4459 20.7935
160.008 33.6987 21.7844
156.64 33.0029 20.9964
157.856 30.9067 19.9767
150.045 30.2741 19.51
182.156 31.5385 20.163
149.6 30.5462 19.9334
195.331 32.0822 21.1026
162.8 31.1582 19.9357
225.518 33.0343 21.9876
160.792 31.5222 21.0556
254.218 32.7892 21.7522
174.228 31.0379 21.5721
291.858 30.5831 20.5708
183.734 32.5499 21.7298
296.458 33.3756 22.3669
192.769 31.18 21.3784
327.295 29.2929 20.7247
199.594 30.482 20.579
320.747 29.7489 20.7097
204.318 30.1541 21.1775
330.836 30.8658 21.3033
205.548 28.9974 20.298
310.084 30.0324 21.3333
199.563 27.804 20.352
291.827 29.8577 20.6355
196.917 29.9757 21.3362
301.361 29.5618 21.6234
194.282 29.5769 21.4568
266.446 29.4344 21.7105
184.075 27.3216 19.4725
230.929 29.4861 21.792
166.241 28.8838 21.5454
207.612 28.0569 20.5461
159.355 29.4485 21.635
175.067 29.2703 21.9628
154.175 27.3503 19.9711
159.392 27.7448 21.244
141.349 27.5219 20.2439
132.429 27.3019 20.7115
132.899 28.4772 21.9849
134.392 28.9912 22.0058
122.861 27.5544 21.0042
123.339 26.3204 20.286
125.351 29.3227 22.9785
140.35 28.7821 22.55
116.758 25.6294 20.2709
140.342 26.6725 20.6312
127.931 27.9418 22.1075
155.329 26.8371 21.6332
143.14 24.1252 19.6253
167.871 26.2386 21.0629
144.611 26.166 20.7951
196.99 26.0022 21.2952
168.36 26.9304 22.1153
221.472 26.7524 21.5303
171.366 25.2117 20.3793
240.67 24.9458 20.7267
182.106 24.6792 20.487
251.214 23.7225 20.0169
174.262 24.8365 19.9814
266.609 26.6577 21.9117
175.368 25.1419 21.7983
263.648 23.7589 20.5719
164.546 24.2286 20.024
259.01 24.0586 20.5289
164.598 24.274 21.0329
255.211 25.9325 22.1908
149.126 23.603 20.1997
241.648 24.5024 21.2109
145.587 23.2155 20.2856
215.578 23.3773 20.8413
146.238 25.7308 22.5535
192.83 25.8605 22.2511
123.072 21.8208 19.6823
167.944 26.0487 22.6172
121.641 22.0748 19.9669
144.321 25.2868 22.4958
113.234 24.1278 21.5568
128.196 24.1882 22.0432
119.969 24.9757 22.2023
106.393 22.3371 20.7895
101.523 24.8364 22.3558
97.4632 22.3252 20.8278
105.71 22.3109 20.3216
102.37 22.503 20.6577
101.347 22.2579 19.9666
106.117 22.3282 20.231
105.096 22.8878 21.8385
110.733 23.8307 22.7467
102.899 21.5854 19.7556
123.844 23.2796 22.4205
113.671 22.6293 21.4059
155.538 21.6657 20.3255
124.322 23.8221 22.655
168.021 21.5843 20.4792
125.116 21.9488 21.2505
196.249 21.7441 21.0037
123.016 21.7014 21.4526
215.951 22.5699 21.6742
140.755 20.9713 20.25
228.607 21.1787 21.0717
137.933 22.1429 21.8684
239.026 21.797 21.258
143.591 22.0886 22.3431
239.762 22.3671 22.3494
139.347 20.805 21.0286
236.237 22.15 21.5244
138.067 22.8569 23.6684
232.097 21.0022 21.6525
118.766 21.0638 21.5436
205.033 18.5487 18.4154
118.114 22.7064 23.7755
188.58 22.7349 23.1224
112.361 22.2697 22.3542
158.017 19.5161 20.2681
101.385 18.7825 19.6177
137.961 19.9052 21.1272
100.991 19.6431 20.0364
123.093 20.9087 22.2081
87.7553 20.1358 21.5429
111.056 21.2634 22.6964
91.6306 20.9482 21.4755
88.8338 19.7 20.5706
80.5739 19.1592 21.1337
86.4407 19.4618 21.1675
84.1079 20.2056 21.2295
78.104 19.9126 22.4605
90.8045 20.8561 22.1775
91.6719 19.253 21.4681
88.8694 19.7406 21.6736
99.2719 18.3427 20.0494
86.5648 19.7817 21.1273
116.236 20.2643 22.0879
93.1635 19.84 22.2952
139.495 19.8791 22.0004
96.8081 18.9677 21.2158
164.847 20.197 22.4174
104.396 18.988 21.3301
170.967 18.8108 21.3922
98.7489 18.4867 21.0782
184.858 20.457 22.8741
102.328 18.2962 20.5408
205.699 19.6331 23.1188
104.431 18.0877 20.7532
207.219 17.3434 19.866
96.4243 17.6965 20.3901
218.323 18.2292 21.1195
90.9156 18.9339 21.9444
218.131 18.4942 21.3325
95.7601 18.095 21.1838
205.838 18.8423 22.0647
90.1628 17.7903 21.0286
186.227 17.9 21.0423
81.4253 17.3297 20.8639
174.499 18.0386 21.5221
79.6323 18.3512 21.7401
140.559 18.3468 22.4641
81.2567 17.8382 21.1984
130.175 19.1124 22.8787
68.1675 17.598 20.8145
105.688 16.5776 20.1867
69.822 16.8335 20.7221
89.2636 17.4221 21.1555
71.4465 18.1602 22.7559
75.6357 18.697 22.2541
68.3428 16.9131 21.4177
72.2058 17.447 21.1056
67.9844 16.8814 21.312
67.7716 17.7491 22.6012
71.2127 16.4059 20.3884
76.9102 16.6925 21.1864
72.0903 18.5863 22.3516
88.5472 17.0979 21.8118
72.4253 16.9999 21.3033
112.642 16.7702 21.7212
71.2741 17.1655 22.6205
126.375 17.1262 21.8315
72.7213 16.8249 21.2423
140.577 15.2393 19.8618
70.5445 16.2036 21.2326
163.719 17.3028 21.8683
73.4841 15.2918 20.2202
167.532 17.0661 22.283
68.2549 16.7883 21.7686
177.774 16.6831 21.4438
75.8684 15.9074 20.5279
189.335 16.1272 21.87
71.5969 17.0708 22.0654
199.341 16.0764 21.8784
70.7311 16.9279 22.5366
189.142 17.2209 23.5563
65.1602 15.8871 20.7623
181.661 16.1003 22.0553
63.41 15.3909 20.5136
160.593 15.7497 21.1783
64.7437 15.4838 21.245
146.469 15.8027 20.9723
55.6497 15.1926 20.9581
123.08 14.4248 19.7221
65.7166 15.8072 22.1526
92.562 15.1728 20.7896
59.7837 16.3668 22.8242
81.9117 15.1941 21.2493
57.6962 15.3331 20.4278
63.0307 14.5787 20.4911
53.4033 16.2421 23.948
62.1636 15.1653 20.9074
56.5266 15.1821 20.8961
56.761 15.165 21.6488
52.2289 16.2144 23.0304
57.0556 15.5581 22.5859
53.5233 15.1141 21.4033
63.5349 15.1446 20.5914
51.4418 14.6695 21.4783
72.1504 14.9294 20.9313
51.7884 14.8929 21.5369
86.6442 14.6509 21.3019
54.2821 15.2523 21.9181
108.278 14.5066 21.9268
51.9164 13.7268 20.1368
122.802 14.5462 21.1871
55.4602 13.7987 20.6458
140.955 14.8137 21.4601
60.4836 14.3841 21.5203
148.45 14.3794 20.719
58.9307 14.998 22.4725
157.018 14.2374 21.114
60.9845 13.9929 21.3984
165.395 13.283 19.158
62.9684 13.5018 20.4291
158.164 15.3808 22.4903
58.9763 13.2235 19.5712
151.757 13.7223 21.6309
58.3393 13.5551 20.4435
142.013 13.8444 20.7452
58.9275 15.0053 23.1671
135.955 13.6157 19.5851
55.4073 13.4814 21.4592
117.648 13.4044 20.0967
52.4854 13.7321 21.6596
96.7905 13.4545 20.3058
52.3501 14.2443 21.6791
85.3217 13.5602 21.8726
50.0415 13.2001 20.4676
66.318 13.2258 21.1209
49.5908 12.6201 19.628
56.555 12.9787 20.7151
45.5968 13.4581 20.8445
47.3311 14.2085 22.5513
44.5932 13.9031 22.1389
45.8584 13.3025 21.0531
45.6772 13.4389 21.0309
48.9991 13.6148 22.2378
45.1143 13.0448 20.2693
52.0996 13.9213 22.2898
46.5 13.2259 21.6453
65.7103 12.9379 20.7201
47.6619 13.3365 21.2815
76.5774 13.9119 22.7212
50.2191 12.2151 19.89
91.4855 13.7391 22.8904
49.2438 13.4339 22.4542
105.329 13.0088 21.316
54.4207 12.7469 20.3969
116.674 12.9755 21.294
52.9984 12.2529 20.9137
122.89 12.9998 21.9404
61.1907 12.6773 20.665
128.331 13.0292 21.46
57.0383 12.6889 20.9117
136.549 11.304 19.1282
62.0629 12.4402 21.2386
131.407 12.0608 20.111
63.2566 13.1919 22.3571
128.924 12.7199 21.383
61.8768 12.5368 20.4202
120.993 12.8501 22.0187
58.4238 11.9955 20.2086
108.416 12.8327 22.4391
59.9794 12.6565 21.941
97.0605 12.6611 21.3119
53.6605 12.4144 21.4342
79.0297 11.3735 19.9517
50.0764 12.4444 22.0421
66.1011 11.5516 19.6961
47.1834 12.2332 20.4044
55.0213 12.0543 20.6187
46.0188 11.4005 21.1835
49.4499 11.6792 19.1584
44.2099 12.1465 21.9933
44.1684 12.6311 22.1182
42.331 11.5715 20.5149
41.893 11.5999 20.9051
40.1675 10.7815 18.2574
45.1922 11.3113 20.4855
44.2721 11.3792 20.7619
52.1192 12.1667 21.4857
42.917 11.2177 20.783
58.1598 12.33 21.5942
47.3514 11.838 21.2844
69.4672 11.5334 20.6404
50.0104 11.1379 20.6062
80.304 12.0382 22.1536
50.8824 11.7052 21.236
89.7842 12.1411 21.4424
57.3764 12.1698 21.8244
95.7531 11.6209 21.6517
62.7949 11.3463 20.7219
105.44 11.6446 21.3452
65.6637 11.8066 21.5237
109.2 10.8678 21.1316
67.5128 11.3399 20.3742
106.081 12.0104 21.4448
67.2499 11.4915 21.5402
115.828 11.0211 20.9626
68.1221 11.9029 21.4163
104.876 11.4158 21.0706
63.4362 11.3753 22.0964
100.991 10.47 19.5272
64.5629 11.3492 21.3553
93.9106 11.7258 22.6201
55.7878 11.2181 21.172
77.0376 11.5246 21.4551
60.8442 11.9429 23.1364
71.943 11.1731 21.0886
51.311 10.295 20.5074
58.2014 11.1002 21.2489
44.0744 10.602 19.5443
51.6288 11.1623 21.8907
43.4531 10.8908 20.9985
43.3743 11.3303 21.2366
39.646 11.0232 21.4458
42.5646 10.3076 19.7125
37.5568 10.6844 21.3933
39.3696 10.7987 20.9161
38.8099 11.0294 21.5611
40.8311 10.7359 19.9311
42.5485 10.8418 22.5431
45.7919 10.4457 21.1122
44.7646 11.598 22.6619
51.7194 11.0319 21.2379
48.8105 10.3065 20.0261
59.6924 10.3858 20.3558
51.4179 10.6504 21.0307
69.7579 9.94 20.7633
59.3944 9.89899 19.7102
82.9749 10.9301 21.8311
56.715 10.3622 21.2507
89.028 10.0263 20.5922
61.6346 10.6422 21.2812
92.9901 10.0189 20.0979
57.0981 10.8724 23.4486
104.48 10.548 20.9134
60.949 10.3666 20.3723
106.157 10.2308 21.1472
56.9662 10.0516 20.315
104.534 9.95906 20.6551
61.8213 9.92972 19.9992
98.4301 10.1554 21.3137
58.2813 10.5752 21.9529
90.1047 11.1488 22.7285
57.286 10.4265 20.4076
80.7033 9.64382 20.2725
55.0016 10.0538 20.5234
70.0448 10.2527 21.1961
48.3862 10.0388 20.679
62.9138 10.3727 20.6811
48.6765 9.95301 21.8927
55.1211 9.62184 20.6919
43.0307 10.659 22.0052
45.8276 9.3166 19.6553
38.3307 9.59003 20.1641
42.1719 10.1236 20.9753
39.8526 9.90759 21.3328
37.3454 9.5919 19.6775
36.725 9.42334 20.6103
36.2912 9.76231 21.3137
35.3952 9.86767 20.4396
39.6734 9.97766 21.4906
37.0328 9.9007 21.9939
44.9496 9.45018 20.2538
40.7504 9.64581 20.8581
52.2709 9.2866 19.8725
44.1893 9.25108 20.2956
61.6329 9.61994 20.3054
44.2249 9.26343 20.4646
70.7544 9.53212 20.6444
48.9527 9.22381 20.7198
80.1395 9.36991 20.0274
52.593 9.63382 21.4907
87.6855 9.22837 18.952
56.9183 9.42609 21.219
94.8404 9.5459 20.9641
53.7429 9.28839 20.5224
97.9515 8.91778 19.79
57.499 8.97411 20.3316
103.697 8.5582 19.6718
55.2959 9.95398 21.9873
98.305 9.02024 19.9757
52.1924 8.97809 20.1134
92.416 9.28262 19.7476
52.7327 9.15881 21.0497
85.7359 9.58669 21.0474
46.051 8.74424 19.6996
79.2477 9.54347 21.8576
46.0401 8.84043 20.3165
71.6102 8.50733 18.6245
39.8777 8.30673 18.6029
62.543 8.03721 18.6011
38.7467 8.67008 19.7117
51.958 9.14684 20.2966
35.9523 9.13233 21.0701
49.1208 8.76542 20.685
36.3006 9.38078 21.6104
37.1103 8.922 20.4966
33.8319 8.90342 20.5119
37.5831 8.51152 20.0283
33.9177 9.20395 20.8609
36.314 8.48584 20.5556
35.2224 8.877 20.4331
39.7075 9.16763 21.2586
36.7037 8.37939 20.0369
43.8878 9.28743 20.4749
36.3302 8.46659 20.7514
52.2886 8.4658 19.787
41.4215 8.59756 19.8955
58.9866 8.61362 19.7272
40.4003 9.03751 21.8366
67.106 8.3434 20.8978
42.7104 8.55019 20.0155
77.1516 8.33839 19.0711
44.4728 8.50027 19.2258
85.5666 8.45119 19.8702
44.722 8.99724 20.3566
98.422 8.45054 21.1465
41.4628 8.28585 19.5527
98.8344 8.8533 22.447
44.0531 8.21403 19.7714
106.162 8.70084 20.984
41.9164 9.40836 21.4617
104.674 8.19686 20.0185
41.9676 8.65486 20.0508
95.1128 8.60709 20.4476
38.4498 8.6031 21.3662
87.2326 8.34338 19.7504
39.1684 8.41077 20.8011
82.3498 8.25844 21.1446
37.3636 8.89363 21.3477
70.7252 8.44856 20.6922
34.6767 8.13149 19.6118
60.2151 7.49457 19.4466
34.3477 8.4442 21.2342
49.7875 8.59088 20.7969
31.5245 8.21141 20.5499
43.9024 8.45538 20.6122
33.0267 8.77624 21.5558
36.3273 8.06048 20.0904
33.325 8.31864 20.0529
32.8648 8.17585 19.7767
31.4805 8.1128 20.6431
33.8534 8.6705 20.625
32.043 7.65313 20.2343
39.0636 8.04427 20.1025
30.8141 8.36118 21.3063
42.4161 8.32623 20.6178
33.8002 8.75758 21.8294
50.2962 8.23707 20.258
33.1568 8.37468 21.3105
59.1847 7.75032 19.8399
34.9525 8.35808 21.3469
67.6408 8.17435 21.5562
32.8888 8.1152 20.4144
76.8627 8.63602 20.5908
35.6145 8.06313 20.2117
84.7735 7.69962 19.2234
32.9203 7.96338 21.0208
95.7979 8.6165 22.954
34.8432 8.59894 21.8699
98.505 8.67822 22.7959
33.1884 8.22437 20.9598
97.8688 8.26203 20.9165
34.5781 7.98807 20.7857
97.2799 8.01114 21.3006
35.8055 8.54657 21.5823
91.5224 8.40481 21.9704
33.7354 8.67402 23.3134
85.1237 8.25284 20.9182
36.4805 8.37732 21.0712
69.1116 8.46038 22.8095
33.4967 9.1455 23.0893
67.0699 8.44977 21.367
34.1864 7.68357 21.1568
48.8384 8.3201 21.5254
30.5876 7.55725 20.0505
44.209 7.87876 21.5538
29.1917 8.13079 20.1857
34.5527 7.89504 20.913
26.8919 7.87855 20.9458
30.1797 8.5391 21.9569
26.5628 7.54159 20.2799
27.5439 7.83147 21.8824
26.2353 8.76339 22.3227
27.3928 7.62641 20.4184
26.9118 7.92938 21.3621
32.2163 7.88206 20.7072
25.1002 7.71909 22.0611
37.7619 7.31431 19.1558
26.8509 7.65773 20.9869
46.8674 8.20103 21.1445
26.5364 7.52625 19.9573
53.7808 7.10667 20.3017
27.5783 7.42259 19.9323
63.3141 7.7124 20.7035
28.5742 7.42159 21.0387
71.3146 8.00769 21.379
30.9035 7.47432 19.2679
78.7842 7.64056 21.3381
30.7689 7.44865 20.3422
80.3359 7.54179 20.788
30.8806 7.71368 20.0865
85.8332 7.60423 20.9624
32.1573 6.81787 18.3079
84.1013 7.7348 21.396
31.107 7.35662 21.2169
83.9745 7.25866 19.8989
30.3306 7.63607 21.0874
78.5319 7.59694 20.5008
29.9409 7.48978 20.7998
71.1379 7.37215 19.3335
29.1856 6.83598 20.4265
63.5525 7.14333 20.3841
27.5242 7.414 20.9823
51.1769 7.51473 19.7942
27.3055 7.03953 20.2705
43.3374 6.85704 19.3301
26.2839 6.94232 19.3686
36.1053 7.31661 20.6446
26.1517 7.18915 20.4639
29.4255 7.39249 20.1521
23.9652 7.51924 20.5493
25.0387 7.193 19.5818
21.9524 6.39176 18.8877
23.9541 7.03636 20.397
24.6402 7.08252 20.3189
24.1724 6.80013 18.7604
23.0582 7.21593 21.3357
27.2485 7.67068 20.4816
23.4921 7.10381 20.675
34.375 7.35036 20.2643
24.2964 7.20758 20.9517
40.9328 6.75265 19.4628
26.3158 7.11485 20.2265
47.0973 7.6787 20.9963
26.4137 7.0962 20.5219
57.3522 6.48396 19.5529
28.7687 7.20135 20.3852
62.1142 7.13422 19.6263
32.0964 6.62119 20.4269
70.7864 6.71704 19.1874
31.2737 6.7201 19.6468
70.1161 6.96535 19.304
34.0908 7.04983 21.3126
74.1901 6.73067 19.7061
33.3189 6.80037 20.2718
78.2448 7.17419 19.5298
34.2392 7.07422 20.0721
71.4628 7.03169 20.4901
34.0901 6.98336 20.8797
67.4293 7.08232 20.9676
32.8198 6.70955 19.5906
59.4873 6.86289 20.5307
30.9844 7.05651 21.1906
51.4442 6.95708 21.0831
29.14 6.51065 19.2357
42.4088 7.02783 22.3666
28.5359 7.35704 21.2472
34.7786 6.9708 19.8605
26.0911 6.79651 20.7348
29.5654 6.83937 20.5707
24.6771 7.31693 20.858
25.9263 6.6197 19.1815
22.6992 6.64246 20.972
22.7777 7.09745 20.7317
22.0321 7.19438 20.9856
21.525 6.90487 20.5488
21.7055 7.05102 20.8801
24.5119 6.87931 20.1022
23.3472 6.8127 21.0161
27.1568 6.82513 20.3065
22.6372 6.55356 20.9841
31.8395 7.26986 20.9243
25.2226 6.8006 19.8724
38.7413 6.73454 20.7852
26.2706 6.62473 19.9722
44.2662 6.76872 21.3465
27.7125 6.79539 20.2011
48.3668 6.74191 20.7084
32.9697 6.72273 20.1655
55.7211 6.63491 19.6587
34.0451 6.82381 21.579
56.8292 6.70713 20.7552
36.7506 6.30983 19.9239
64.9881 6.75362 19.9342
39.3933 5.9031 18.8342
65.3083 6.36912 19.3895
37.4914 6.62146 20.5511
64.1989 6.51448 19.4803
40.9277 6.76925 19.9696
65.0151 6.63742 21.7246
37.1469 6.51517 19.9323
57.8824 6.74261 20.801
36.512 6.74629 20.8166
53.4207 6.81332 20.8421
33.8492 6.1556 19.3113
44.1127 6.42981 20.5191
31.9173 6.9879 21.1237
39.8005 6.97571 19.9735
28.8322 6.54205 20.9879
34.2157 6.94367 21.444
24.9163 6.44179 21.1023
27.9604 6.59984 21.321
23.374 7.00814 20.2695
26.1481 6.5972 20.1288
22.1402 6.35133 21.3792
23.4355 6.79859 20.9835
22.0079 6.43864 19.9179
21.4973 6.4463 20.3856
22.0089 6.4103 20.2861
22.9526 6.31768 20.1993
24.4122 6.43883 21.4996
26.495 6.90158 20.4695
24.5825 6.42798 20.1449
30.0005 6.19615 20.9896
27.7408 6.56422 20.1107
34.8779 5.88455 18.4211
27.485 6.37462 20.523
42.7607 6.51207 19.8727
30.8579 5.87936 20.179
49.6936 6.53174 20.4806
29.8249 6.30004 19.0793
54.0278 6.34137 21.0739
35.2053 6.27044 19.7243
57.6583 6.57409 21.2596
33.102 6.19713 19.4687
62.472 6.25489 20.3295
35.4948 6.39118 19.7805
63.1002 6.12417 20.3615
38.221 6.08782 19.5321
60.0386 6.38727 21.1603
34.9606 6.49288 21.2019
57.7883 6.01035 18.9428
37.5365 6.08733 20.0695
55.6904 6.33487 20.6683
33.4659 6.4323 20.641
50.6195 6.73168 20.6967
32.3761 6.05169 20.3518
45.9111 6.68425 20.648
30.0312 6.37481 21.5797
37.9093 6.44161 20.5349
26.5657 6.59481 22.0305
34.0165 6.23052 20.3679
25.5461 6.105 20.3833
28.4517 6.5287 20.7716
22.9066 6.0855 20.3908
22.9621 6.21938 20.5397
21.5799 5.86559 19.7111
22.6784 6.1721 21.1943
21.3235 6.5245 20.3929
22.4646 6.20527 21.4214
22.1527 6.48141 20.7422
22.8627 6.36497 20.9523
21.9792 5.75459 19.5591
26.814 6.50892 21.142
24.4534 6.02824 19.674
32.104 5.99225 20.5008
26.1831 6.28042 19.7717
35.5508 5.91656 19.6396
27.3004 6.17553 20.2307
43.0965 5.69394 19.4596
30.7595 6.11249 20.4779
50.2839 5.91141 19.4596
31.9823 6.41372 20.6594
55.3105 6.16755 20.9863
32.7348 5.92785 20.3362
60.7125 6.10646 20.4842
33.8549 6.33551 21.5996
61.7956 6.429 20.9369
32.7478 5.79735 20.1841
61.3133 5.99935 20.0509
33.3477 5.55458 18.6953
62.1552 6.12163 19.7699
32.1205 5.81185 20.3088
59.7147 6.40542 20.4602
31.4518 6.23081 21.9133
57.6669 6.19586 19.911
28.4907 5.88147 19.2274
54.5239 5.88314 20.1292
27.4633 6.2304 20.5132
46.1551 6.1053 21.3398
25.9673 6.2372 20.8785
43.4204 6.21705 20.5503
23.7827 5.89908 20.0035
32.9404 6.01266 20.5392
24.241 5.82043 20.2956
30.545 5.56885 18.5816
23.2586 6.24354 21.7104
25.8005 6.22941 20.3973
22.4263 5.93245 19.9353
23.4992 5.84831 20.2757
22.912 5.76428 19.3579
22.8893 5.64768 19.8512
22.7384 5.98155 20.3876
24.6417 5.74039 19.2399
23.9938 5.4962 19.0314
26.4784 6.18243 21.3909
24.2915 6.11078 20.4735
31.6674 6.05028 21.0731
25.7274 5.6629 19.3872
38.5763 5.74568 19.5722
26.7578 5.18128 19.3105
43.4199 5.84682 20.4951
27.3333 6.17911 21.3852
54.4639 5.86104 19.7389
25.2209 5.68245 19.5273
58.009 5.81653 20.3146
28.9568 5.88473 19.6956
66.7587 6.24485 20.3325
27.8273 5.89171 22.6438
71.4027 5.75879 19.9864
28.3576 6.06803 21.8864
69.4085 6.15284 21.3402
27.3594 5.83051 20.8568
67.9796 6.27021 21.4825
28.4278 5.86139 19.8048
68.2658 5.57016 19.8788
25.589 5.52569 19.8859
62.093 5.92404 19.5829
25.4673 5.92738 20.6942
56.3475 5.94788 21.9957
25.5167 6.16144 21.3663
48.914 6.15117 21.9105
23.8093 6.18159 20.5996
41.9895 5.83677 19.7548
24.0655 5.4075 20.6813
34.2742 6.01907 20.9879
23.7016 5.62954 20.4407
29.2817 5.71706 19.9806
22.0312 6.18825 22.3244
24.5491 5.81069 19.8264
21.7669 5.74414 20.6863
23.2541 5.56158 19.8536
22.2392 6.14178 19.4993
23.3835 5.79873 20.552
22.3564 5.67222 20.4995
23.9353 5.80081 21.6125
21.4729 6.24902 22.1785
28.6735 5.79131 20.5236
23.2575 5.85432 20.7537
32.6427 5.56799 20.214
21.956 5.867 20.9025
41.1257 5.99814 20.5206
23.9905 6.0678 22.7143
48.8884 6.20722 21.4765
22.791 6.14427 21.8839
56.7112 5.77266 21.915
23.9501 5.77086 20.4227
64.3373 6.09117 21.8456
24.123 5.96745 21.6174
68.9141 6.90404 23.5339
25.9149 6.04482 22.398
69.7938 5.57156 19.6762
27.9228 5.94611 19.9038
70.4067 5.38214 20.6015
25.7308 6.00108 21.3465
72.3614 5.88988 22.4532
29.3691 6.41854 21.8013
61.2944 6.19223 21.9857
26.8191 5.76392 21.8157
65.628 5.6359 20.5471
25.5765 6.59633 24.3268
52.4236 6.13586 22.0653
25.7222 6.17396 20.8877
48.2507 5.68826 21.7094
23.7965 6.30479 22.4999
38.629 5.77096 20.824
20.7548 5.84448 20.9482
33.9075 5.72881 21.3447
20.1959 5.87113 20.9623
27.1172 5.81115 21.8078
19.6276 5.81166 20.9516
23.3852 5.7487 19.1221
19.9924 5.63906 21.3071
21.5091 5.63427 20.9002
18.7937 6.18066 20.7448
21.6117 5.42703 19.5282
20.4598 5.9319 23.1329
23.8617 5.74869 21.4455
20.0561 5.99115 21.5346
26.1425 5.71127 21.203
20.4303 5.60854 20.5582
33.8717 5.79556 20.1116
21.0703 5.62574 19.6506
37.5844 5.28136 19.6441
22.2924 5.50794 20.7593
46.314 5.40742 21.3444
22.6084 6.00674 21.3135
51.8033 5.94856 21.4822
23.0924 5.89398 21.0028
57.654 5.78758 20.9888
23.6937 5.19193 18.8425
62.0611 5.3389 19.7921
22.7507 5.36342 20.6011
65.2582 5.61308 20.2463
23.9507 5.40086 21.1867
65.6698 5.37662 19.5713
23.3622 5.71644 20.1292
62.9652 5.36426 20.5965
24.2104 5.55381 20.3031
63.0153 5.49392 20.6978
23.8817 5.11824 19.8733
51.4651 5.56075 19.6994
23.3365 5.48224 21.2536
46.8598 5.56881 22.777
22.2413 5.9131 20.2151
41.0445 5.36616 21.3612
21.9335 5.87499 19.6809
35.7762 5.30427 19.3312
20.6824 5.34725 20.229
27.4715 5.67872 20.4116
18.2993 5.43186 21.2234
23.2974 5.61973 20.6303
20.3316 5.39712 20.5423
18.5717 5.19125 20.0604
19.1823 5.79135 21.1858
19.0979 5.66248 21.6397
18.9221 5.66358 20.6749
19.2552 5.41036 20.2886
17.853 5.76197 21.039
21.9491 5.59772 20.8067
19.4303 5.75021 20.9924
25.7442 5.53553 19.8136
19.0013 5.00414 19.4127
31.9827 5.35244 19.9391
19.9632 5.22059 19.2856
35.2857 5.324 20.0435
22.2315 5.19213 20.6349
43.7603 5.63707 22.1266
23.7504 5.75978 20.4478
48.1302 5.32471 20.2752
24.9204 4.94909 19.5215
50.4956 5.01559 18.6662
24.3159 4.98059 20.1111
59.0804 5.45633 19.5763
25.6322 5.21552 20.6985
55.9113 5.46627 20.2379
26.2302 5.27356 20.02
59.1852 5.75358 21.5129
26.7872 5.3313 19.526
53.8544 5.1732 19.8653
26.414 5.22199 20.391
49.198 5.05572 19.1664
25.6389 5.00375 18.9087
44.9785 5.49495 20.5881
25.1928 5.58356 19.879
38.7215 5.40062 20.6407
23.5349 5.39751 20.7757
32.5358 5.07828 19.4235
21.9013 5.8115 19.9257
29.3046 5.40688 21.6745
20.2279 5.02617 20.326
24.9863 5.32744 19.8992
19.0993 5.30521 19.737
20.5242 5.20047 20.9923
18.1598 5.32058 20.5806
17.896 5.46407 21.6363
16.4478 5.29834 20.2355
17.3722 5.41371 20.5056
15.918 5.29293 19.3069
18.5094 5.49249 20.1272
17.1595 5.23525 19.6352
20.5521 5.58873 21.1922
17.2531 5.18272 19.841
24.772 5.36333 20.6934
19.4617 5.18807 21.5582
28.4585 5.55157 20.8136
21.2624 5.07261 18.4328
34.7212 5.25402 21.9157
24.3908 5.71276 20.645
35.7197 4.82675 19.1777
25.4515 5.08335 20.2455
43.5692 5.88666 20.9321
28.7843 5.24648 19.8636
48.0563 5.33096 21.5441
28.5583 5.39081 20.5479
48.9384 5.39879 20.3228
31.0583 4.88601 19.8566
50.8933 5.7625 21.5773
30.9667 5.1476 19.5193
50.3233 5.31857 19.3495
31.196 5.14338 20.2863
49.3745 5.12314 20.6892
30.878 5.19007 19.9477
45.0358 5.35009 21.4468
27.2634 5.56059 20.6856
40.4292 5.32885 21.5673
27.6042 5.27574 20.1312
38.0066 5.16259 19.6079
23.1882 5.27448 20.1618
32.6266 4.9293 19.4666
21.7509 5.06565 19.6241
26.5821 5.21344 18.4556
19.6894 5.30687 21.1144
24.2059 5.44391 21.4991
17.9719 5.29848 19.7435
20.0988 5.29791 22.1434
17.6732 5.16931 19.8296
18.747 5.00561 19.0211
17.2129 4.69927 21.2043
17.0779 5.67138 20.3255
17.3705 4.97293 21.3982
19.3061 5.46939 19.6718
18.8652 5.2104 19.2355
19.5068 5.34881 21.3204
18.6918 5.35981 20.4622
24.3436 4.92757 19.4247
20.7619 5.49484 19.8815
27.859 5.01466 20.2278
20.8601 4.96827 19.6733
34.1718 5.08508 19.6097
24.1163 5.14192 20.977
37.6444 5.09718 20.2312
24.073 4.96782 19.7314
42.2895 5.07074 18.2619
26.0311 5.07579 20.6162
46.6991 5.16292 20.6291
30.1158 5.39189 22.1243
48.0908 5.58828 21.6765
29.2856 5.57466 22.6595
49.6014 5.51028 20.0019
31.1983 5.64934 21.4905
48.0114 5.01709 19.9279
29.8984 5.56138 21.4105
47.4903 5.60358 22.4045
28.7514 5.49815 21.3272
46.5948 5.34924 21.2291
28.005 5.22005 21.4219
41.8558 5.56662 20.8566
24.6004 5.23662 20.4375
37.2496 5.09453 20.0886
24.0717 5.1225 19.1859
31.431 4.93529 21.5313
20.4967 5.39294 20.2573
26.2755 5.19352 21.312
19.9505 5.34163 20.4734
24.5432 5.21395 19.9737
17.8791 5.27176 20.3102
19.3718 5.20999 19.3783
17.2073 4.77806 19.5008
19.0033 5.42115 20.5837
16.6042 5.24462 21.0445
18.2915 5.4025 21.2388
17.0508 5.09846 20.7016
18.1017 5.43668 20.7219
17.0049 5.13591 19.8162
20.3477 5.38143 21.6647
18.8364 5.30925 22.2335
25.2014 5.36672 22.3163
20.1394 5.35741 20.4212
28.9012 5.51931 20.4804
21.9356 5.15262 20.075
33.7551 5.40951 21.3768
23.8676 4.94488 18.9626
39.9284 5.14975 21.1022
25.5246 5.06483 20.9034
44.9765 4.98846 19.2987
25.6715 5.20522 20.6087
46.3856 5.32684 21.095
26.7718 4.78028 19.8629
49.63 5.03847 18.9052
26.8477 4.94189 20.5269
51.2741 5.36527 21.1143
25.9716 5.65443 21.9763
53.2801 4.91362 19.8066
24.8581 5.19932 21.5731
53.9542 5.23666 20.194
25.2331 5.20799 20.7847
47.6747 5.55401 19.3351
23.7363 4.72135 19.7649
47.7028 5.1876 20.1983
22.0781 5.0841 20.9423
39.7261 4.87504 19.9309
20.8481 5.27343 20.9423
36.2678 5.25542 20.9896
20.0251 5.52031 21.1826
29.7402 5.1472 21.6278
18.8497 5.30501 20.4632
25.5955 4.88295 19.6177
17.9218 5.20674 19.715
20.4192 5.22153 19.6755
17.4249 5.01447 20.2757
18.3711 5.07297 21.2358
18.1463 5.2062 19.5346
17.9565 5.15684 20.5662
17.8897 4.9038 20.5565
18.6006 5.22594 21.333
18.7561 5.5546 20.6332
23.1801 5.12487 20.0909
19.4514 5.2451 20.4253
24.858 5.04482 20.0715
20.8614 5.36768 20.9756
34.0476 5.28926 21.2465
19.8571 4.99211 22.0665
39.0519 5.43667 21.8234
21.9029 5.21087 20.7473
45.8861 5.38042 21.026
22.618 5.49683 22.437
51.2035 5.66423 22.5715
22.8384 5.52936 20.48
55.7767 5.38775 22.2663
22.9912 5.2841 20.9522
57.4234 4.80673 18.1388
23.6136 4.75582 19.5518
61.315 4.89493 21.2836
22.5808 5.70042 19.4571
59.0791 4.67977 19.5966
21.6878 5.31275 21.7297
60.0262 4.9745 20.1394
22.754 5.07529 19.039
54.0293 5.0204 20.6906
21.4398 5.30822 20.4815
48.1713 5.17451 21.5265
20.8549 5.1375 20.0445
41.0622 5.39084 21.9717
20.9297 5.5145 21.3284
36.0769 5.14231 20.2566
19.7737 5.28123 22.6423
29.9853 5.43926 20.4675
19.3013 5.51714 20.8518
24.5189 5.0165 21.9017
18.6398 5.33093 19.9551
22.0164 5.29064 20.9624
18.367 5.19372 20.1086
19.367 4.88639 22.1203
18.4198 5.18491 19.2526
19.4621 5.09179 20.1815
18.7429 5.45636 21.7809
20.4417 5.17264 21.7367
17.6961 5.41365 22.001
26.0411 5.10798 20.1033
19.2293 5.13313 20.6784
30.532 5.39061 21.6908
18.5085 5.95217 21.4836
36.7434 5.38395 22.3228
20.33 5.49509 22.111
44.807 5.55592 21.7652
20.6263 5.40448 21.8676
48.9483 5.38973 21.7608
22.5515 5.73832 22.4603
56.3122 5.68755 22.6752
24.3912 5.72586 22.333
58.0486 5.60748 22.8695
24.1691 5.9089 25.2888
68.0367 6.39074 24.9392
26.0918 5.77708 20.7214
59.5564 0 0