# pn-170911/CsIIA-27-CsII-1280-1959.psd
# Power spectrum* (dif=0,1,2) (really just |FT|^2)
# NOTE: only the first half! (symmetric)
# weeks: 1280-1959
# 268 clock-days, 76 excluded
# PSD: 1441
273640 7.77337 0.0660857
5.50974e+06 61.3896 0.0470722
4.48921e+07 884.379 0.0684189
3.92707e+06 156.379 0.0539216
2.65555e+06 189.841 0.0649428
1.42807e+06 139.029 0.0606614
907448 146.466 0.0819264
647106 132.623 0.077839
524943 131.576 0.0938588
352873 118.72 0.0955132
382824 133.632 0.119338
268973 132.412 0.12827
250302 133.071 0.139817
199808 127.629 0.136728
186890 133.793 0.176616
144970 115.613 0.163828
153194 147.228 0.239272
136053 140.258 0.234203
114093 141.846 0.26237
89997.9 127.879 0.275169
91895.8 142.955 0.339409
73984.7 121.46 0.32744
75391 135.852 0.366553
75057.5 136.459 0.398728
62277.6 124.86 0.373304
54623.1 123.826 0.413743
54808.2 134.151 0.487263
46120.8 128.066 0.490795
46472.7 129.074 0.52769
38001.7 126.012 0.553721
41195.5 136.307 0.61365
39614.7 143.084 0.697474
35678.7 139.631 0.746468
30288.6 125 0.685295
27700.2 115.727 0.693183
28134.8 132.533 0.799566
28225.6 135.931 0.856872
24372.1 130.411 0.883936
25950.1 134.404 0.9958
24564.4 139 1.06292
21971.3 134.747 1.06806
22778 145.694 1.21901
18988.8 123.994 1.0919
18460.3 135.599 1.22604
18451.4 129.302 1.23563
16147.4 120.287 1.20988
14797.2 124.917 1.31798
14843.9 121.021 1.27777
16814.9 128.953 1.44144
15021.4 131.195 1.54509
13466.2 121.789 1.49216
14199.5 132.077 1.74012
13832.7 132.102 1.79714
13380.7 142.078 1.95093
11843.2 127.582 1.81134
11909.8 122.514 1.82508
9875.43 116.684 1.85737
10428.3 120.31 1.88958
9703.2 111.373 1.90421
10532.5 130.851 2.24066
9510.52 117.003 2.05615
9673.05 129.994 2.39574
9589.41 118.179 2.17377
8971.5 127.153 2.45337
9128.81 116.785 2.30889
8086.29 110.623 2.2336
9182.22 130.922 2.81641
8525.76 124.44 2.66198
7943.83 121.181 2.68819
7694.9 132.994 3.03434
7669.09 138.706 3.23249
6682.96 116.033 2.82315
7507.74 128.607 3.19443
6325.47 121.098 3.07483
6312.77 113.257 2.96241
6360.08 123.885 3.30555
6703.14 132.389 3.66701
6149.83 123.098 3.50339
5785.27 119.486 3.48175
5476.86 139.325 4.23845
5353.19 114.607 3.59799
5256.01 127.215 3.95164
4733.89 107.133 3.47961
4633.24 113.142 3.80421
5192.01 126.492 4.29127
4706.19 123.499 4.21344
4275.65 102.193 3.62487
4276.73 121.769 4.43861
3922.31 119.23 4.48148
3728.17 110.693 4.18754
4240.1 118.489 4.67932
4227.23 121.685 4.75186
4084.92 118.327 4.73445
4373.14 133.943 5.61259
3960.9 125.467 5.24706
3588.62 110.889 4.89414
3580.11 108.482 4.78686
3473.45 113.085 5.14403
3780.26 124.143 5.72841
3725.74 122.695 5.64412
3532.29 116.89 5.60279
3162.61 110.306 5.40686
3125.33 113.775 5.63068
3394.9 126.925 6.38231
3226.45 119.808 6.24906
3160.26 121.214 6.40968
3254 113.505 6.03649
3113.89 120.652 6.63782
2755.41 110.952 6.10916
2803.58 114.115 6.37625
2823.87 111.338 6.46767
2612.16 104.211 6.1704
2410.66 106.565 6.40308
2821.67 121.622 7.35802
2802.8 113.641 7.04861
2673.84 119.184 7.55838
2761.3 122.664 7.93556
2186.8 109.539 7.16447
2401.15 100.675 6.58494
2128.5 100.248 6.70228
2191.38 111.923 7.65817
2220.5 111.403 7.74346
2268.97 118.139 8.30905
2057.81 100.263 7.21445
1921.82 105.772 7.58341
2066.3 112.94 8.40749
1923.08 101.212 7.62602
2047.12 120.366 9.28172
1783.23 104.173 8.27807
1959.05 114.072 8.88201
1656.21 99.1811 7.97112
1747.14 105.576 8.66405
1680.24 102.201 8.53609
1808.75 115.824 9.69502
1896.57 112.51 9.46519
1994.17 115.814 10.0603
1692.88 107.312 9.49168
1872.46 104.432 9.1812
1671.99 95.7886 8.60022
1791.4 110.186 10.0252
1655.32 106.59 9.81635
1497.18 93.9212 8.87399
1673.25 107.955 10.3531
1708.9 105.551 10.1836
1594.99 103.827 10.1983
1594.53 97.2196 9.6895
1466.04 93.1005 9.42562
1700.14 114.671 11.5432
1454.71 106.154 10.9564
1421.34 113.73 11.9022
1520.75 108.861 11.708
1253.71 92.2864 9.9632
1489.23 105.196 11.4978
1353.13 95.5277 10.5597
1412.24 107.155 12.1076
1187.87 90.378 10.2752
1372.68 105.917 12.1416
1127.36 95.4372 10.9828
1249.05 101.937 12.2027
1355.95 101.281 11.9841
1178.84 104.832 12.7015
1237.14 97.7254 12.0018
1137.06 97.4658 12.009
1081.29 89.5072 11.2449
1056.71 96.2043 12.2577
1104.44 99.3306 12.9443
986.542 90.1586 11.5148
1003.87 85.1991 11.3801
998.567 84.3118 11.3273
1092.66 99.3376 13.4697
1021.47 103.427 14.1662
995.01 91.7713 12.4791
1044.18 96.5843 13.2332
1024.34 98.265 13.9083
1047.45 102.698 14.6663
996.572 103.847 15.1482
993.634 100.054 14.6382
918.401 90.3328 13.1378
934.35 86.6449 12.8344
925.599 89.5354 13.5307
904.269 87.3951 13.4028
825.115 93.4731 14.3376
1016.5 94.2953 14.4587
799.629 86.6219 13.7355
858.491 90.4514 14.3473
820.933 86.4311 14.2371
753.971 74.2028 11.8865
847.412 89.2263 14.4683
817.239 84.5872 14.1082
794.358 89.1845 15.079
804.172 92.1675 15.6473
820.609 95.4624 16.6282
902.097 94.1156 16.113
797.669 92.9253 16.3082
767.623 94.0117 16.5411
770.37 86.0377 15.6785
807.143 86.806 15.2957
760.096 88.7319 15.9168
778.769 88.955 16.301
656.835 88.21 16.4307
639.474 82.9818 15.8635
745.928 86.4131 16.5792
824.705 99.0325 18.7674
714.649 89.9406 16.7699
624.759 84.9511 16.62
637.655 83.1253 16.6638
693.27 89.3259 17.6092
687.752 95.7501 19.1187
694.087 95.1335 19.2223
600.663 79.9103 16.514
630.24 88.4265 18.3742
687.013 86.0956 17.6735
627.99 91.9421 19.4487
610.671 79.1034 16.8579
553.458 78.08 16.5749
595.695 77.8578 16.6771
582.307 83.4749 18.5397
665.991 100.425 21.8786
545.679 84.5648 19.0598
571.01 80.2483 18.2152
632.141 92.5902 20.7044
550.592 79.7514 18.296
523.091 75.3352 17.2437
583.569 86.6894 20.2211
580.856 78.5403 18.4368
559.902 83.7524 19.8737
618.6 91.2906 21.7541
495.27 75.9864 18.4027
523.537 79.3674 19.2707
533.894 84.4179 20.2689
535.496 76.8527 18.7656
536.99 81.3746 20.3598
516.105 81.6667 20.3549
519.28 81.7079 21.2406
556.956 83.3272 21.1339
455.072 75.8238 19.7316
475.046 79.5953 20.3737
444.653 71.2049 19.1614
478.025 76.3812 20.1743
497.811 79.4237 21.3999
485.258 77.17 20.2907
441.273 81.6953 22.1287
469.042 79.4773 21.3322
421.333 76.6612 21.1853
457.204 83.3998 23.6382
400.582 75.4919 20.737
461.538 88.3879 24.5287
415.741 79.5136 21.9895
375.853 75.8594 22.3591
406.006 72.4826 20.8362
403.897 75.9225 22.1384
374.776 69.1808 20.0512
390.037 71.6031 21.2481
373.902 78.6594 23.5851
384.064 71.7054 21.6807
375.986 75.2305 22.6175
403.145 77.3462 22.8149
396.327 79.4379 24.0838
382.221 77.4123 23.83
348.049 67.7628 21.3991
397.446 79.1522 24.2477
364.626 79.3375 24.6036
362.889 71.2329 23.3074
362.253 74.0856 24.1353
351.074 70.2504 23.4162
343.407 69.7167 22.057
395.887 77.0753 25.0903
350.792 70.324 23.3115
355.333 69.7791 23.3384
348.735 72.2727 24.1621
346.765 67.5494 22.6155
322.481 69.0187 23.4812
364.386 71.5751 24.3965
348.157 81.316 27.6664
374.845 72.7671 25.3095
327.609 71.6267 25.4692
306.649 63.6006 22.3158
303.257 76.3683 26.6508
340.024 74.7618 26.6127
319.82 73.7667 26.5006
274.356 65.1678 23.5309
288.986 71.3883 26.2009
285.312 59.9777 21.7183
253.69 68.3118 25.2624
269.406 69.8213 26.5409
283.503 77.0561 28.4694
261.269 66.4739 25.4095
279.466 72.269 26.6313
269.443 66.6986 26.0323
252.836 68.5802 26.1496
237.906 67.9384 26.2294
271.284 72.7901 28.3207
248.108 68.8224 27.3414
239.167 69.5137 27.7024
235.215 68.9735 26.5728
239.451 66.3561 26.263
231.798 61.4498 25.3181
237.035 69.4332 27.9517
250.607 65.1507 26.7959
258.603 67.3657 27.8949
247.358 66.3769 26.6935
255.211 71.1991 30.2547
256.694 66.5182 28.0821
234.505 61.4307 25.1686
227.748 62.5777 26.899
252.895 64.3295 26.826
243.125 68.6282 29.439
249.948 68.6688 29.1286
261.579 68.2331 29.7831
222.369 62.5346 27.2662
221.235 58.2362 25.8217
252.44 74.2441 32.0874
238.988 63.7723 28.3464
241.644 72.3642 32.8573
223.863 63.8011 28.6402
199.497 58.4831 26.9726
241.462 66.8283 31.5876
205.97 64.5738 28.792
207.432 57.524 27.091
215.66 63.1003 29.5385
216.779 57.2279 27.3497
213.462 69.1842 31.7598
201.216 59.8116 29.4426
227.751 71.2919 33.3902
221.32 67.2463 31.4056
197.6 65.8309 31.9495
243.154 65.4485 31.6088
203.92 66.8361 32.8841
195.113 65.1358 33.0699
198.996 66.5868 31.7036
202.417 57.5291 27.6561
162.959 55.4783 27.8152
174.774 59.3683 30.6361
170.996 56.3033 28.3141
198.057 62.6242 31.477
204.09 66.3409 34.269
206.261 63.4451 32.6055
161.673 57.4486 29.9611
162.703 57.1112 29.3781
170.817 61.0455 32.2669
177.958 55.5242 28.8426
181.626 58.8133 31.0827
189.996 57.828 30.9654
179.667 58.53 31.3292
172.097 59.4503 31.6284
185.525 62.3282 34.0269
183.924 61.4349 33.0849
173.725 58.2976 32.4688
196.233 64.5648 34.4887
165.144 57.2734 32.9726
205.293 61.9985 34.173
172.215 60.8964 33.4948
186.239 52.4171 29.5533
178.817 57.7258 32.8161
169.614 57.6107 33.3277
163.04 52.6244 28.9368
188.876 55.982 32.0497
176.729 60.5834 34.4879
181.533 56.6065 32.1699
152.289 53.9316 32.2152
171.672 52.2925 30.4901
181.273 56.5575 32.8815
174.824 58.7606 36.8246
153.894 57.0777 32.8182
185.486 62.0134 35.3319
153.549 51.8437 33.3277
149.384 54.9925 33.03
175.934 65.0482 39.6954
169.411 55.7049 33.8184
158.696 55.7536 33.771
164.406 56.4186 34.9483
136.492 53.0677 32.4465
148.225 54.8677 34.4798
140.971 59.1054 38.0236
160.639 58.7295 36.7959
146.373 56.296 34.2067
150.527 52.359 33.6042
142.11 54.7991 34.9429
149.299 54.0197 35.2714
159.006 60.2485 38.982
135.242 54.7574 35.904
140.845 56.176 36.8499
144.759 56.2594 36.8211
128.912 51.2007 32.5457
161.563 59.7248 39.2074
155.273 51.7431 35.1538
152.652 54.5351 36.0574
131.815 54.9139 36.7751
141.161 56.25 38.2001
147.039 53.6317 37.9155
144.191 56.4139 37.9561
153.425 56.0505 37.4679
149.336 57.765 41.1996
143.777 52.1226 34.5435
151.373 53.7888 36.4976
150.214 56.5276 39.9593
141.95 53.2515 37.3243
140.521 56.0825 39.8624
153.69 54.2454 38.0549
126.361 44.4401 32.0491
139.202 49.9109 35.0977
118.112 48.1303 34.9878
135.053 48.6026 34.5644
135.329 50.044 36.1966
131.734 46.9738 34.3715
132.312 48.6116 35.085
134.303 54.8855 39.7366
120.737 50.3803 38.5987
128.146 47.8414 35.6618
122.809 50.1025 37.6589
112.329 47.5227 34.1192
122.976 54.6351 40.3141
111.833 45.365 34.9418
123.996 48.8626 37.0833
125.712 52.9544 39.9354
110.286 51.401 40.4282
118.645 49.7184 37.064
113.922 46.2884 35.2186
116.993 48.5179 37.7876
99.2757 46.7238 38.2009
118.176 49.8586 37.5947
110.152 47.2659 36.7627
108.006 47.962 38.2983
117.543 44.8802 35.5413
121.291 50.6355 40.729
132.212 50.6131 39.8736
122.907 51.448 43.3952
114.835 48.5097 39.5017
107.06 49.9507 40.616
117.92 49.4231 38.61
130.977 52.9212 42.6446
114.337 45.7352 37.0589
123.321 49.0449 39.7079
117.424 43.8502 37.7262
134.748 52.0405 41.5554
106.616 47.7811 40.7546
129.044 52.7397 44.1273
115.802 52.4883 42.4657
124.703 49.9572 42.1446
113.043 45.4211 40.6579
120.704 46.4298 39.4907
118.698 44.9019 37.4514
114.6 47.1589 42.2957
104.268 43.5573 36.7849
101.315 48.8239 43.3185
107.544 48.2272 43.1287
124.268 47.4141 41.6712
119.943 50.0499 43.8349
124.861 49.6008 41.2448
106.973 48.841 43.0538
108.607 47.4088 44.0069
97.1472 45.4355 41.19
96.5544 48.5835 44.1724
104.848 46.5813 40.8364
94.1425 47.401 41.8494
105.972 44.2704 39.8395
86.7992 42.7808 39.7113
100.26 44.2013 40.067
95.568 45.5599 41.9264
97.0378 47.0488 43.9799
99.4959 46.8617 42.6052
89.364 39.5607 38.0285
98.2991 44.3432 41.3758
96.9899 49.0739 45.5879
98.0139 52.2825 47.8603
88.4073 42.1385 42.5341
99.9194 40.8829 39.7996
96.1134 45.7566 41.0365
94.2936 41.6023 40.5207
101.143 45.7736 44.8173
94.0183 39.2509 37.2999
91.1351 46.3462 45.3547
93.8454 42.2882 39.6875
93.5821 46.4564 45.1331
98.66 44.4953 42.2422
92.8034 44.6885 44.3502
108.49 44.1632 42.7063
93.6566 43.2541 43.5942
96.0877 42.2426 41.9948
99.6988 45.078 44.6012
98.7832 41.871 43.7471
88.6967 43.0908 42.7091
98.8914 41.3268 40.5988
86.9449 41.1628 42.3305
106.547 42.9927 45.1416
86.7223 42.9975 44.4825
91.172 41.0588 38.9413
86.1452 40.8031 43.387
93.7184 42.2796 42.9674
86.6015 44.175 43.7845
86.0348 42.4945 45.0898
77.0823 37.5254 40.4401
83.3942 43.6965 46.7972
82.4589 43.2602 43.6029
82.0393 37.8464 41.0956
80.3938 42.6998 45.1361
79.3435 39.7154 41.9227
78.7246 44.3065 46.6198
80.1496 38.0603 41.2095
90.4986 47.5172 50.0737
76.9485 42.2971 45.9012
79.4418 40.8023 43.9339
74.7714 40.165 43.3399
77.8502 48.3526 52.931
74.7198 36.8139 41.5219
72.4123 42.7354 45.9602
74.4324 43.7857 45.3783
73.2677 41.5463 46.0744
82.9262 40.6597 45.1057
80.7761 43.4018 47.3577
76.3441 39.04 44.2581
77.5174 43.3276 48.6285
72.6742 37.326 42.5372
84.8139 42.9218 48.801
82.302 37.8254 42.5921
75.7887 38.1527 43.4983
90.0404 41.6066 45.2028
73.5359 38.9416 46.5439
80.6238 38.5129 44.4217
85.2241 39.2036 45.4641
74.4361 37.0748 42.6672
81.7029 37.9924 42.0502
81.9026 38.4202 45.4983
76.1792 44.5174 49.5218
85.6753 43.3035 51.0474
78.2369 37.8307 46.5257
85.6326 41.2157 49.132
71.0534 41.0001 47.0856
77.0462 38.7051 46.6117
78.7569 42.1902 51.1366
78.4941 41.0274 46.5578
67.393 39.5392 49.5968
70.6553 39.9396 48.1199
71.7238 44.7211 53.666
68.7221 40.4202 50.0801
69.4741 35.2867 42.8567
74.3262 40.1135 49.6092
72.0336 36.5418 43.7855
62.9253 35.9887 44.5946
71.9825 39.0189 46.5836
65.1637 37.9191 45.8414
67.1706 38.1809 47.5492
62.0903 40.2649 51.3111
68.6387 42.9619 52.54
68.8647 32.6446 40.0474
74.053 42.8784 54.3138
63.5428 36.2385 45.5651
61.4064 41.2174 53.5994
72.933 40.2767 47.4435
60.3332 34.4156 47.7362
66.9861 36.3881 45.0112
68.8744 36.6515 44.6144
71.2722 34.6181 44.7606
67.4885 35.8677 45.2901
66.0569 33.9711 43.9928
59.7271 33.325 43.7007
62.731 37.3913 47.4551
62.1333 39.2724 51.3157
65.2266 38.3188 50.1022
69.962 40.5438 51.2459
69.6622 38.0357 52.4094
68.964 37.8521 50.3116
74.2028 39.0293 52.4226
61.1649 34.3404 43.8553
68.2516 37.345 50.7273
63.6682 37.9167 49.6426
68.1939 36.5897 49.4251
59.2478 38.4867 51.6588
64.7824 34.8809 46.0833
54.191 33.5399 45.9174
58.8401 35.4535 47.5017
49.6865 35.9958 49.7053
59.0257 33.5512 46.3635
53.308 37.2044 51.1237
59.9646 34.9161 46.0714
55.122 35.2587 50.4119
55.8855 33.0657 45.6525
55.2725 39.0322 52.3164
52.5612 35.9805 49.6931
51.8371 35.6192 50.157
53.7607 37.1231 50.7674
44.5482 32.4392 45.6579
50.308 34.5792 48.8082
46.9123 35.788 52.2875
54.2325 33.6557 46.6832
44.634 34.7811 52.6347
50.2264 33.2101 46.9427
48.2246 33.0219 48.995
56.9354 41.3559 56.8655
48.9988 37.6698 51.0809
50.5174 33.3406 49.6446
48.7196 32.0602 45.8788
45.0588 32.3779 45.6851
47.5203 32.2983 48.2272
47.9135 32.9776 46.5169
49.6055 33.7208 49.4801
47.4083 37.541 54.9647
45.6616 33.1285 53.1019
49.7106 31.9736 46.4313
49.2029 31.0613 45.5791
45.9603 32.0948 46.0885
45.5374 34.0293 52.0124
50.5145 31.7476 49.1358
46.4452 34.5188 50.4474
52.6768 35.0382 50.0847
46.8765 36.0318 54.6397
52.5891 35.3295 54.534
48.2322 36.6629 54.5496
51.1528 37.238 57.1815
43.6825 31.7169 45.5578
52.1069 36.2196 54.7504
44.3009 33.6516 49.6257
47.6935 31.2068 50.0644
44.017 32.5334 48.4834
53.891 34.1439 51.2468
44.9207 32.9632 50.7956
47.3848 34.1161 53.7224
45.1927 31.8491 51.14
45.3795 32.7925 50.1009
44.011 32.3041 50.2715
42.4694 30.1723 49.4017
42.6075 30.7485 48.1127
40.9394 30.6147 47.6616
43.2765 32.3439 54.0072
50.2273 34.8908 52.3165
37.1645 29.8906 51.0904
39.6779 31.6758 50.8277
39.8839 31.9303 49.3892
45.3944 31.2268 46.052
39.1939 32.2603 52.0941
40.2765 35.69 54.2042
46.6518 31.0714 51.5162
40.1809 29.9657 50.0738
38.898 31.1198 50.593
42.229 32.2089 52.5649
40.6714 32.4864 53.4096
43.6581 30.8064 49.3662
38.184 30.6427 51.9602
47.9808 32.2479 49.9524
41.749 32.2909 51.4913
39.94 29.0199 49.8152
42.2857 30.2615 53.2718
47.7022 33.3869 53.3042
42.2678 31.0943 51.6307
45.7965 32.5022 55.7121
41.192 30.2838 50.9242
47.7106 32.6819 53.2956
42.2775 30.7874 50.2164
47.5185 31.1721 51.3143
42.2275 30.8214 52.9358
49.2343 31.7125 54.5725
43.5122 28.0478 48.8308
43.2267 30.2003 50.915
37.9636 29.4684 50.9542
45.4762 31.4767 54.3198
38.8658 33.836 58.6779
47.6751 29.2319 49.2451
37.7994 30.6479 53.1936
41.921 27.5881 48.6218
40.6936 32.9293 59.3294
42.1099 31.9266 55.8794
38.5078 32.8736 55.3457
40.0096 32.9876 54.4414
38.7578 30.1818 56.9713
40.2599 34.5441 56.7352
33.2927 32.557 56.2077
44.0349 31.9011 56.7682
39.8461 30.002 55.8371
40.2536 32.5723 54.2757
32.9345 28.1663 52.7329
34.5347 26.5525 47.6518
36.3124 31.8219 56.4604
42.374 34.4209 63.1051
36.5515 29.735 52.2283
37.5148 27.3514 47.6081
39.0178 30.3301 54.7687
42.6474 31.2976 54.8296
33.9796 29.7384 55.2284
40.4328 32.3045 60.6312
41.3055 31.7722 56.0933
40.1807 31.1097 56.1583
39.768 30.05 54.295
40.8775 26.7757 49.537
38.6107 26.4138 48.854
42.9468 31.0428 54.6556
36.6022 28.3777 55.4182
41.1377 26.1542 47.9845
37.8777 28.5938 53.5152
43.0878 27.4377 51.6067
37.617 28.891 55.1372
41.4934 30.9162 55.9678
37.1604 27.4214 50.8818
39.3528 28.5443 53.845
36.7467 30.0088 55.7071
38.4786 29.6937 54.8452
37.2571 33.2707 64.0513
35.5417 26.2163 49.7095
34.7345 29.2933 58.5839
41.9118 29.4768 52.0609
35.0518 25.8848 48.8414
35.8531 28.8317 56.8612
36.7492 29.0992 55.9225
37.8828 28.3444 53.6801
32.012 27.0594 52.0233
35.2854 26.897 51.9459
35.6919 29.2793 55.9598
37.7936 28.7236 52.1003
30.2977 24.6581 51.8713
32.7945 28.2373 54.1624
34.83 28.839 57.55
36.2783 27.9486 52.0493
32.9181 27.1673 55.24
32.1035 24.8834 48.9797
32.6469 27.9026 54.7989
35.6557 28.0574 53.7263
37.7037 28.925 54.1926
31.6711 25.6883 53.0454
33.7163 26.0168 50.7718
31.779 23.7579 51.5088
37.3448 25.3653 50.7289
36.7253 28.9119 57.8118
36.6823 27.9871 55.0427
41.0031 27.0091 52.7817
33.0868 26.648 56.7266
35.2263 27.5469 53.3207
35.0035 26.2248 50.8175
36.0531 25.971 53.6136
34.5536 30.0553 59.1629
39.8542 26.378 53.8111
35.241 25.3864 52.0874
36.7329 23.7148 50.1826
35.9973 28.1706 55.35
38.6118 26.2647 57.821
37.7061 31.5022 61.9134
41.1743 25.1283 51.5288
39.5791 28.1813 56.1067
39.3834 23.537 48.4162
34.9893 23.9473 50.6231
33.573 24.6189 54.4835
35.5352 26.2975 56.9771
33.4854 29.0181 57.2047
37.1591 26.2633 54.4347
36.853 26.8026 56.6788
37.0771 25.259 53.4664
36.7191 26.9597 51.7728
30.1397 23.9721 53.7067
33.4179 26.1812 53.3662
28.5408 24.4428 50.4042
31.4306 26.8095 56.2882
33.5704 27.3715 60.0815
34.9315 25.3546 50.8474
33.7895 25.5374 56.4588
30.3725 22.413 48.8544
33.1764 26.831 55.3788
30.6887 24.024 52.4868
28.2058 23.4359 51.3331
34.0353 25.2168 55.5858
28.5203 25.2076 58.1024
34.163 25.5145 51.6643
29.3139 23.9966 55.6878
34.2585 27.4385 57.5365
30.9757 26.6346 56.1005
34.146 25.3701 56.1804
32.1578 26.4701 55.7623
33.3568 22.6332 49.5492
30.0932 26.8413 59.0976
35.5248 28.8479 63.0989
35.5858 23.7123 51.2656
38.9369 26.939 55.8793
30.9678 24.9918 57.675
34.249 21.7768 52.3952
35.94 24.6695 56.2046
35.5927 25.5037 55.2586
32.9696 24.5027 54.2673
33.9125 26.1405 58.5858
32.9875 22.7435 52.7031
37.8869 26.9413 59.9448
33.4203 23.8933 53.5978
33.3444 24.6521 54.3759
33.1308 24.1444 55.3447
31.7973 23.2954 51.0241
28.1407 23.25 53.7811
29.0601 24.1594 57.6991
32.0013 24.3167 54.2891
31.1989 25.6478 59.1122
31.377 24.0794 54.5149
31.3545 23.4943 55.771
31.1989 24.5944 53.912
31.5203 26.823 55.4968
28.0742 23.9106 57.2646
30.5624 23.233 55.3124
28.7565 22.8128 54.2998
29.9214 22.0169 54.1013
32.3536 25.2816 55.8884
27.6798 25.2556 58.9759
28.2044 22.4143 54.2376
30.5107 24.4227 55.426
30.2776 22.0259 54.5001
32.3275 25.023 54.2798
28.3263 25.3501 61.6003
31.4994 22.5583 52.529
29.9459 21.2039 49.1587
30.9806 22.6569 50.5226
28.3302 22.5066 56.0522
29.7584 21.7153 52.0062
33.2099 22.3654 53.8874
31.1697 23.5621 52.9617
31.2473 22.9281 53.2453
32.3563 22.9966 56.1999
32.6849 25.5557 60.5553
33.2721 21.3152 49.9681
28.5476 23.5167 62.0011
36.1814 22.9328 50.1625
32.54 21.1833 51.14
34.1857 24.0986 56.6951
31.4987 27.3988 65.383
36.1599 24.4063 60.0947
29.1837 22.9336 55.593
33.2641 25.0897 62.7294
30.3177 22.5386 52.1737
32.0135 21.1577 51.6611
26.813 21.2083 52.4227
31.5051 21.3104 52.7911
30.0535 24.7805 61.2357
32.0232 23.3036 57.1068
28.8096 20.4659 49.5091
28.3396 21.2775 52.1172
30.0185 21.0812 54.5541
30.1644 23.2515 53.2807
26.3291 21.5181 55.2834
28.4841 21.996 53.3578
27.1995 23.044 57.8975
30.5166 21.4387 53.2182
26.5969 22.8914 53.7708
26.5617 24.1538 58.5752
26.9091 22.624 58.5349
27.8071 24.0537 60.1722
27.7289 21.7913 60.3467
27.4007 22.5166 53.2599
26.2534 20.8498 54.0796
28.2837 20.2752 50.6595
27.412 22.0542 55.1721
33.7155 21.0584 52.3659
25.4515 20.9676 50.6218
26.1742 21.5355 55.9675
27.2815 21.4791 56.3422
29.2763 20.3613 50.965
29.1077 22.1182 54.4493
31.2488 21.1737 53.7353
28.3251 21.5147 53.9662
29.8949 21.994 56.4194
24.898 21.2305 57.8844
29.266 23.2689 58.0927
24.9328 18.9529 51.3794
29.3285 21.5065 57.039
24.7815 23.0274 57.8369
29.704 21.8054 53.1177
28.6631 21.1036 56.4862
33.3875 21.5753 55.8722
24.6717 21.6832 56.0423
27.2581 20.1477 51.3897
27.7305 21.6063 58.861
30.2032 21.5484 55.2637
26.7482 20.4011 51.7142
26.6125 20.9765 53.1148
26.0711 20.9931 58.2713
29.4478 23.0639 57.4433
26.0236 23.0549 58.1777
23.6277 20.3819 53.934
21.5108 20.9043 57.5232
26.3869 23.1549 58.5614
25.1055 19.8215 55.2519
25.2197 21.5117 55.2945
20.2143 21.8995 60.4657
23.9145 22.4974 58.5181
23.0784 21.9257 59.426
23.743 22.3881 59.6541
23.4064 21.7893 57.9567
22.0115 18.8594 44.8234
21.0162 19.9562 58.7052
22.4236 22.9078 59.8726
23.0409 21.4377 58.4462
22.6424 20.6812 56.8856
24.214 20.0711 54.3809
22.2998 23.2625 62.7659
22.6033 19.0517 57.1188
25.0724 22.0743 59.1262
22.7822 21.37 54.4855
21.275 20.958 58.4748
21.1865 21.0329 59.1616
22.4123 18.8623 50.4078
22.2704 21.6719 58.2122
22.905 21.0594 50.0333
22.0873 20.3728 56.353
23.9018 18.5398 50.6374
21.4712 19.2319 59.029
25.4289 21.5148 53.0745
19.7312 17.0796 49.3198
23.1548 21.1815 58.5566
20.5773 20.232 58.9567
24.1132 20.9253 52.4557
22.4589 20.2302 56.1003
24.2171 19.5637 57.4833
21.3287 19.9804 54.9715
23.4578 18.2413 52.525
22.8845 21.8783 58.6977
21.597 19.1811 56.4009
20.0898 20.2943 56.7676
23.9857 22.5512 58.7415
22.3292 22.2171 61.1507
22.3319 18.5388 53.0623
19.7173 19.9768 53.1092
22.1748 17.9953 52.3711
20.6596 21.3486 58.5795
18.3863 18.0838 48.9906
17.4135 18.9899 59.9987
21.0631 21.2918 55.7298
19.251 17.0048 48.2995
18.399 19.8129 58.5177
19.165 19.1084 56.3855
18.9551 20.1042 59.0063
18.9336 19.0266 52.5682
16.5287 19.0214 56.2997
17.8841 19.8184 57.1511
19.7188 21.1362 54.9924
20.2886 18.6239 54.0078
21.4178 18.7806 54.41
20.5931 18.4968 49.3604
18.6278 18.6184 59.1798
20.1485 19.9439 58.0332
21.8224 19.9296 53.8778
20.1721 19.5824 56.5155
21.2253 17.609 53.5975
21.5019 16.7659 50.079
22.5913 20.2578 56.4767
20.8409 19.2446 54.7486
20.4553 19.2455 55.6205
21.3209 19.2673 55.4633
22.8095 20.259 54.2338
19.8732 16.7355 50.2823
21.6968 17.7468 51.5874
20.2432 17.9312 56.4615
24.7069 20.5022 59.2371
17.5236 17.813 52.3636
21.5826 18.9647 60.4226
18.7068 19.563 55.1324
22.2121 19.7081 55.1836
19.9138 18.5975 58.4899
20.5784 19.3734 56.3738
16.8674 19.9741 59.6455
19.8953 20.6356 55.7689
17.2924 18.8532 60.513
19.6454 17.8353 51.8468
18.3094 16.5525 49.4789
20.6945 19.9802 57.2142
18.2024 19.9632 58.8674
19.256 20.2958 61.5191
18.3869 18.5616 59.0087
18.4058 19.8573 57.199
19.1789 20.477 58.3127
19.2453 18.7511 54.8372
16.8693 17.9159 54.9628
19.7222 17.9248 56.9837
18.5998 17.5031 50.1212
18.0278 19.4554 57.5727
16.0071 18.1509 56.9291
18.2096 17.3804 54.8833
19.9635 17.8991 52.146
19.6513 19.4639 57.0172
20.4502 19.8482 65.2237
19.6361 19.2631 57.1176
18.5847 18.6989 56.8054
18.6665 17.8076 52.6922
17.3162 17.1838 48.5399
19.039 17.0268 51.4706
17.5685 17.605 55.9564
20.0359 16.968 53.1406
19.5736 17.8031 57.8073
19.5066 18.2209 54.2414
19.1465 16.4436 49.4098
19.1092 17.0407 48.7342
17.5095 16.9261 52.0839
18.904 17.2575 52.8735
16.8346 16.8684 54.9839
22.2306 18.8168 58.422
20.8622 18.6449 56.1031
19.1464 17.0334 55.5592
18.8276 17.9019 53.2052
18.7816 17.9207 57.7018
19.1566 18.7675 60.0313
19.1095 19.2022 56.0024
18.7771 16.9746 53.032
18.9267 16.9034 49.5751
17.7718 16.1704 47.3813
17.6776 15.9133 49.5381
16.3217 17.8388 52.9694
17.6269 17.5862 57.6688
15.1118 18.8365 62.5613
18.6308 17.358 52.6011
16.6776 16.4597 49.9815
16.4569 15.3309 49.757
16.5046 17.1832 55.983
17.4436 18.5437 55.7774
16.6137 18.3202 55.4553
16.2682 18.932 58.9596
15.634 17.8135 63.6045
18.4906 17.3609 51.899
17.3142 16.1534 51.1249
17.8014 17.0106 50.3323
16.6144 15.517 51.0025
16.8206 15.6172 55.3149
17.4232 17.1568 52.8239
17.4648 15.2018 47.5072
15.9363 15.4043 53.667
20.3775 17.8989 56.2743
18.972 18.346 56.8622
21.0382 17.5527 56.0623
17.2793 17.7693 56.9366
19.3036 18.9754 58.2248
17.3498 16.2076 53.4416
18.7058 17.2459 56.7076
18.1729 18.2665 61.5624
22.1509 16.1553 54.0947
20.8165 16.4759 52.6395
22.275 15.5312 49.6548
19.3848 16.9465 55.1351
20.619 17.1977 55.2527
16.2709 16.3754 52.1584
19.7214 17.1853 54.766
18.3553 16.9531 54.7322
19.3527 18.6169 58.4261
20.8716 16.6035 51.1974
21.6426 15.6765 55.6792
20.2387 16.1903 50.3932
16.5068 17.0802 58.6355
17.7301 18.3108 58.7124
18.2017 14.6691 51.7621
16.6694 17.0504 52.9901
18.1667 16.6424 46.7534
18.9174 15.8587 52.6255
18.7212 15.9216 58.3273
17.9914 16.2903 55.9924
17.3492 17.9431 55.3779
16.2158 17.6294 59.5695
17.4261 17.3649 55.5262
16.2367 18.0042 56.7405
17.7796 16.6789 52.835
14.8651 15.7371 54.5853
19.9102 17.135 54.6277
17.6546 16.4427 58.712
17.8585 17.7605 59.921
17.9587 16.3804 49.637
17.3558 14.7098 52.4952
15.6998 16.3212 55.3521
19.2328 15.9933 52.4939
17.0188 17.288 54.033
20.5064 16.6955 57.5166
20.177 15.1394 46.3564
19.5876 16.6062 52.4353
20.3764 16.1353 53.9092
20.6772 14.7623 53.8545
19.6113 16.7822 56.2969
20.4234 16.2884 54.9194
19.041 15.2585 51.2109
21.4607 15.5307 53.2666
19.1599 16.1865 55.6354
20.3399 15.4528 49.0743
19.4843 15.9054 50.1743
18.892 16.0238 57.835
18.5538 16.669 55.0421
17.5688 15.3566 52.153
16.1134 15.1987 52.2925
18.1662 15.2051 52.7185
16.0187 14.4314 49.2988
19.8103 15.6389 49.383
17.4088 16.8263 60.7932
18.9729 15.8936 52.9095
16.9393 17.6679 57.7332
17.0407 17.6309 56.485
16.7819 15.4149 53.7339
17.413 15.2872 54.6832
17.6057 15.2711 53.1087
17.2966 16.4268 51.6899
17.8418 15.0543 55.7993
17.8362 15.2188 49.1874
16.1114 14.6167 50.6173
16.2313 15.2552 61.1161
16.2959 16.272 49.0189
16.4763 14.0804 49.0387
17.2458 16.0935 57.9689
18.6508 16.1399 56.5247
18.5268 16.3307 54.2681
20.2613 15.1458 48.9515
18.0352 15.3293 53.5343
18.6347 15.3092 53.8701
17.8308 15.7088 50.6396
18.9446 14.888 52.6014
18.2271 17.1338 59.2276
18.8695 16.4575 54.191
16.5524 14.8384 55.9187
20.7978 13.9896 52.2638
19.6595 16.7978 56.3296
19.2688 15.0669 52.8683
16.5833 15.0943 50.7467
21.5507 14.1543 50.975
17.5188 15.2316 53.8978
21.6085 17.3961 55.8568
16.9473 14.684 55.8242
20.0635 15.5528 52.202
18.3092 16.098 51.7776
20.2168 14.4853 52.3897
18.8422 14.4531 54.2599
20.5339 15.8322 50.0251
15.7494 14.5447 52.7116
17.8403 14.4588 52.2011
19.2806 15.8493 56.3181
20.8732 15.7527 57.3213
18.1949 15.7407 52.6926
17.0623 15.8197 56.6245
16.9969 16.5668 56.9274
18.6549 14.6458 54.2523
19.3056 17.0564 59.8955
17.5705 15.0671 51.2965
19.2127 16.5537 62.368
18.5206 14.6291 56.617
17.6945 17.0812 57.5382
18.8957 15.4441 54.8668
17.104 14.6605 52.747
16.6937 12.8951 46.7912
18.0434 15.1125 54.0587
18.4879 15.4941 55.423
16.9906 16.3171 57.1377
17.1456 15.4237 51.1051
17.3044 15.3625 56.1964
18.1672 15.405 53.1415
17.0752 15.3641 53.0719
19.7712 13.6708 49.7774
18.2613 14.0646 53.6472
20.4463 14.8624 52.4111
17.3253 15.3823 57.7934
19.6799 16.5879 60.3684
18.5417 15.8253 51.4061
20.7148 15.5072 52.4504
17.3441 14.7837 57.0773
20.2675 14.8765 54.2209
21.1873 14.2288 54.3658
23.2666 14.417 52.259
15.9942 15.1423 47.1394
19.6395 13.4917 47.8264
19.7272 16.6367 60.599
23.026 15.2261 58.5285
20.8925 15.0585 51.9307
19.3893 13.144 49.1809
19.9907 14.6559 50.7639
20.0809 14.9924 55.8464
20.315 15.0247 51.1103
18.891 15.5219 53.8609
16.3311 16.3195 58.3556
20.9997 14.4332 54.5778
19.8578 14.1165 55.1238
19.7547 14.8963 51.1799
14.6364 13.6056 52.8438
17.744 14.8901 50.1385
15.5957 14.8577 55.8795
15.0454 15.25 55.2778
13.7185 13.6271 49.3932
16.5213 13.2499 47.2154
14.628 16.1334 56.3419
16.9459 13.7869 49.5025
14.9961 13.6614 49.6509
13.6268 13.3256 51.9855
14.8904 13.9 51.9705
14.5984 13.9868 54.1021
14.5229 16.008 56.5339
16.5607 15.5343 55.5938
14.6236 15.0221 53.9728
14.4505 13.6879 51.2676
13.6544 14.5344 53.2007
15.9214 14.5756 50.9224
15.4337 12.8721 49.8791
15.1954 14.3793 55.1091
14.0942 14.2943 52.601
16.4588 14.6138 55.7513
14.945 12.4757 45.7765
17.2344 14.383 51.654
15.6659 14.5124 53.3787
18.7086 15.1631 56.3169
15.825 14.9661 56.9871
17.6717 15.0843 53.3484
16.2751 12.7972 47.1086
17.4175 13.3233 49.3003
14.9364 13.7859 53.2655
16.2451 12.6513 50.4164
16.9629 15.0215 49.0058
18.1968 12.2334 48.6893
14.2855 13.1745 52.9484
15.9032 14.3058 51.019
14.4867 14.3489 51.1772
16.2631 14.8376 60.8767
14.3181 14.2695 51.0088
16.2327 14.9019 57.895
14.1503 15.3743 53.2491
13.7098 14.7082 52.5446
13.0527 13.7071 53.0444
13.7137 14.344 51.2922
14.7003 13.1331 49.4344
13.9258 12.9554 51.2469
14.946 12.8587 54.5817
13.3178 14.0104 50.0328
12.596 13.4011 48.8059
12.5683 13.3584 49.5516
12.686 13.7893 52.1196
13.9443 15.2764 52.8113
12.942 13.1205 48.5146
15.6427 13.7491 52.0924
14.6771 14.4586 51.1088
13.5393 13.6894 54.9682
13.6773 13.2567 51.7158
13.8741 13.7021 52.6283
13.2413 12.3846 46.8495
13.7018 14.1556 49.2999
14.5688 14.1557 50.3626
15.4349 13.2369 54.074
15.3462 13.1793 54.2099
16.0879 14.1497 51.8874
13.4429 14.4674 54.9881
14.839 14.7931 54.3296
14.1777 13.4439 53.9334
14.5104 14.6363 53.7539
13.6094 14.1689 49.7056
16.5634 13.894 50.0562
13.988 13.8398 52.761
18.1523 13.0846 50.2155
14.1059 12.9222 47.8101
14.9664 12.9215 54.9515
14.4399 13.8881 50.2353
15.8941 14.5249 54.7991
13.3627 12.48 50.9264
15.6996 13.0711 49.9305
13.4336 13.6285 48.4017
15.8681 13.8263 52.6676
14.4123 12.8409 49.7183
15.2116 13.8753 51.7131
13.371 13.4734 52.4182
13.1444 13.3468 49.9721
13.3278 13.0817 48.7464
13.1257 13.6835 54.9134
12.7914 13.6974 52.5271
14.5525 13.4248 51.6638
13.994 14.2251 53.4928
14.9787 14.1271 51.9558
12.5722 14.0619 55.6923
12.9476 14.4275 55.5337
11.9531 14.5225 53.4076
11.5609 13.7521 51.3997
12.8326 14.478 53.6054
13.6476 11.5262 47.4509
14.037 12.6767 46.1913
14.277 13.8616 58.0181
13.6445 14.2526 54.5918
14.475 13.0354 45.6372
11.804 13.6125 51.5054
12.5446 12.9473 51.4202
13.372 13.7532 53.0864
13.8954 12.4864 51.0197
14.7803 13.4258 51.8992
14.1037 14.4946 51.8628
13.9745 13.0015 50.1131
14.0213 12.7674 53.0501
13.5666 13.6634 51.5508
14.1045 12.1098 51.9303
12.6649 13.7904 52.4338
14.2707 12.9794 49.0751
14.7466 14.9163 53.2688
15.4106 13.7922 54.9589
13.841 12.9177 45.8989
15.1905 13.3978 55.7971
13.7499 12.5758 53.7362
14.606 14.1387 51.0614
13.8902 13.585 50.4982
14.1243 13.1738 53.437
13.0463 12.3728 50.1837
15.3082 13.7203 50.1621
13.0353 14.025 56.7665
14.2846 13.2 53.1544
12.2541 12.8968 51.1529
13.9012 14.9296 52.4986
12.4496 13.1916 50.2779
12.1393 13.7951 47.4178
11.4694 12.2493 50.8739
12.4761 12.9156 55.0688
11.5483 12.8749 53.7562
12.555 14.2658 51.3165
11.192 13.3962 51.3074
11.8354 13.2523 48.9627
10.906 12.5978 56.3023
12.5742 13.4585 46.8853
11.049 12.6727 44.4985
11.516 11.1368 49.7903
11.497 13.9908 50.701
12.4846 12.7383 50.6432
11.4885 13.256 48.7735
12.1258 13.17 52.6273
12.9157 12.1739 54.8584
14.6013 14.5375 50.4941
12.3189 12.9552 52.5059
13.993 12.6567 51.8144
13.0024 13.4416 46.4476
13.5869 13.505 52.1095
13.8428 13.6218 56.6158
14.429 14.4061 53.4949
13.4209 12.6434 53.1701
16.15 14.4022 53.5997
16.1016 11.9292 53.6949
15.8983 12.7582 48.0228
12.7916 13.8259 55.7261
14.9096 13.194 46.5122
14.8308 13.2402 53.9324
14.7754 12.9815 55.4219
14.8652 14.0766 55.6159
15.8378 13.9227 49.5318
14.257 12.5126 52.2557
13.9868 14.0274 58.137
12.0517 13.0375 50.338
14.0308 12.6555 47.0592
12.7437 13.1059 50.0245
14.01 12.7752 53.6111
14.245 12.9852 50.9426
13.5688 13.207 51.4751
12.5316 13.3932 49.2959
12.3609 12.2032 50.5377
12.0674 13.1721 49.8641
13.0714 12.7102 49.7278
12.2088 12.4876 50.7446
14.61 13.2465 52.7029
13.4123 12.5154 47.2187
12.6273 12.6414 47.9922
12.7053 12.7021 53.3946
12.2017 13.0023 50.5038
12.7675 13.9077 52.7224
12.9184 13.9327 54.3514
13.3744 13.8488 55.0346
14.8704 13.5011 57.3911
13.0903 13.7265 53.2555
13.0076 13.0295 51.0559
12.2987 12.4118 50.4214
15.3077 13.7561 50.3354
14.7461 12.5251 51.0834
13.5051 12.2732 54.1023
15.4868 13.756 50.0904
16.2321 13.0121 52.6206
13.8756 12.8465 52.6983
15.3022 14.0456 54.0492
13.812 13.8648 56.1428
16.2787 14.8083 53.8692
14.1174 12.7345 50.1303
15.2194 12.4688 50.622
14.0883 11.3892 48.9661
16.0192 13.8519 53.9949
13.5064 13.1564 51.6711
14.5393 13.6956 58.5483
13.8889 14.3594 57.4558
15.678 13.0064 49.2226
12.4549 12.5746 48.8541
15.9569 13.2806 51.119
13.6991 12.2494 51.6719
14.2624 12.4022 48.9237
13.7442 13.2717 53.3559
14.1222 12.5458 47.6074
13.5709 12.3685 47.1752
12.8476 12.229 53.0409
12.5999 12.9234 49.9597
12.9765 11.3435 48.1227
13.3019 13.0162 51.4483
12.4153 13.7428 53.9141
12.8482 12.6253 49.2965
13.7509 12.1227 50.1409
13.9825 13.2051 50.6447
13.6951 12.5417 44.2079
11.6453 12.4081 47.6764
14.1822 12.6815 57.8401
13.866 13.511 48.8306
13.8907 12.5662 50.7179
12.815 13.8046 47.767
14.6403 12.0725 49.984
14.3183 12.7464 56.1015
14.8192 13.567 49.4422
13.5904 11.8943 49.8838
15.8619 13.7965 51.3945
15.4799 11.033 48.6583
13.5829 13.1296 51.0273
14.4891 12.4729 51.8255
16.3205 13.2794 45.0995
13.2168 12.0602 52.6944
16.6035 12.2594 49.0498
13.3103 13.2571 51.7794
16.4224 12.1756 47.9327
14.0871 14.1077 56.3191
16.6403 11.7075 47.179
15.8693 12.4568 48.0148
15.611 12.7309 52.6037
13.4472 12.2936 48.8658
16.1395 11.8417 47.0296
16.1565 12.6328 50.7632
16.4707 12.3232 45.5277
14.3 11.3915 46.8071
15.9263 11.8545 51.6563
15.0432 11.849 45.8361
15.1775 13.1246 50.9389
14.6848 13.2826 52.3187
14.7338 12.7564 49.751
14.4823 12.7014 52.0935
14.4659 12.7163 50.0301
15.2606 12.2405 46.8983
15.4269 11.9919 50.5835
14.538 13.1049 50.9812
15.0255 12.6641 51.7765
13.5068 13.1027 48.8747
15.0362 11.9335 54.2794
13.942 13.5462 50.9632
14.2006 13.4514 54.8022
14.8424 13.9686 52.1628
14.1506 12.0699 53.404
15.0652 12.8681 50.2917
17.3557 12.9371 53.9005
14.8521 13.4931 52.6149
15.3633 12.6019 44.2833
12.9994 11.789 54.419
16.206 12.4306 52.075
16.1023 14.6309 52.1237
16.7977 12.6294 52.2078
15.4117 12.1247 50.7251
18.3928 13.413 51.3074
19.6782 13.0678 50.1419
19.2488 13.4672 57.6775
14.5565 13.8311 53.6524
16.1562 13.9683 58.0135
17.86 13.9038 54.8729
20.5127 13.1594 53.0814
18.8965 13.1291 46.3134
19.3734 0 0