# pn-170911/CsIIF-72-CsIIA-1280-1959.psd
# Power spectrum* (dif=0,1,2) (really just |FT|^2)
# NOTE: only the first half! (symmetric)
# weeks: 1280-1959
# 112 clock-days, 16 excluded
# PSD: 1441
386849 3.13035 0.0356526
6.91838e+06 71.6665 0.511785
5.03865e+07 950.692 0.6517
3.84893e+06 119.841 0.733536
2.03023e+07 1383.11 0.886898
1.41668e+06 128.859 0.739711
1.1312e+06 144.524 0.962164
639376 119.053 0.723382
788570 141.744 0.626876
466325 111.068 1.07979
377446 133.768 0.820005
324937 102.16 0.754245
270585 124.476 1.02209
225952 102.992 0.719452
207706 135.505 0.865772
181486 127.29 0.92416
175784 132.506 0.790736
139368 107.202 0.998273
159806 124.882 1.09692
145908 116.31 0.913468
121341 110.365 0.946179
103535 110.552 1.01263
109086 119.92 0.922084
93570.5 123.091 1.04583
103045 120.971 1.01633
92306.7 111.899 0.975761
89572.6 122.841 1.24678
79407 110.177 1.04011
87825.4 123.324 1.09266
87531.4 139.119 1.17395
76926 124.421 1.05032
66185.9 102.209 1.17262
77219 141.09 1.23404
55008.7 108.315 1.24821
68618.2 111.83 1.14155
59975.3 123.862 1.23433
56985.1 97.8707 1.11881
44234.7 90.7806 1.25178
56486.2 126.787 1.47497
55266.2 114.323 1.57109
53698.4 132.725 1.48886
44880 106.842 1.45754
46846.8 113.751 1.53707
37795.4 113.307 1.54944
40338.9 95.9501 1.62076
44121.8 114.246 1.60951
36395.4 111.562 1.91844
36206.6 105.291 1.57202
35849.3 125.414 1.86758
35012.3 97.3499 1.75699
32405.8 117.281 2.10517
31263.3 104.335 2.28173
24892.5 108.705 1.66169
35832.9 102.552 1.72092
32347.4 131.065 2.09318
28520.8 92.454 2.47809
34138.4 122.031 2.28995
30221.8 119.605 2.63705
35149.5 131.309 2.42201
32163.9 92.0844 2.10273
27059 98.2447 2.23524
27333.8 92.7192 2.04071
26610.6 126.071 2.70381
29133.4 100.979 2.2723
27036.1 110.297 2.66732
25087.3 83.3618 2.0811
25971.1 94.3934 2.35586
22242.9 95.4923 2.50336
21950.3 110.477 2.82443
18913.2 98.5977 2.57639
22296.6 97.355 2.58612
18843.7 101.243 3.02963
18638.1 101.065 2.82111
19628.9 89.8787 2.6163
18103.1 83.8576 2.54503
16340.5 118.654 3.22781
20343.6 96.7248 2.94462
17677 85.6977 3.03163
20200.5 81.8124 2.71989
15833.1 108.499 3.71662
17607 91.6103 3.22732
14240.6 91.1058 3.27008
15516.1 113.026 3.69737
12590.3 84.3732 2.94797
13534.7 80.4463 3.00836
11316.8 101.654 3.49871
11356 77.0089 2.8192
12492.7 90.5097 3.25028
9446.51 82.5676 3.70276
9069.03 73.9601 3.23683
10350.9 86.4565 3.42631
12099 83.1692 3.38603
10013.6 81.6233 3.65081
12080.3 92.5654 3.71625
9761.23 86.392 3.76385
11072.8 96.156 4.13847
9169.88 77.119 3.27199
9434.81 92.7901 4.27464
7847.36 64.8491 3.43585
8755.27 85.0397 4.08599
8491.95 83.638 4.17759
7543.84 86.0881 4.30654
7755.82 82.3569 4.21873
8124.7 73.7079 4.0111
6981.82 85.4737 4.48972
8049.4 79.793 4.11897
8088.53 67.4219 3.84003
7440.75 68.7419 4.04172
6826.22 61.4689 3.60945
7140.46 80.1357 4.70897
5615.9 78.6792 4.3914
6511.87 78.2913 4.80788
6125.4 83.9487 5.46566
5423.97 76.364 4.87006
5607.29 68.9247 4.09254
5098.46 68.3907 4.59363
6022.94 63.1737 4.10171
5427.49 65.9716 4.1139
5521.62 75.0719 4.84565
4368.24 73.7067 4.72158
5857.99 72.0556 5.06868
4544.24 70.6233 4.98304
5135.63 62.8383 3.98278
5269.14 69.0544 4.68583
4497.5 70.8647 5.19032
4372.15 68.3329 5.14582
4641.83 81.5689 5.94801
3539.55 72.4445 5.35411
4257.08 65.0778 5.36785
3477.88 65.0081 5.29986
4114.09 68.5822 5.12529
3580.88 65.5631 5.20989
3328.64 61.9469 4.8361
4190.32 62.6672 5.07834
3376.07 57.2874 5.17763
3231.77 60.9298 5.28212
3812.38 64.6884 5.38306
3302.66 54.72 4.75984
3012.12 64.7557 5.715
2797.61 54.7894 5.39018
3023.3 67.4423 6.65495
2948.56 55.2881 5.00327
2637.97 53.3505 4.71961
2728.18 62.1475 5.66731
2743.92 62.9089 6.34093
2701.31 61.3995 5.9836
2026.02 49.6697 4.73183
2525.7 65.7858 6.62179
2831.79 55.0282 5.47745
2473.21 50.9414 5.26825
2480.57 67.3006 6.9082
2066.27 48.4272 4.86673
2563.2 47.1051 5.05863
2597.41 63.8241 6.8656
2896.39 55.6203 6.34476
2809.38 59.1521 6.3127
2390.48 67.3939 7.33308
2513.32 58.5228 6.88776
2875.39 52.4504 5.9895
2416.7 62.5077 7.20168
2717.24 58.2233 6.99075
2616.59 49.455 6.46774
2837.29 63.3471 7.79765
2388.1 63.2305 7.65162
2394.29 54.6436 6.55899
2592.07 58.0367 7.24781
2540.86 53.8556 7.09421
2513.14 53.9384 7.08143
2975.75 44.9145 5.49988
2488.17 56.6328 7.82805
2607.66 54.3722 7.1331
2424.39 50.3113 6.5621
2631.28 55.5374 8.1933
2229.89 51.5371 7.2274
2708.92 44.8559 6.61075
1947.84 50.1659 6.78185
2633.37 49.7087 6.58376
2559.18 46.9434 7.06836
2176.34 45.6576 6.59975
2748.21 54.0493 7.7254
2748.14 55.5196 8.23273
2360.6 50.9537 8.09101
2396.28 54.6109 8.36099
2749.69 50.7575 7.43443
2035.13 45.7358 6.63231
2498.28 46.2429 7.24188
2045.44 51.2762 8.02023
2384.2 49.2828 7.68366
2270.27 52.9373 8.56299
2334.69 45.2583 6.88279
2298.2 46.4981 8.10188
2395.85 51.7677 8.19291
2100.94 37.5833 6.31842
2687.03 55.2301 9.05426
2609.16 44.396 7.39179
2599.83 43.8055 8.17546
2521.11 43.9567 7.62986
2929.79 40.8321 7.36408
2629.37 50.5676 8.98962
2556.91 46.9621 8.81061
2668.83 44.7779 8.32949
2648.17 47.4735 8.55384
2448.05 46.9538 8.55457
2352.19 44.0036 7.81986
2508.22 39.324 7.49735
2360.53 50.0451 8.71382
2407.26 45.4713 9.07858
2606.13 42.3499 8.0684
2460.58 35.477 7.05442
2310.52 43.4834 8.07389
3222.41 38.9955 7.92581
2506.19 44.0024 8.40519
2688.16 43.0396 8.29942
2295.44 41.8715 8.36686
2670.78 41.1789 8.27073
2687.26 39.4431 8.88045
2773.43 47.3157 10.2529
2393.36 39.7207 8.31517
2621.56 42.5213 9.04371
2523.18 41.3745 9.558
2527.54 45.4409 10.0487
2627.04 41.3296 9.38141
2621.72 39.4689 8.5687
2772.3 47.4652 10.488
2727.74 42.1133 9.19001
2749.01 39.5698 9.06511
2484.75 42.9219 10.0923
2630.22 40.6224 9.94197
2355.51 38.9059 9.16701
2710.85 38.9805 8.95136
2705.35 37.1076 9.83664
2625 38.7978 9.79606
2574.84 37.4625 9.08185
2542.37 37.249 8.69549
2224.07 37.3143 9.45504
2305.34 34.7915 8.86358
1809.95 35.6326 9.39272
2066.05 37.137 9.33285
2481.68 37.9145 9.98436
2454.76 38.2015 10.2657
1845.57 40.4682 10.971
2478.51 49.948 13.2391
2423.63 34.9092 9.70112
2196.11 34.4571 9.44077
2197.75 39.6823 9.94547
2118.08 34.266 9.58641
2072.32 32.987 8.888
2171.8 36.9789 10.7599
1785.42 38.5909 11.1499
2160.48 38.5418 10.1182
1978.68 42.5696 11.7639
1728.92 38.2478 11.4537
1806.46 36.5543 10.4331
1726.28 41.6901 11.6122
1796.86 40.6077 12.3151
1577.93 30.6929 9.32786
1672.59 32.1079 9.65755
1803.73 31.2574 9.72631
1837.41 40.262 11.9143
1538.64 32.6217 10.4109
1608.22 37.267 10.9542
1547.99 36.9842 10.9426
1455.22 37.1918 11.1426
1488.25 31.0256 10.1573
1367.31 36.6538 11.3052
1493.65 40.9332 12.4265
1412.35 34.6482 10.6208
1556.41 33.3138 10.6901
1561.14 31.8246 10.6847
1609.09 34.2709 11.0424
1583.33 35.2445 11.0551
1559.39 38.0742 12.7819
1248.94 31.1774 10.8204
1366.12 37.4674 11.3654
1423.06 36.4497 12.825
1142.19 34.8154 12.1909
1328.7 40.2851 13.2861
1221.17 35.6237 13.0147
1283.26 39.2916 12.8072
1225.74 39.8009 14.3324
1008.63 31.8947 12.1349
1060.93 31.8703 11.8562
1245.33 27.142 10.0007
1154.98 35.3227 12.1476
1713.19 31.4546 10.9493
1260.43 32.7988 12.233
4622.74 32.8284 11.7289
1860.41 27.9925 10.6285
1099.06 34.8234 13.53
1698.44 36.0821 12.96
5619.87 37.4146 14.3989
1563.99 29.2494 11.0908
1882.48 30.5963 11.9717
1063.85 33.3523 12.7785
957.175 30.9282 11.9553
950.301 27.2325 10.9104
1194.42 36.0944 14.5389
753.333 36.7831 15.1261
1261.59 33.6425 14.4505
852.346 38.0226 14.5213
804.293 32.3946 12.1053
884.765 27.5172 11.116
742.147 31.9448 13.1164
1053.52 30.0539 11.9751
957.338 33.663 14.2702
1041.49 34.3157 14.7162
929.405 37.3351 14.8064
1054.13 32.6021 14.2091
1057.56 27.8572 11.0071
1185.93 30.8961 13.617
1096.58 27.4568 12.182
921.551 37.0075 16.5087
1020.1 29.1176 12.7868
1206.98 31.8056 14.5793
1115.59 33.5698 14.0403
1149.44 33.9761 15.2217
1176.35 32.1875 14.2521
1116.84 31.3388 14.6801
1263.24 29.6149 12.8952
818.161 32.0161 14.5949
1009.31 28.7305 13.4617
869.566 32.2385 15.1292
929.467 33.0319 15.1341
917.353 33.8431 16.6524
901.889 34.7536 16.5954
998.559 28.4482 13.6112
906.151 31.2665 14.9881
953.982 32.0562 14.8351
967.284 28.5114 14.0564
1008.69 31.9773 16.2218
1085.85 25.7677 13.5826
1246.64 27.6622 13.143
1087.33 30.9926 14.8845
1011.67 28.0104 14.7609
1070.03 28.3985 14.328
1254.72 31.1678 15.2525
1044.9 30.3112 15.3425
1142.17 37.6738 18.8579
994.084 37.5654 19.1755
1114.77 30.9006 15.5613
1155.08 32.8381 17.7613
1246.59 30.714 14.4695
1083.41 32.6954 16.7506
839.251 28.3652 14.8671
1266.67 26.1516 14.5733
1309.1 27.6662 15.0726
1478.56 28.2945 14.5708
1165.71 28.231 16.3843
1155.29 27.7471 13.8122
1122.92 24.8717 14.6266
1194.73 29.8112 14.7378
1375.62 27.0125 14.7144
1196.3 29.1225 16.3068
1456.73 22.9841 13.4171
1241.54 29.344 16.4048
1135.15 27.9216 15.9238
1305.33 27.1679 14.5604
1088.16 25.9541 15.4889
1222.43 25.8655 15.3102
1338.72 29.2219 16.3993
934.333 26.0337 16.3018
1283.84 27.729 16.5053
1232.13 27.9546 15.8943
1247.3 31.0047 16.2304
1313.14 31.7851 19.7842
1311.06 25.3418 14.4571
1219 26.0045 14.5603
1342.1 31.2651 18.6657
1214.87 25.6862 16.8785
1306.93 31.6696 19.6576
1282.24 29.5649 18.8199
1085.95 27.2247 16.5142
1111.54 32.2204 19.0255
1233.59 37.4688 22.3314
1108.5 29.1222 17.5581
995.395 29.2119 18.7364
1107.3 28.0301 18.0839
1102.6 31.9501 20.2515
1122.17 28.7882 19.1012
1270.88 23.3173 13.7865
1193.5 28.6641 19.2231
1088.44 24.4461 15.6236
1178.17 26.6588 16.5029
1025.95 28.0827 17.5273
1146.17 25.0409 16.7991
1061.09 24.9771 16.8719
1147.36 33.3859 20.7743
1031.84 22.9662 14.3688
987.43 33.1649 21.7874
1006.48 29.6976 19.0812
1096.69 28.0077 18.3758
978.416 32.1142 21.8533
880.573 27.2607 17.8894
1282.57 28.5113 17.312
1118.02 27.1788 19.1027
1060.08 25.2158 17.2686
1020.24 26.6453 17.6867
1043.77 26.8285 18.0251
978.353 30.4445 20.9865
1029.86 26.6072 18.3421
965.285 30.7843 21.412
838.08 29.8043 20.6946
909.717 24.745 17.5895
944.714 30.0076 20.6319
838.415 26.8844 20.6254
1122.38 28.0174 19.1078
1011.73 27.521 19.6568
1016.28 27.1215 20.8177
1062.82 25.8923 17.586
856.053 29.1225 22.6162
781.799 27.747 20.8741
1019.18 25.9897 20.0156
838.737 29.7662 21.6656
917.688 22.8138 17.119
705.382 25.4267 19.2103
623.246 23.8997 18.5619
711.481 24.1174 17.177
718.354 23.6028 17.202
822.114 28.4923 21.8472
705.513 26.7708 19.7847
661.318 27.263 21.447
751.437 26.3415 20.9962
794.962 27.6096 22.6191
715.942 25.2616 19.9072
893.02 27.4051 20.3075
820.454 31.902 23.7104
735.74 28.2981 21.9572
682.871 30.2209 23.1346
769.33 25.7612 19.2218
592.097 26.8466 21.74
692.6 23.7272 19.829
707.927 25.9342 21.916
715.581 28.5882 22.4469
634.303 24.2739 18.2902
590.274 26.311 20.1281
716.532 22.2719 20.2238
634.675 30.1761 24.73
691.538 26.2936 21.0981
675.032 27.6729 21.3328
576.108 23.9551 19.5343
686.056 28.3833 23.3847
800.658 25.2186 21.4355
619.583 23.8993 19.1808
707.119 25.9026 23.404
635.57 29.2069 25.5373
616.453 23.2199 21.0858
598.491 25.55 21.3852
516.166 22.9883 19.2868
653.159 21.9393 18.1785
476.551 28.9141 24.6983
635.71 23.3526 21.1637
644.036 21.1335 18.8644
550.885 28.7213 24.0785
638.786 24.2241 21.5333
628.018 20.6131 19.5354
561.1 18.2446 15.3347
598.11 24.7568 23.6561
459.783 28.9601 25.7306
675.209 23.4889 20.0818
624.948 23.1815 21.4133
501.455 21.061 18.0243
528.442 26.0564 23.2645
614.571 23.4454 21.6779
548.322 28.5015 26.4445
596.183 23.3593 21.6878
653.64 26.7661 24.4211
597.243 22.8555 20.8651
533.798 27.9449 26.4724
615.153 24.008 23.7073
606.315 25.7199 24.6209
522.412 26.2363 24.9174
752.094 24.109 22.8154
500.638 23.8623 23.3565
521.344 23.2705 21.051
626.355 22.0741 20.8984
501.846 24.4333 24.2612
505.678 23.9884 22.021
587.424 21.731 21.2334
528.189 23.2138 21.9399
551.827 23.3492 24.5757
556.742 25.4906 24.2229
579.34 27.8828 25.3174
730.435 24.9066 23.4856
556.01 21.957 23.4583
607.53 22.0055 24.201
707.873 32.2946 30.0936
644.658 22.8868 24.764
534.355 24.0933 23.0005
552.182 25.5394 24.1138
623.211 24.3687 26.495
585.838 23.8676 24.6655
692.716 24.5794 25.3124
583.034 27.1092 30.3161
641.526 26.7162 25.3828
678.973 27.3456 27.0678
598.249 22.958 24.6795
768.596 27.3233 30.7342
632.897 24.8313 25.3897
642.791 24.7136 23.878
832.583 25.2686 25.8623
625.225 21.8614 25.4637
626.343 23.0489 23.5148
734.343 25.5656 26.3707
651.722 23.1913 25.7091
666.499 23.0677 24.3285
606.902 21.13 22.225
674.681 25.6374 28.6575
646.283 22.7544 25.7616
631.286 19.9985 23.7583
623.357 24.9568 23.8753
694.083 25.7647 29.3141
573.91 25.0966 25.2067
606.625 19.9372 21.5144
674.37 22.6341 24.852
716.235 21.8666 25.4478
668.058 24.5805 27.9289
675.795 21.9986 25.1684
669.819 24.0138 24.7151
738.81 23.0838 27.3744
684.06 20.9541 23.8221
736.926 19.9296 22.1547
687.531 20.448 24.6034
615.224 25.5865 27.288
713.488 24.9345 29.8425
671.144 27.7264 32.1721
761.896 28.6892 29.2412
586.441 21.3958 26.9486
818.943 19.9629 23.7095
661.222 24.6558 28.1192
756.32 19.0843 21.8515
644.098 23.7867 26.3014
833.669 21.2094 27.0463
781.006 21.7979 25.9686
619.753 20.7488 25.0735
770.157 21.5287 26.2453
640.941 22.1975 26.6641
699.216 23.3981 25.652
718.079 23.521 31.5032
649.863 24.016 27.5054
583.412 22.792 25.0287
774.793 23.3299 31.1288
683.274 21.5619 25.122
653.258 22.8193 29.0594
546.454 24.1227 28.2718
630.501 24.3096 29.714
662.24 23.9945 29.7595
707.142 21.757 26.4609
497.221 18.3191 24.3826
466.276 20.495 25.4492
566.485 19.6022 25.6887
588.06 19.3113 24.8052
480.906 27.6816 32.4873
633.475 19.6424 24.6087
566.269 21.6775 26.8934
459.425 20.4432 27.1711
504.409 26.8459 31.0539
497.254 18.4845 23.7455
574.632 25.3755 30.3011
472.904 22.1371 30.4424
433.157 23.0711 29.7562
527.169 21.7998 27.308
540.484 20.4157 27.7077
480.692 19.722 24.5693
518.022 18.1791 25.5196
584.737 19.8534 25.8908
520.002 20.2705 26.4901
474.432 20.7001 26.787
499.538 22.5378 28.21
580.201 19.9544 25.645
535.973 22.1332 30.0164
544.725 21.5421 28.1682
435.131 24.0905 34.1883
529.911 21.0557 28.4464
475.503 22.3002 31.9663
536.708 22.9063 28.7452
593.677 24.5335 31.8847
472.148 21.4464 30.3421
589.528 24.2787 30.3935
690.18 21.811 34.2135
545.737 24.5311 34.9808
456.817 21.9407 29.9954
453.224 24.5695 31.531
438.944 24.7327 34.3889
353.247 22.2553 28.5667
376.463 19.3748 25.043
395.613 19.5672 27.4928
430.761 21.6761 28.5043
351.745 23.4153 31.8813
428.012 20.2765 27.1999
431.72 23.9532 34.4179
392.478 21.5864 28.565
347.566 20.5142 28.3524
421.759 23.8495 33.7284
387.297 23.1101 35.9169
359.932 21.4865 31.1317
394.237 21.1288 29.0135
444.149 21.3981 32.569
417.49 20.0634 29.9223
397.767 22.0551 28.9414
289.585 18.1801 25.4427
430.038 17.3073 27.1979
518.219 20.5865 28.1416
354.762 21.4951 29.8499
439.502 22.3551 34.7183
379.85 17.9294 27.0473
337.922 21.9053 31.5607
353.179 21.0698 32.4007
392.122 20.852 29.3751
387.994 21.4939 32.5352
352.693 20.2323 31.5619
343.323 20.873 29.7289
354.262 22.3261 35.1781
424.527 20.4811 29.3778
317.982 21.5747 31.6774
482.185 25.0946 38.5238
398.153 19.1868 29.4518
402.837 18.993 31.6336
396.07 21.5561 31.9522
363.973 24.3369 36.9226
372.233 19.9092 31.4494
342.308 20.1031 31.0892
363.107 17.0298 27.3088
452.589 19.1356 28.375
360.502 19.4119 30.5641
378.909 20.0152 32.0025
365.582 20.4101 31.6462
399.931 20.8707 31.8438
403.85 20.7394 34.0088
383.477 22.2858 35.7911
478.309 19.8445 30.2496
413.339 21.0572 31.8505
356.819 23.3885 37.6812
407.286 19.4741 32.0589
451.503 17.9888 29.2935
371.668 19.2513 29.9149
434.588 19.2332 30.8055
400.835 15.1189 25.9946
489.969 23.2901 35.4515
356.077 19.8567 32.7528
372.498 21.9606 34.2051
431.672 16.0909 28.3519
404.916 19.5979 32.0217
363.69 19.0704 31.3682
366.051 20.0149 34.8046
388.809 23.3395 37.8079
383.718 19.3617 34.0735
407.048 21.123 32.1098
411.124 21.2845 34.3215
376.764 20.9235 34.3079
406.904 23.9509 40.622
465.948 20.9214 34.372
435.708 21.6626 34.0116
502.867 17.9416 30.2771
491.598 20.0361 33.5747
481.782 21.9932 39.4948
427.476 21.5085 34.3303
433.468 19.0387 31.5752
550.834 19.8458 35.9261
474.988 18.4632 33.0325
390.595 22.3189 36.4124
434.313 21.158 35.1984
347.878 19.0645 33.6504
374.723 18.199 30.8144
412.902 19.4988 34.9156
381.987 20.7731 33.9739
384.864 20.143 33.4039
416.419 16.7098 29.4225
420.767 21.6849 34.4583
397.763 21.4697 39.9998
455.453 17.8185 34.5387
478.919 20.8342 32.1979
376.697 21.7977 37.7613
539.09 19.8164 32.3109
425.018 18.4199 33.2545
448.101 20.4949 37.5828
413.782 16.6258 29.7114
429.396 21.0958 37.3882
490.072 19.6615 33.8589
423.213 18.6837 32.2104
491.925 17.5463 32.9992
413.614 18.2725 32.0927
468.381 21.2854 37.0687
472.088 19.4599 37.8536
404.294 23.4189 40.0161
403.576 17.1736 32.902
454.594 19.1249 34.7528
441.994 21.7824 36.9892
393.469 20.179 34.7987
381.334 17.526 33.667
397.833 19.0121 34.5118
426.44 19.8 36.941
434.987 18.8249 34.0114
366.263 20.3362 38.0189
456.846 19.6306 35.2168
396.546 17.5801 35.1237
397.819 20.0708 37.4496
454.278 20.038 37.2315
441.929 22.2678 36.9089
409.122 17.1422 33.1593
450.272 18.6102 35.0544
426.55 16.4765 33.1458
458.681 17.7548 33.7384
380.593 20.1796 36.9262
388.996 20.595 41.6415
315.137 19.0419 35.5788
359.794 18.5768 35.7132
357.228 18.6363 34.4268
310.554 20.1389 36.786
315.452 19.6802 41.3614
349.364 21.2274 41.5127
359.276 19.9004 36.8613
303.927 18.9209 37.6545
350.19 24.4585 43.2381
315.178 20.1681 40.4221
358.422 17.4619 38.4622
340.811 21.6148 36.0502
395.867 17.4003 31.2212
381.202 18.1039 37.4156
412.984 19.3242 37.141
304.165 19.6845 38.1106
346.207 22.0407 44.7926
330.918 21.068 39.6858
248.394 17.1596 34.3403
252.968 15.032 29.6781
345.583 21.0558 41.7761
285.762 19.8176 35.8102
341.57 19.4394 39.7156
291.201 18.576 38.8965
347.278 21.5286 41.5192
311.605 16.5887 34.1163
348.976 19.9288 39.0769
328.429 15.0885 36.749
422.239 17.2875 35.233
371.621 18.8094 32.956
296.48 18.166 36.3419
291.363 21.3244 40.1369
310.839 20.5306 45.4142
322.163 21.2735 38.9525
308.136 16.1366 35.3101
269.101 17.5177 34.788
295.38 19.6238 38.8671
308.818 20.2039 44.7242
323.287 18.0053 35.5267
299.512 19.7694 43.8869
339.451 19.4762 44.1578
282.088 21.1056 40.2204
282.419 18.6755 38.8144
283.742 17.8149 35.495
312.868 18.6203 37.0137
238.519 21.3969 43.3863
334.614 17.0105 35.0528
240.718 17.0879 40.6951
272.794 21.7121 42.2721
215.129 16.1986 35.9287
353.681 16.115 36.6215
277.652 18.3201 34.6635
215.739 20.022 46.4612
257.905 19.8269 40.8461
261.815 17.9631 38.9447
234.858 21.58 41.2924
211.355 17.4912 35.8468
224.827 15.8082 34.8881
186.3 20.8352 42.8716
230.692 18.3251 39.1878
279.884 19.1738 43.0463
272.482 16.9047 36.8451
239.706 17.5121 39.162
250.985 18.3741 40.0712
303.263 17.9477 36.8622
316.093 18.9823 46.7866
282.124 15.9978 33.5045
255.27 19.5564 40.9629
289.804 18.7945 43.1864
302.283 18.6431 35.9481
310.448 15.5862 37.4615
307.498 17.5605 41.0543
282.157 19.5367 40.3196
255.673 19.0961 41.145
241.411 16.7627 40.0521
270.639 18.7561 39.8202
267.815 21.4468 43.9818
237.122 19.2523 42.0309
291.736 16.0425 35.4732
269.644 16.6162 37.7326
318.356 15.2937 39.4577
270.85 21.8758 49.6904
308.356 22.8997 52.0206
272.475 19.8834 40.0704
309.48 19.4078 44.9042
314.316 18.5249 38.8462
349.096 18.1673 43.9231
302.243 21.701 45.4208
336.003 18.4129 44.5618
377.182 17.6629 40.981
326.706 17.5835 41.6114
329.676 14.568 33.2487
318.164 16.7175 37.4926
296.163 18.7066 39.3971
359.679 18.248 40.2541
365.599 16.5944 38.275
303.668 17.5711 39.1282
315.646 20.0763 44.9295
313.987 16.7055 40.8844
283.657 16.8813 35.7293
299.095 17.136 41.3791
285.728 18.9932 39.1113
340.136 17.5087 43.6914
315.658 19.4497 48.11
313.236 17.391 37.703
310.911 17.3901 39.5863
294.081 17.7843 40.4211
298.993 18.286 40.42
277.099 18.1544 47.276
271.533 17.5132 40.2442
328.831 17.9712 44.7442
311.215 14.9855 31.7482
282.821 17.5783 45.3585
257.515 16.7408 40.0528
296.906 17.5465 40.234
350.769 16.5003 42.4812
367.928 18.1957 41.6145
352.661 17.3952 37.8932
302.859 14.4391 38.464
297.281 14.4524 38.2021
330.49 18.1191 41.7298
365.093 19.0224 40.5183
326.727 16.2964 41.1065
327.528 15.9374 39.7941
387.432 14.0639 33.4872
289.665 12.8711 36.2198
314.374 19.3686 40.8189
340.695 15.4948 39.0457
321.969 19.4218 42.519
334.915 15.3526 39.7969
326.617 17.9966 42.5285
256.765 16.4579 38.6636
318.48 16.9088 45.5373
304.835 17.6312 43.9054
270.825 16.5641 42.3249
287.643 17.5865 39.524
297.138 17.1522 38.7548
377.964 16.4253 42.9977
267.564 15.8386 39.4902
252.418 18.5644 41.46
305.937 15.4983 37.8783
331.015 19.5075 52.0257
266.079 15.9582 40.7616
290.673 15.4394 37.5227
283.85 19.9219 45.3497
284.003 15.071 41.7015
305.817 17.9171 50.3225
304.803 17.3131 36.6489
285.983 17.1417 43.2549
310.893 18.7847 48.564
336.618 18.5836 45.8597
295.133 17.8204 44.3653
333.081 19.4164 43.6467
291.154 17.0045 43.2803
345.963 15.5909 44.441
312.251 17.5886 44.8017
380.917 17.4926 46.4568
330.267 17.9039 48.4935
449.89 21.2993 49.1955
374.994 17.5298 46.5626
379.457 17.2307 45.201
375.95 20.6777 50.4
419.437 17.9445 46.8931
341.868 17.5361 45.7384
333.981 15.89 39.3216
289.102 17.0112 47.6615
342.686 15.2744 36.2729
225.291 17.7847 44.6598
253.058 20.4143 49.5994
216.746 17.497 48.9186
252.653 18.3988 40.1007
237.306 14.4823 43.2896
235.936 16.9589 44.0027
227.388 20.557 57.3427
220.803 17.4981 42.7658
275.927 18.2762 45.293
190.098 16.0129 45.0002
182.293 15.2178 44.7953
250.511 19.2443 46.9419
185.681 18.4993 51.1646
215.437 19.293 47.1225
178.018 18.8276 53.393
193.208 16.8138 43.8616
205.399 19.3547 47.382
262.699 19.2602 56.5355
217.467 19.8099 49.2196
189.081 16.6297 45.6102
192.206 17.6861 43.6372
185.75 15.4344 41.6021
205.221 15.0322 42.69
247.489 17.2672 50.6299
258.807 19.5754 46.1561
238.724 16.8277 45.7539
220.389 17.4284 49.0588
254.001 15.8569 41.6428
229.909 17.5465 48.7569
236.288 16.3413 49.3675
203.202 16.3454 41.4426
227.676 19.0179 48.4314
246.161 15.7134 42.4954
213.668 15.1585 38.8456
248.456 15.6542 50.5085
203.381 15.6764 42.8485
177.421 17.4536 47.5917
218.918 15.6446 43.1945
154.946 18.7336 51.5592
243.031 16.6143 44.7958
233.707 17.0577 47.1178
195.719 16.006 48.0647
182.705 16.7624 43.1158
241.722 19.0452 48.3146
201.03 18.4002 48.0101
257.494 15.264 45.7076
231.27 18.6061 51.428
249.458 14.8876 44.9954
233.868 17.3439 49.9649
287.012 16.5445 45.0121
207.577 16.6386 45.829
214.986 14.9977 43.7531
205.149 20.3591 56.1728
153.937 17.4125 43.5384
241.374 18.3218 50.2266
199.498 14.433 46.2299
190.471 14.9142 46.1543
194.889 16.3315 50.2617
229.404 17.3208 45.3238
162.408 17.2843 51.297
186.972 17.472 45.8273
237.271 17.1427 45.2787
187.281 18.0467 51.3564
259.685 14.8182 50.1618
227.902 15.0284 42.7962
238.028 17.5304 43.2957
241.625 15.5143 49.4236
222.642 15.1894 46.0959
239.168 16.8906 46.8156
214.946 15.0297 48.0371
235.863 18.2385 50.8412
223.171 18.9517 56.8592
252.362 19.0565 45.7076
200.744 19.9913 57.9475
226.535 19.7262 61.7298
319.063 18.1173 51.5103
247.111 16.7554 45.4614
236.369 14.8691 46.6472
230.524 16.3769 49.4552
227.295 15.3352 44.3709
231.729 14.5214 36.3512
248.593 15.7941 49.1238
202.186 17.5858 52.825
217.66 16.9647 53.9554
239.183 18.6529 46.7556
273.665 18.5519 53.2727
245.293 14.1715 48.0227
244.66 19.3803 50.9183
214.749 16.3145 51.9915
250.587 16.2586 49.5229
235.383 14.9099 48.9922
249.04 15.9519 43.0893
288.306 17.1259 41.5605
255.179 15.1859 48.9729
246.798 16.8304 50.9454
265.139 15.9731 52.9419
261.414 15.5778 43.3569
257.399 18.98 49.732
231.902 15.8705 50.1358
253.908 17.776 50.0947
286.28 18.1955 61.8923
277.326 17.8648 48.8104
252.047 16.9317 49.0614
237.559 18.5609 59.1458
249.931 14.9954 48.0307
248.238 16.9517 47.0502
221.935 15.4993 42.6711
244.591 17.9374 53.5453
243.353 15.8203 52.1566
260.659 16.7512 55.3207
257.309 19.0398 49.5733
296.682 16.6633 50.4727
281.955 16.5393 53.1224
243.119 15.6251 47.9141
265.507 15.4432 41.5872
281.193 15.3362 50.8326
294.955 19.0575 55.9649
263.144 16.96 54.1764
340.433 16.5819 47.391
233.211 17.2227 58.3567
266.69 16.6446 44.5141
254.16 13.9093 42.6806
193.516 16.2895 48.1708
211.279 14.6808 44.3897
195.95 16.8608 49.2121
223.106 15.7287 54.7275
256.139 16.9996 55.1554
241.585 18.5127 52.8254
187.977 15.987 52.1429
248.823 14.5417 43.765
213.85 15.9101 49.0203
255.644 13.859 45.8971
249.695 14.8847 47.8333
271.042 16.4736 50.918
239.879 19.6161 59.9527
293.29 19.4201 59.895
231.953 18.5841 52.4791
281.53 16.4133 55.329
229.573 15.2214 52.9303
261.597 15.1704 50.0571
214.556 14.3272 40.8826
235.44 12.7586 41.2233
221.411 15.2095 44.6926
243.883 14.5593 48.5086
259.368 15.3145 48.5422
245.871 16.5508 56.0576
228.983 20.4143 56.7407
194.908 18.8974 54.9553
267.783 14.7623 53.6081
265.934 18.1577 57.4523
209.584 20.9898 59.163
221.136 15.729 49.1533
260.013 13.5589 38.2683
229.11 14.9844 47.759
203.705 14.1633 51.9542
279.91 14.9329 46.9023
233.439 15.1285 47.178
212.767 17.0127 58.0251
187.72 16.6847 49.5597
233.451 15.9311 46.799
169.238 16.5113 54.9771
214.009 15.9317 59.3591
193.51 19.168 52.2701
226.727 13.7506 50.8335
240.697 17.8267 60.3227
181.139 18.8805 52.0466
212.48 15.2525 48.0678
214.34 15.7949 53.8034
208.664 15.3629 51.8023
216.443 17.27 52.7938
184.133 15.0209 52.2768
165.253 16.2789 52.8339
192.366 15.9365 51.975
172.866 14.9111 46.2721
190.542 15.781 51.4052
193.271 14.9975 44.6464
159.238 16.6456 56.5145
180.857 15.9786 57.6935
188.96 14.8446 44.696
177.974 17.1599 52.9898
180.674 16.0593 57.1081
205.612 15.7211 49.5076
180.1 16.4055 60.679
189.61 16.0854 48.1194
196.753 14.8323 49.4919
225.298 14.973 48.7444
172.631 15.0394 48.7707
194.561 17.616 50.1829
174.667 15.0976 58.5889
175.773 17.4234 51.3596
210.505 14.3928 49.0181
205.613 14.7614 55.5779
202.766 16.9485 51.917
167.856 16.6729 48.469
159.094 14.652 51.5946
191.022 15.8295 51.1287
155.089 14.8169 55.6656
155.144 17.4247 58.1289
164.921 15.0717 48.6725
211.477 14.9282 45.8954
171.211 14.4924 51.6337
196.701 15.0769 48.1402
143.619 17.9168 66.9505
193.309 17.5579 51.2177
184.838 12.1271 44.3466
187.74 13.9929 46.7386
202.289 14.0112 51.1114
198.232 18.3424 55.8733
197.806 15.0024 53.2145
227.292 16.8578 52.3507
207.786 16.379 55.4577
220.833 14.7056 53.9257
180.247 16.3497 55.12
191.207 15.9394 48.5519
181.4 15.594 49.9942
206.409 13.6866 54.7268
183.998 15.7752 45.3727
182.633 14.0301 53.1806
152.127 14.8256 55.884
216.44 16.1645 43.0907
183.773 14.5361 52.4893
226.42 16.3961 59.46
198.734 15.6741 52.0327
223.334 14.4847 51.5492
195.917 16.3846 44.6147
194.042 15.7544 55.6286
161.618 17.033 54.9108
215.399 15.1975 49.2965
187.278 14.7769 52.4186
186.341 14.0669 47.6871
164.66 15.0011 60.6882
204.713 17.8895 49.1539
169.207 13.1176 51.5812
202.944 15.0592 51.2607
163.342 19.2072 64.143
164.737 15.0355 52.6641
183.923 17.1158 63.4592
180.06 15.0815 52.9404
204.853 14.8982 52.2136
189.425 16.2627 51.9252
203.275 14.5199 43.1793
188.513 14.2669 54.1482
222.135 13.6708 51.0137
212.713 18 55.7785
173.675 16.3807 53.3246
196.646 14.6819 48.1753
196.046 15.7364 54.901
202.668 13.8454 51.4231
196.326 15.7945 56.1654
210.667 15.5863 50.8029
246.092 17.2863 56.2076
213.932 16.2268 56.6154
168.252 14.5513 59.5059
233.594 16.0075 48.4926
205.208 14.7188 51.9947
222.895 15.7664 60.4521
218.882 17.3201 64.3868
231.268 19.6993 58.1202
205.569 12.3159 47.3564
229.931 15.4143 56.2499
241.469 14.7937 51.3962
222.346 15.2582 52.7916
201.65 14.667 50.4385
178.653 16.2174 62.9848
194.614 18.0168 62.293
222.94 15.5055 53.7997
186.405 16.5484 49.5102
245.324 16.715 58.7664
182.401 16.932 62.6293
190.583 13.0394 45.7636
239.955 16.1422 64.0415
231.913 14.2404 48.0857
174.853 13.3651 47.6469
227.547 15.7347 57.5681
198.82 15.6079 55.6452
229.587 16.6298 57.4052
265.013 14.49 52.6065
307.76 14.6516 58.2668
261.099 16.2044 59.4578
369.683 15.0434 62.5057
377.636 17.3889 52.4776
346.323 16.4644 55.2808
340.434 17.3956 65.7159
354.289 17.137 52.6252
252.653 16.5289 56.2668
276.665 17.1113 62.5057
251.589 17.3855 63.323
268.076 16.4357 60.8747
216.467 17.4871 55.4253
194.324 15.623 60.725
253.868 16.0314 56.7289
211.599 13.128 55.6951
212.843 16.0088 54.2314
186.484 15.768 53.8424
182.012 16.8893 58.335
190.49 15.2632 61.133
207.955 15.7243 56.3765
231.255 15.4618 52.4648
219.258 14.0228 51.1279
164.741 15.3704 57.6501
203.972 17.1363 59.9482
167.866 17.3009 56.001
170.72 15.194 61.2274
188.292 16.3867 48.0593
158.555 15.6962 54.9264
201.24 13.1309 50.8898
142.929 12.8623 55.5361
174.834 13.7916 51.953
161.085 17.1049 61.0488
166.068 17.5748 65.7686
158.568 17.0947 57.836
195.185 16.7623 54.4666
191.656 13.0425 52.2368
133.889 13.7989 53.0489
203.176 17.5372 61.1697
135.696 15.7427 53.9577
142.2 14.1676 55.3376
197.592 17.0415 60.8814
150.224 14.904 59.0088
179.165 15.8277 57.2034
147.544 14.5227 54.3946
186.915 18.095 63.3073
216.407 13.32 56.4085
152.272 13.8271 51.8997
154.221 16.3842 53.7166
176.99 16.3701 56.7492
121.748 14.0914 53.8754
172.193 16.2636 61.6158
148.819 15.1952 53.4157
155.198 15.5657 59.041
184.507 14.3653 44.7346
170.297 15.2223 61.9279
141.897 15.1623 60.4382
134.524 17.2156 56.3143
150.67 15.2869 56.2792
148.367 19.2169 64.0923
160.979 17.3442 62.7405
182.313 14.9771 61.9169
141.216 16.3751 52.5131
135.952 14.5347 56.7984
129.708 18.9826 70.9706
174.535 14.532 53.2726
122.765 15.1234 48.904
171.517 15.2953 60.3056
178.639 15.9797 45.839
144.988 13.5979 66.3534
153.911 19.3681 66.4151
175.035 15.6764 55.1381
167.627 13.6006 49.7322
186.459 16.8836 60.7549
149.684 15.0951 58.3986
196.667 14.1897 51.7256
165.033 15.3843 57.4747
163.711 16.3234 59.0132
202.378 15.876 69.5501
158.572 15.5964 56.8437
170.525 17.3288 63.7922
148.951 16.9473 63.1704
204.192 15.659 56.274
143.375 15.5088 48.3577
175.425 15.0289 52.7038
177.045 13.1513 50.2174
176.209 12.7159 48.3914
168.164 14.5533 53.9608
156.086 13.4459 60.623
170.252 13.6276 59.3571
178.45 15.6749 61.0655
150.439 19.2518 55.5093
167.663 13.8662 58.6521
160.626 13.1149 53.4291
145.689 15.2437 55.0462
157.557 14.6178 55.0509
148.561 16.6155 52.6426
200.262 13.2472 54.2477
156.345 17.438 60.526
177.709 13.221 53.7797
153.4 12.7199 50.9687
214.453 14.1758 49.9816
184.964 13.1536 48.6925
203.458 14.3731 52.978
215.944 15.5993 66.3358
198.723 15.7643 49.0981
173.146 14.6979 50.647
174.934 14.0473 53.4366
245.667 12.4213 50.1315
211.005 13.7437 51.334
202.126 15.0057 64.5716
237.096 21.5565 67.183
215.836 15.0424 66.945
184.561 17.3929 54.3159
184.28 11.0977 52.0006
186.168 15.2226 51.6995
210.227 16.6333 57.2899
193.911 14.0293 49.6024
194.921 14.7808 55.9331
213.094 15.3492 58.16
178.843 14.7906 57.4576
218.82 15.4075 59.1644
209.842 13.6164 68.3063
209.623 18.2551 58.7185
211.91 15.0341 53.8799
203.171 15.1729 54.8701
186.35 14.0068 56.1713
172.126 13.1346 51.4974
183.39 13.2637 55.643
198.728 14.2794 52.9436
204.306 16.0741 66.3052
226.561 18.8224 69.4263
210.801 18.7448 67.569
205.841 16.2547 60.0541
169.962 10.6328 57.1005
211.308 13.7841 47.4975
180.7 17.0509 65.4091
220.593 15.012 53.4471
228.291 16.3029 70.5635
183.64 15.1897 57.4981
211.939 14.2641 58.9473
208.634 15.326 62.0462
183.174 19.3033 75.7369
207.938 14.964 51.4607
199.66 15.5128 51.5075
223.461 12.2214 60.5565
216.229 16.6971 45.9772
242.178 13.2526 55.156
217.588 13.5302 61.232
240.784 14.8026 51.9701
177.248 16.107 58.5849
241.966 15.7417 58.8453
207.422 13.8526 51.7532
202.176 15.6013 54.9914
211.333 13.1203 54.3497
231.615 14.6487 56.7011
180.499 14.3929 55.1697
198.122 16.8046 62.0039
231.657 14.248 61.5936
180.638 13.9743 51.3621
220.896 14.5952 67.2882
210.787 18.8257 65.7126
155.067 17.3775 58.0785
184.818 13.1801 51.7348
169.991 14.7547 54.6335
177.08 14.4746 56.0698
175.409 14.3719 59.7037
229.76 15.8096 58.7301
203.81 15.396 63.34
192.368 17.5801 73.3101
204.928 17.6055 60.0654
200.752 16.0654 59.599
215.9 15.1057 51.9516
195.838 15.4749 61.0429
177.973 13.3227 53.8437
224.675 18.1953 63.5745
184.335 14.9232 61.9522
218.775 14.0589 59.7385
184.719 14.2793 54.5918
206.546 15.0825 50.7398
187.532 13.9991 55.6423
237.673 15.3334 59.2364
139.111 13.6358 50.3837
209.379 15.1126 58.4453
144.708 12.5674 47.5361
174.396 14.8128 60.5216
161.151 13.3485 55.5592
204.805 14.7943 64.2241
190.283 15.3513 59.4366
199.964 17.2708 54.927
183.661 14.6164 56.9818
139.191 15.8469 67.3551
158.913 15.2192 61.0742
176.396 12.9932 51.2694
142.662 14.7524 49.1701
172.166 14.1682 59.0312
177.516 15.4417 56.0261
168.214 13.0228 53.3378
187.887 15.3658 60.9111
163.049 14.0366 64.5099
156.476 15.3701 53.2922
182.269 15.6011 63.3648
196.349 15.4135 53.428
184.955 12.7124 50.3585
144.445 13.2212 50.5022
169.237 12.4221 56.3414
110.47 13.8123 50.1498
131.045 13.8498 57.733
143.012 16.3424 64.4557
198.222 16.3812 60.3947
167.813 16.1758 54.9289
170.906 13.7548 55.7324
137.704 15.4033 59.0285
132.162 15.6862 55.5198
153.264 14.352 61.7523
123.222 15.2077 60.2208
190.076 15.2564 52.9039
140.857 12.7739 56.0058
120.334 13.7259 50.8752
127.318 15.8453 73.7654
157.12 15.5942 55.5539
168.062 14.2837 60.6708
143.708 15.865 61.2369
141.323 14.8663 57.3325
125.376 16.1245 62.2693
175.968 17.6393 66.3078
126.047 14.4401 65.0186
133.116 16.4354 58.6505
126.823 15.9361 52.7066
158.503 13.8092 56.5111
149.205 16.4775 69.2256
186.006 15.5926 59.8359
137.889 17.8229 63.8008
147.527 14.5996 66.9008
143.428 15.922 57.2073
154.575 14.8654 53.7453
143.54 14.9642 70.6008
158.339 18.9692 74.7798
140.459 18.6238 64.1167
159.376 16.3921 53.5162
152.618 13.8559 62.2078
149.656 15.8634 62.077
137.826 14.9133 61.9013
150.409 16.334 64.7409
115.309 13.9008 51.1007
146.831 13.4217 47.5734
139.967 13.8896 56.6374
138.987 16.7152 65.7404
142.036 15.1508 55.3707
164.297 17.3956 66.0863
164.9 12.4615 52.0156
142.932 14.0499 61.2338
147.519 16.8355 68.1766
158.163 15.2509 56.0192
159.189 15.4758 54.069
171.423 15.126 57.0588
144.275 15.3673 69.6254
179.229 14.4224 60.15
174.561 17.0471 61.2417
211.625 14.5792 63.276
163.193 14.9292 59.2306
161.806 16.0706 62.4379
183.649 15.5251 55.6933
216.253 15.094 56.3697
149.405 12.5296 50.1005
185.223 15.2704 67.0852
185.39 17.8706 64.781
180.632 13.1178 61.5158
167.158 14.2072 58.7848
156.106 15.1607 56.9968
149.435 15.8073 59.4593
208.496 16.045 52.7368
180.467 13.3934 56.869
152.18 15.3358 55.9266
175.978 15.1759 54.6345
212.63 12.4898 55.2359
194.955 12.6346 58.6389
182.51 15.506 61.9292
170.325 16.3879 62.7345
185.05 14.0432 48.8779
168.593 13.3968 60.2238
219.903 15.5673 60.5028
203.899 14.8158 56.7553
187.625 15.2402 56.4087
190.398 14.5988 56.3379
213.09 14.5488 56.1259
205.915 15.3904 66.8393
245.535 14.22 62.2729
213.84 15.693 54.3926
247.88 14.2122 62.9323
241.053 15.398 49.6444
350.24 14.5762 53.2131
280.88 15.1754 71.5561
253.681 0 0