# pn-170911/CsIIA-33-TWTF-1280-1959.psd
# Power spectrum* (dif=0,1,2) (really just |FT|^2)
# NOTE: only the first half! (symmetric)
# weeks: 1280-1959
# 8 clock-days, 2 excluded
# PSD: 1441
16311.7 2.01881 0.043556
1.12704e+06 27.9931 0.0211658
3.94167e+06 72.2458 0.0235691
2.04217e+06 63.7579 0.0271531
1.12554e+06 66.3226 0.0328936
541698 50.56 0.0256779
230823 43.0924 0.0232317
274525 50.5062 0.0300753
235433 53.51 0.0394231
255371 75.0328 0.0698061
153644 74.0256 0.0779923
96495.9 39.9188 0.037981
81385.7 43.6044 0.0412916
62775.1 64.5242 0.0888653
56505.7 34.9421 0.0711677
56063.7 43.5651 0.0719103
56605.1 61.6179 0.122747
35112.6 42.9693 0.10471
34161.2 63.1 0.115157
41526.4 51.375 0.100854
35124.8 56.9999 0.165361
32167.4 52.199 0.11521
44647.5 92.4753 0.236213
22298.1 29.8217 0.111873
20879.7 50.132 0.125472
24655.3 60.8802 0.213551
29383.3 90.3247 0.272643
18272.9 61.7015 0.190551
17181.5 69.4624 0.227287
11341.1 36.9693 0.144158
11565.5 40.3431 0.223911
8246.33 30.5116 0.176527
13027.3 45.6472 0.215987
20575 93.1367 0.473327
13699.5 76.9596 0.438097
7618.96 56.8807 0.357669
6843.99 42.1742 0.256766
8011.37 40.7297 0.324389
8485.84 42.9387 0.370513
5726.36 31.5905 0.231242
11363.4 83.8717 0.632848
7946.55 52.8959 0.417536
9375.51 63.0108 0.442157
9858.67 90.4695 0.781436
11144.8 88.3074 0.86698
8707.64 73.2551 0.605169
5411.1 39.9267 0.37008
5801.24 54.6893 0.551482
5641.24 44.7053 0.56393
4792.35 49.8548 0.659598
8419.07 69.615 0.836513
5939.1 52.5596 0.652729
5113.97 69.5025 0.811472
5272.81 54.5358 0.775309
11037.7 96.4333 1.46649
5599.99 70.4652 0.921658
2376.21 46.936 0.7125
2116.15 18.6273 0.310531
3175.91 44.5831 0.76503
3309.42 34.0365 0.663686
4503.28 59.7752 1.08255
4686.76 66.59 1.10382
1594.71 33.7683 0.684337
3163.5 37.9543 0.712706
3307.61 52.696 1.0909
3818.55 54.5729 0.970252
2463.85 30.0198 0.630677
2179.31 30.1466 0.720616
2751.43 48.2333 0.986006
3773.73 58.0212 1.37236
2935.53 76.3765 1.89589
2248.49 38.5966 1.12822
2467.45 60.8136 1.5863
1977.38 49.0288 1.09178
1252.94 35.408 0.904705
1812.1 50.6571 1.26468
2012.78 38.9892 1.10472
1487.5 39.3125 1.21721
2600.24 54.6423 1.64203
1337.68 44.5266 1.37434
1767.63 59.3792 1.86754
1318.19 38.8652 1.18869
1146.19 34.9692 1.03253
1725.91 56.427 2.08207
1730.65 61.1822 2.04718
1609.17 48.2286 1.72276
2243.14 56.4061 2.05825
2115.42 65.793 2.11726
1505.12 34.5554 1.21854
1246.87 33.0576 1.19936
2037.33 59.1105 2.06593
940.79 19.4286 0.760214
1211.57 41.9042 1.74836
1326.74 57.3545 2.27312
2351.37 79.2508 3.43355
2638.01 99.0808 4.09386
1917.62 49.9493 2.16197
1140.32 34.611 1.62027
1107.75 56.3773 2.49849
1114.71 42.0258 1.94176
2000.81 62.3022 2.97011
1020.77 31.1117 1.43129
1082.4 40.0025 2.14245
1051.08 52.2464 2.65479
1236.66 73.8803 3.98269
1193.26 59.7198 2.97917
1486.79 59.1036 3.02978
1104.88 34.7488 1.85811
1164.3 49.5327 2.90558
680.896 31.0807 1.73082
1163.82 55.1942 3.085
729.013 23.7177 1.3047
1586.85 69.577 4.08756
704.374 29.7311 1.78114
1096.73 56.8941 3.48197
874.926 55.2307 3.39757
509.664 21.5924 1.35829
1138.98 79.1456 5.18308
660.976 49.5739 3.43911
1332.18 63.4133 4.03257
1138.77 63.3648 4.90763
672.514 31.7818 1.901
981.539 58.291 4.02808
905.74 84.8459 5.81303
617.101 38.5432 2.89101
957.643 58.2432 4.3726
962.946 51.6972 3.85535
988.202 77.8467 5.85273
571.838 27.63 2.05246
634.688 52.2497 4.33966
540.254 26.6317 2.18191
686.862 39.6786 3.22398
1171.24 54.7922 4.53707
454.494 24.6779 2.30878
704.055 64.2814 5.93935
642.712 39.4687 3.6583
812.592 59.5295 5.41233
1121.77 79.8852 7.06849
662.686 36.0342 3.16915
1275.57 85.9769 8.28221
503.757 45.2195 3.92161
430.904 27.2461 2.52808
727.903 56.9826 5.83131
432.562 34.6587 3.38569
667.338 46.1568 4.71921
528.465 39.0535 3.72657
881.859 58.4159 6.17737
418.348 46.7473 4.48309
425.991 51.3293 5.66149
575.072 52.1779 5.28569
692.782 58.7988 6.28407
517.968 43.8029 4.32604
668.168 50.1038 5.99734
512.179 55.0047 5.95778
542.416 54.8572 6.22744
659.097 53.318 6.41162
381.529 40.5829 4.5445
271.468 19.1817 2.23157
254.825 17.7504 2.09848
328.123 32.9693 3.82039
650.789 50.4596 5.94715
1083.11 117.538 14.1033
346.611 52.6442 6.58089
284.557 31.9352 3.72076
298.464 34.2027 4.29683
439.211 56.1215 7.85956
379.565 44.8606 5.70496
472.574 51.6965 6.78779
602.519 61.1082 7.8455
342.812 48.0281 6.27957
515.814 59.3763 8.0472
664.524 95.3753 13.1487
244.318 28.135 4.25795
259.456 22.0672 2.71436
176.621 32.1209 5.08674
282.902 24.3828 3.59408
345.103 33.9017 4.39637
486.087 35.4633 5.25728
257.538 45.363 6.9754
231.266 42.8049 7.48113
253.741 27.4778 4.10365
425.478 57.8432 8.83944
338.793 39.7768 6.30969
334.952 48.4934 7.22055
368.236 40.4463 6.30411
257.915 42.575 7.4587
204.393 22.4627 3.66131
340.862 44.8754 6.89692
163.272 27.2097 4.94483
575.988 70.508 11.9961
802.863 85.0672 14.4946
242.5 20.9232 4.37088
433.276 63.8369 11.3704
305.326 52.868 8.54645
482.599 82.0439 15.0975
603.12 71.3981 14.0936
434.516 64.1747 10.7673
226.765 38.1372 6.29348
264.702 56.5251 10.8673
331.225 41.9984 8.43805
281.363 51.1957 9.28242
183.406 35.8207 7.96059
412.786 60.1521 10.5375
245.456 42.2829 8.21546
248.556 39.9419 7.99914
212.751 44.3024 8.4547
245.364 19.8535 3.39839
327.51 67.1291 14.4846
264.645 46.0981 8.99921
390.287 45.6299 8.09793
278.603 38.9723 9.00395
251.18 40.6589 9.42394
489.335 76.0913 15.8768
181.646 40.2116 7.8372
136.545 28.7398 7.08667
222.906 27.6443 5.33064
258.318 61.6942 12.2172
158.791 24.8142 5.68611
358.161 91.7401 20.3317
256.421 50.0029 10.2465
214.9 51.9421 12.557
166.571 34.6718 7.80365
267.258 30.0704 6.43297
151.376 33.8882 8.64423
291.835 53.7422 12.7042
432.052 60.347 13.9589
261.182 49.4703 11.0826
230.315 42.4515 9.80387
158.43 40.5759 10.4058
210.112 41.7472 10.5629
302.456 57.8762 12.3528
320.662 62.0073 16.2017
196.163 37.4976 9.3213
123.872 33.0124 9.42582
177.574 28.0877 8.37022
186.317 38.2672 9.11743
155.425 30.8989 9.23719
256.458 63.3545 13.6429
107.538 26.9331 7.19811
155.68 37.2037 10.895
234.393 61.7647 16.2274
166.832 60.8929 17.1886
134.651 20.8369 5.89837
240.262 39.8095 11.3519
226.798 42.0637 10.3003
151.81 16.6036 4.39288
261.71 43.3919 10.8654
171.374 29.6208 9.00055
155.381 35.213 11.8128
138.936 43.0207 12.3754
165.181 28.0835 7.72814
203.586 45.5283 14.0657
205.394 43.9285 10.9372
199.335 36.3182 11.9561
142.917 49.6364 14.124
312.12 78.8449 22.7837
177.363 46.3147 14.9498
104.617 34.8383 11.0956
167.164 40.1558 11.5251
109.849 20.4306 6.64313
150.883 63.1327 20.2047
93.5417 31.8606 9.33484
117.899 47.4502 17.0513
330.727 70.9859 21.5309
194.232 33.8794 10.9639
94.018 17.9998 6.13842
90.9427 23.3018 7.73588
71.711 30.3175 9.6314
142.121 29.9497 10.6825
261.123 63.7885 21.6674
215.532 46.222 13.7885
87.9641 28.0676 11.6454
148.787 36.3996 12.7627
216.127 49.7466 15.7512
198.497 53.5989 17.3017
166.181 44.1353 14.5972
165.464 42.9648 15.4631
170.883 47.8591 15.214
161.033 38.8425 14.6984
319.837 98.2952 38.5317
137.99 37.0868 11.0441
139.437 41.9852 16.6252
131.391 60.3445 23.5421
82.8068 34.2796 13.167
162.942 40.0263 13.9097
65.751 16.6963 6.46177
137.179 34.8934 12.7639
57.5538 21.5757 8.76641
117.405 20.7969 8.53935
96.3061 33.3948 12.2093
126.292 59.1069 23.5192
273.07 66.5769 23.7596
166.039 48.5726 18.9092
87.3118 29.7638 11.9889
104.768 22.3596 9.68829
143.736 39.1395 15.1013
66.6835 20.6672 9.96392
103.509 21.54 8.39771
113.719 46.3558 20.8022
143.207 32.2971 11.8815
86.5778 14.2293 7.10047
92.8606 28.3756 11.341
80.1099 40.5018 17.1945
144.159 33.8598 14.4951
75.7276 26.4582 13.3596
75.4864 40.4924 17.0241
150.904 56.957 22.1684
103.995 43.2169 16.7672
64.4413 33.8138 15.3174
60.9737 15.8695 7.92409
127.074 38.8041 17.6177
68.2552 28.7516 15.7767
132.273 26.6662 10.4061
166.265 46.3197 16.3026
96.0014 23.5346 9.29117
166.467 57.4335 26.1148
84.5643 27.0566 12.4892
149.338 40.1295 17.7755
115.471 43.7294 21.0809
121.929 46.9534 25.7856
124.062 34.439 15.4648
55.1031 28.1961 16.6525
53.7337 21.3128 7.89204
101.767 30.6943 17.1293
113.766 50.0065 25.4449
73.0026 23.5667 10.2131
73.2568 32.1747 13.7227
65.5204 25.0931 13.5669
54.4229 17.9505 8.04666
129.748 51.6717 27.4484
104.377 43.8764 18.5496
99.6827 34.5328 16.1831
38.964 13.9951 8.70449
58.0602 25.2632 11.4604
91.6784 36.2512 20.4799
100.601 47.3009 21.6642
63.1682 39.802 25.0989
163.821 47.1726 18.5087
67.3334 41.1917 22.4191
107.921 47.1788 26.2764
116.99 58.3562 29.5352
132.61 58.2503 33.1195
128.929 58.1325 27.1608
59.7995 28.3696 16.3986
70.2551 35.3119 19.7775
68.641 28.0883 13.9071
90.0003 27.5371 14.1709
98.7996 35.8234 17.329
55.7476 41.4484 22.8527
48.7166 20.9766 13.3569
103.778 58.2204 28.1724
50.671 32.5938 19.4064
80.3213 37.3913 22.9527
60.0953 34.393 16.4081
36.0119 22.6372 13.5302
59.9543 26.3776 15.3097
70.1705 45.3465 28.3348
96.5252 37.3188 19.5717
80.8741 35.4231 19.0402
58.9786 35.3464 20.9641
50.4217 24.1195 18.7552
88.1077 43.5584 19.8922
73.4129 41.3873 26.1767
43.816 21.2876 11.4317
72.8996 31 16.8222
67.0715 62.899 39.1521
105.029 40.2748 26.1425
131.43 52.5358 30.1224
89.1496 39.3485 25.9518
55.0991 28.4457 20.585
60.3056 34.7832 17.7753
76.7494 35.9315 23.5607
66.6724 37.4016 24.2646
131.99 69.0164 43.6322
36.3318 19.1047 11.3054
59.1895 26.7645 21.3819
71.2599 35.1309 21.3398
58.5105 25.9118 15.6729
54.1669 25.6639 14.5717
77.7156 42.1008 31.3938
78.765 30.8497 14.6061
50.3649 25.0969 12.0768
23.4158 14.094 10.5952
56.9569 45.554 33.7869
78.4009 29.8287 17.1744
65.6841 52.3502 30.0963
94.4642 57.5186 37.5948
55.7018 44.668 32.0666
54.8858 39.7031 27.0245
109.046 56.2773 37.4933
32.1053 23.0856 20.3604
74.1423 34.771 25.6249
50.4697 34.2117 20.3261
38.1075 29.7823 27.1213
86.7712 43.8162 27.871
60.2243 32.0168 19.0626
62.636 42.73 33.0647
55.9013 39.3368 26.1347
62.3121 19.1925 11.164
54.4341 38.7277 31.9447
121.995 52.5455 29.0072
43.4093 17.3402 10.861
42.7007 30.9556 18.86
72.9663 53.0366 38.2517
46.6291 28.3405 21.7752
32.0629 19.7788 14.9947
35.283 23.0297 21.5031
36.9141 20.4513 18.4513
62.5846 37.8418 32.7559
70.7367 21.5115 12.4464
98.8674 51.8323 37.8698
50.2306 19.9039 14.4471
53.7216 23.1345 15.468
97.8845 48.6933 39.5732
30.33 22.4144 12.9772
45.0791 50.3115 39.5055
68.498 32.186 24.9145
52.9207 27.2517 23.7245
56.71 37.0691 27.8586
56.9431 27.6717 20.417
81.5279 34.1654 27.6961
74.1794 63.7849 54.2427
68.3356 29.8471 20.0819
74.8932 32.6057 22.2002
28.6878 12.0238 7.40881
63.7152 35.3514 25.9527
18.7983 14.5762 16.4701
35.6988 28.9569 21.8019
38.2906 23.9394 24.1494
32.2905 21.227 18.8532
52.6101 31.0794 24.7215
43.364 18.358 17.4873
52.0152 30.6647 23.2447
93.7008 39.0954 26.448
61.5245 30.5025 26.3561
53.0713 30.8272 26.7131
47.9217 36.1769 31.4916
37.8304 18.0409 18.5033
48.5268 31.042 27.576
82.2211 42.1775 28.7205
58.6226 30.724 29.1856
40.927 20.4201 17.9468
42.7533 22.29 23.9936
37.4964 28.2195 20.7657
38.9228 26.0135 16.9317
43.6117 27.21 24.5656
36.9304 27.6059 21.9902
33.9114 58.1656 49.4345
51.4541 28.5702 30.8079
62.5682 58.821 52.5519
59.4395 29.6713 21.8524
43.2569 34.0836 34.8722
24.5811 36.6023 40.1399
66.7467 33.4678 21.141
37.1332 28.3308 30.8392
73.5694 42.7926 32.5
37.72 28.3464 20.0383
29.1234 43.9159 44.9746
35.2998 24.3511 28.3252
46.8563 18.6498 19.8339
45.7579 21.3888 18.9143
46.964 39.1068 40.3949
35.1094 12.2238 15.5961
68.9088 52.3654 42.4051
65.8884 34.6626 25.1516
35.7578 43.0505 46.1454
68.4868 34.9934 29.0676
50.8532 30.0637 26.7177
41.4489 18.1477 18.2357
27.587 24.1754 21.3715
33.1711 29.9411 23.4358
31.0193 40.3367 45.73
53.2644 33.3395 33.96
34.6799 22.4504 18.9356
52.4926 30.6556 33.5364
37.7085 19.8963 19.248
35.0817 20.0469 21.3115
40.4741 21.4952 20.0735
30.1542 22.6679 23.166
39.7912 25.0235 18.072
36.4408 39.3104 48.6567
70.1589 37.863 39.2334
51.0484 33.2385 34.4193
69.8845 48.4678 41.3781
51.3943 41.2813 48.9062
36.8525 21.1957 17.7938
63.7777 35.4329 35.0937
14.6489 11.879 13.7906
19.5499 22.2768 28.2953
62.18 45.2465 37.2107
26.7762 12.9768 18.1267
37.6043 27.9799 27.4912
47.1394 40.1374 47.5574
40.5761 40.6831 37.2741
41.9102 28.5589 27.7185
38.036 34.8781 39.1818
26.5045 24.8888 25.7029
43.2828 25.2708 25.7799
25.8433 11.8251 11.085
30.7056 19.2568 29.6154
29.8377 28.5788 23.019
28.481 36.1982 35.6866
45.508 33.1385 49.0747
46.7039 38.5274 32.387
41.8397 46.455 57.0931
27.7387 28.5305 24.289
21.0813 28.8947 32.6734
21.0582 26.4463 36.9611
87.6935 68.9678 70.3461
37.0323 33.3906 49.2327
38.9155 20.2226 15.0114
46.6851 53.8242 53.4444
27.885 19.3277 30.8923
23.8843 17.4529 12.8385
27.2113 35.7439 42.4521
20.5998 16.5187 17.8653
31.5328 12.0748 9.90278
29.4338 28.5932 26.6605
28.112 24.5224 33.5057
16.7298 15.0316 20.2254
38.5655 34.6523 45.4977
24.9888 14.4925 10.4624
21.1429 16.1447 21.2933
34.6918 13.8811 12.8016
38.4803 33.0224 42.2483
26.6398 14.9455 26.2879
34.3396 20.6741 26.5747
29.1422 37.0703 44.2211
35.7289 33.3487 45.1887
50.2519 44.0572 32.0407
15.0329 19.7747 24.3033
19.1831 23.6273 25.0852
13.8722 13.9099 20.9503
21.8848 16.3653 23.0811
53.2893 40.1845 41.5955
43.9704 47.2117 52.5863
24.8202 22.5098 42.4792
40.9046 28.8137 33.4664
49.0564 57.6858 52.4266
26.4587 31.716 50.2034
17.4628 18.1085 24.5073
29.3752 20.7848 29.6276
33.8407 41.7614 48.2521
46.4518 36.7998 48.7117
37.7258 25.4364 32.8098
25.5528 33.6458 33.8682
19.3778 13.0586 16.1109
25.5233 26.2229 46.141
34.489 26.46 25.0414
18.0097 13.9013 21.5579
33.8508 30.583 33.1353
49.228 46.6244 49.7405
35.5386 32.6863 43.8344
13.7267 16.4739 32.624
14.0518 17.0903 32.9211
35.1908 42.9077 44.801
23.9073 12.7638 22.4057
36.6005 32.2079 36.4437
16.7524 18.2971 22.1491
17.3098 19.2022 25.9164
15.6334 18.1238 35.5174
47.3444 38.5544 46.6385
13.6623 33.2102 44.7199
50.8286 45.7936 46.9394
30.5207 30.2982 45.2935
22.3981 17.1707 19.7263
13.0618 22.4866 28.2871
33.0024 28.4275 43.8053
27.3158 24.8808 36.5796
26.3373 35.7524 45.4534
26.141 34.9087 57.6575
16.5052 9.89215 22.5453
59.6415 55.1918 62.3135
41.0026 50.5572 70.5141
25.1271 15.2958 21.8307
25.9541 20.3798 22.8401
53.4045 69.4693 87.7491
33.0856 30.0579 36.6343
22.2107 15.655 34.3761
37.0787 28.1278 28.8229
31.8619 55.8401 71.4268
29.3802 34.3934 56.5499
14.1031 14.9407 18.5777
25.0507 28.855 38.8011
16.3661 16.5592 34.262
41.2867 37.6139 51.8614
19.784 13.1137 17.9551
17.0252 13.3287 21.6129
24.0932 28.3582 45.3924
28.6388 28.3247 45.8412
36.2429 26.3046 28.3636
24.797 26.9746 32.3634
14.4544 26.3932 38.9305
16.6153 20.6507 26.5331
33.1413 37.0103 48.4431
7.45121 19.9027 45.5326
34.1089 43.607 57.417
14.8421 14.504 25.0103
20.5825 21.8721 35.1955
24.2153 28.6397 45.6077
24.2964 12.5444 30.3141
45.5553 46.8099 64.1851
19.2391 28.6289 47.8875
21.4749 26.9458 52.9942
35.329 32.5851 25.8841
19.9267 20.108 28.0768
23.6297 27.3739 44.1742
16.9388 23.9414 33.9572
23.3085 23.117 47.3886
42.3298 36.7714 51.632
31.9274 31.9767 32.5684
17.179 30.9731 51.3674
44.0603 53.092 74.4577
28.8275 26.3734 31.1037
10.5854 26.7959 51.9294
16.9025 24.183 52.7679
24.9529 15.9654 22.5141
28.4916 30.9105 50.0637
19.7142 6.29549 18.3049
19.8982 12.9485 10.125
21.2028 16.0401 17.8922
23.4107 27.042 50.1405
31.0807 35.6021 49.6472
12.9188 18.4177 44.6388
44.2807 55.2705 82.7206
22.5071 20.3799 32.9936
18.3875 21.9201 24.9405
14.6069 16.4362 28.7068
21.9938 33.8144 49.7153
30.7544 21.9105 37.9898
18.9249 28.6636 44.2076
18.8833 13.5232 21.6121
15.1799 12.9555 25.2598
8.67281 15.0854 22.6198
14.9126 20.1012 35.8428
20.7749 33.0261 45.0538
7.24858 13.7602 37.7459
30.203 22.781 25.5256
14.6993 14.8698 32.5246
17.8961 22.669 29.8534
14.9323 18.1373 39.3279
35.1035 36.6546 59.3298
20.5105 35.0599 44.0971
13.2622 8.91298 16.5887
16.3968 26.665 47.6877
22.6861 21.4594 36.1465
15.2894 15.3866 32.1203
19.2067 25.1813 60.0854
64.242 64.6197 77.8075
18.6481 13.9192 24.419
25.9677 28.01 48.6908
21.8863 34.7114 65.3195
21.4716 28.7731 43.3744
16.0872 17.8472 39.4824
23.0929 18.111 28.5179
13.735 30.2613 56.9483
20.9687 37.3394 86.3662
28.9857 26.739 40.4566
25.1089 22.6295 49.3974
20.6814 23.2005 31.4266
11.8121 18.3865 32.5089
22.4779 30.3287 55.692
32.347 32.5445 53.6584
19.131 19.84 27.2366
13.2912 25.491 48.6627
11.7864 9.3856 14.8561
5.77157 15.4686 32.0057
17.9638 10.7656 18.8334
18.3753 16.019 28.6942
12.4591 15.0718 30.3216
15.5634 19.3085 37.266
12.1695 12.8105 34.628
23.5887 20.7228 43.8011
26.0193 39.1571 65.1361
19.415 18.9166 26.0408
14.1429 12.3591 21.6726
11.8324 8.03088 19.2304
19.0379 22.4813 27.769
8.95901 13.2424 40.8818
15.4979 21.4194 41.8652
21.5564 13.2883 17.6716
22.3223 34.8673 53.3838
24.8986 19.6532 30.254
12.2853 12.3984 21.9916
11.7865 10.8047 26.7253
11.396 11.982 30.116
29.9726 40.8041 56.5208
15.0187 27.2466 46.6535
17.2404 20.835 45.7531
19.3939 19.1752 29.8691
12.6403 16.4182 37.4655
17.4472 13.6139 16.8192
14.1101 24.872 47.65
18.0769 14.8004 43.2551
25.2112 27.9002 33.7625
18.3634 16.3981 22.1671
11.2777 22.1928 55.0777
20.7921 20.4205 55.3229
11.9121 15.0478 29.5459
17.5237 23.4278 47.2986
28.5609 30.4639 35.9608
23.3807 27.6224 50.6127
12.6295 14.1908 32.485
19.5951 32.0234 51.0487
4.54074 14.6516 44.7798
27.175 32.6693 62.214
18.5276 12.1636 17.7081
7.43626 12.5216 33.1298
14.8311 18.4849 32.2552
14.1395 17.7371 49.1109
22.25 27.825 38.3141
24.0085 39.3357 55.4977
12.8677 15.3017 34.2618
18.629 17.9763 41.1714
19.2201 24.9395 46.4399
12.3072 19.5177 38.1917
8.72354 18.648 48.1556
20.9863 31.7888 53.2461
9.02931 17.3995 44.383
17.3364 18.4404 40.498
21.0394 16.845 25.3142
25.6199 31.0935 51.7356
12.7485 7.59184 37.9316
36.2947 54.012 78.6583
9.05591 10.2251 28.3298
30.0889 31.8072 71.3541
24.0659 35.2723 58.2795
13.7141 15.8598 34.683
13.8369 28.3383 50.3466
20.7143 32.2629 75.794
13.2926 15.4999 34.5363
6.90141 7.99174 24.9973
13.6941 15.5137 30.6566
15.4199 19.6124 36.743
13.3522 9.11601 22.7921
15.6608 22.8459 47.304
8.73494 13.987 29.3435
16.6153 23.2297 42.8574
20.7079 38.6985 81.5188
20.5823 28.9374 63.5747
16.4643 18.0382 44.7482
14.6957 23.0132 43.7308
10.2192 22.9762 45.6936
11.9799 6.62807 15.5887
9.96439 12.1169 30.4229
14.9557 12.0544 27.2646
21.0692 25.1439 53.2444
21.9924 29.3166 33.723
9.89896 16.1763 42.9959
8.12611 5.99959 21.9243
9.29416 9.63615 35.4943
18.9558 35.2921 60.0488
20.8593 22.5346 42.6118
9.78319 16.5742 49.8988
12.6693 14.3029 31.8412
9.82926 13.1805 36.3648
13.3759 27.514 37.7717
17.4005 30.4018 92.2176
10.9033 21.0547 30.575
14.4278 17.9985 28.2627
3.3741 14.5426 30.2996
8.192 9.66492 14.7029
11.2672 25.1975 81.1268
20.2457 27.7094 62.9053
16.6492 16.9877 28.8834
13.5384 27.4103 55.4665
8.51016 12.7282 48.6763
24.1708 23.1758 29.4757
12.4491 17.7589 41.5701
15.2755 25.8488 71.444
15.8616 18.4381 49.7672
12.7997 18.8287 42.2473
14.4105 20.0835 47.1182
9.77283 22.2762 41.9637
12.8809 35.9354 52.1213
6.95223 5.23347 8.57712
6.60016 19.7897 50.6632
11.2632 10.6997 23.7278
10.7269 17.166 58.2595
24.8111 32.5438 62.9243
19.2803 27.099 60.5482
19.9952 34.6185 76.6497
10.7462 25.8569 62.7138
9.58222 14.8878 39.6221
16.6476 26.2885 55.9927
14.4662 32.8526 74.8564
7.55397 6.42244 13.6401
8.71314 11.8411 22.8267
7.05292 10.2579 42.1247
15.3881 13.2006 29.6939
11.8957 30.2351 59.5161
13.0794 20.9875 69.6276
9.52409 20.1817 41.0964
14.0449 18.8262 22.8485
10.2194 24.9634 37.7715
5.96475 14.1461 25.9438
5.14747 9.3435 22.4834
9.38481 13.3519 42.5555
10.7073 12.7346 38.4437
15.5725 30.8788 56.8613
5.43575 23.2588 61.004
10.6819 19.9868 42.2406
13.9765 16.9891 71.6613
18.1041 39.0526 64.6129
11.847 24.2599 44.3297
11.5348 23.7885 62.6783
8.27205 7.25033 23.3267
8.40016 24.7141 61.9626
10.4528 7.73565 34.6997
17.8693 21.9282 53.231
16.2684 9.19689 27.2367
17.302 19.9718 28.8219
12.8291 17.7046 38.6617
11.652 8.84537 34.4282
18.2357 26.4024 32.248
10.3505 15.3339 28.5412
8.13195 23.4386 71.2244
8.83263 15.0008 61.4674
14.0907 18.3429 35.5817
11.352 21.3171 45.001
5.5976 9.0025 25.3846
8.55312 11.4548 27.3124
8.40368 7.04507 23.3387
12.1297 12.424 27.797
8.92149 14.4665 30.6652
9.58724 26.7262 53.9841
8.06923 9.44985 44.671
10.6932 14.3237 26.5199
9.66101 15.0283 50.0521
8.0199 16.6401 38.903
12.0198 43.8345 92.2134
14.0459 14.9776 29.1086
8.70005 20.5954 76.7304
17.2011 21.0974 44.6413
11.1822 23.8751 65.7627
14.799 24.6532 63.3283
11.2875 23.4185 56.0585
7.90654 23.6491 57.6042
13.9384 9.6425 26.6072
15.4124 20.1402 49.0196
9.49477 20.6922 56.8618
14.1323 16.0398 39.9643
11.6051 19.1479 36.1593
12.8786 26.3867 87.3001
16.4502 13.2455 30.4509
6.89391 11.048 33.3503
15.1567 18.9273 33.7823
8.86996 10.7379 37.7065
13.9449 15.7457 30.1404
5.6312 10.564 24.0484
10.8266 17.367 39.7262
5.00511 13.489 52.0972
14.0957 11.3925 25.4218
18.037 29.3296 61.1814
6.69042 18.6004 52.3637
14.3596 23.0317 74.3803
15.0666 18.7673 49.0151
7.461 11.443 46.402
20.5161 38.6367 85.5482
9.74157 10.7895 44.8765
14.7537 34.378 46.3783
5.73025 16.8846 63.9482
13.5543 18.8243 60.8781
18.4387 23.8833 47.4841
9.58241 17.7083 43.3598
16.1409 26.2509 69.1603
8.6606 14.2183 38.8455
13.2274 20.1949 33.5661
8.65042 19.5433 72.0042
13.4531 15.7164 32.9927
7.4467 10.0424 31.8406
11.4926 17.8978 47.4129
7.72492 21.0202 61.8187
12.89 13.3131 32.4966
14.8885 12.9592 30.3746
9.02151 18.4977 50.1845
19.9007 16.5316 31.7564
18.2136 37.037 97.4019
8.45416 18.9179 55.5514
8.42667 11.178 23.2975
7.65858 19.4808 52.6584
6.40428 17.5894 55.8361
9.41327 14.567 37.5081
6.92531 13.9414 54.9049
11.0517 14.3157 35.0565
10.6597 10.4353 51.6012
13.1156 28.2562 65.5872
9.5953 18.6145 60.1011
19.7426 37.0198 55.8176
11.6936 17.228 40.9626
8.13167 15.6264 52.0866
11.225 19.5282 35.5654
4.38778 14.0151 59.3448
6.62126 10.4412 42.5998
8.12908 17.6325 48.726
6.61102 8.37781 18.8396
4.00112 14.6729 41.6022
12.2469 17.6423 28.6533
9.06617 12.9659 37.4073
7.91025 14.8024 67.3965
9.30913 14.2851 17.8738
2.80694 14.017 46.119
12.4921 11.0733 23.6543
7.43999 17.4883 52.1923
12.9553 9.05162 23.187
6.06053 12.6156 51.2796
12.5066 13.2811 12.6334
3.89933 8.569 36.4981
10.7052 9.7602 31.7275
9.89976 8.93736 24.2745
14.3996 19.006 52.128
11.3299 18.2511 51.6578
8.16431 9.26828 28.1074
15.3099 21.9161 60.4876
8.13188 16.3089 32.6187
7.13087 12.3699 45.2973
13.5086 12.053 22.8118
8.90802 14.5563 31.5229
8.00979 14.603 47.4704
10.6251 18.5645 68.0864
10.1616 40.7743 92.2014
9.25064 5.46867 40.214
8.68231 26.0099 93.48
13.0865 17.2471 47.3927
8.66207 22.3685 76.739
15.19 16.7722 33.4528
13.0028 14.6302 71.9918
14.9538 23.7053 43.8883
12.249 19.6106 54.1917
6.66738 11.4943 31.5715
10.7253 14.2098 41.1127
10.5336 13.5732 30.628
12.1778 24.8931 51.5551
6.8336 14.6069 36.8594
10.6956 19.6256 58.6362
8.91611 17.0936 59.1754
7.40928 26.8803 79.6638
5.43712 10.8302 27.9989
7.50965 16.823 70.0562
11.6052 10.4756 28.0622
10.0883 24.7774 47.5609
8.44605 16.7195 42.6476
4.46684 6.98977 29.3746
4.9485 11.584 57.5743
7.3637 18.2226 29.7458
3.34006 6.60073 31.681
8.66986 18.8177 76.0251
16.7572 20.6167 35.0196
7.43562 18.4649 63.1967
12.0097 16.9103 57.1732
13.0903 16.9727 32.3063
4.49847 12.7017 35.9152
11.1205 24.4767 84.7856
6.86451 8.81816 25.402
6.31637 8.83494 31.4008
6.97037 11.3881 35.4984
4.30552 8.2284 51.9595
6.07321 17.9952 30.0298
8.78224 26.8135 69.6692
9.25224 15.5661 33.2638
9.11984 14.773 52.7782
7.46547 29.5158 59.4764
7.0701 9.4068 44.903
8.81539 7.8615 37.8311
9.84769 11.7937 29.2908
11.9226 15.0179 43.4642
9.34715 14.8525 40.2211
4.41978 13.8666 66.9592
10.7406 16.8051 35.7753
9.91927 13.4628 57.4613
8.41549 18.0182 41.6009
6.27894 11.9318 49.4093
15.3929 25.7051 64.6211
7.69873 19.1455 43.9588
7.24432 6.16236 37.6594
6.75 29.2426 100.507
18.5371 21.5993 60.7067
12.4945 26.0669 76.5201
9.75555 13.9487 31.7648
11.5219 19.9271 55.4274
9.38191 30.9952 78.0357
6.27381 14.9812 63.2197
7.71586 12.5491 43.3089
7.2539 13.1704 49.7776
8.05912 13.8281 22.2567
5.8946 16.9631 63.5801
8.20293 9.2497 27.7743
5.76811 10.6798 41.0887
8.64988 12.9591 37.6807
12.5507 14.6505 29.9257
6.38364 11.0467 39.8365
8.87861 12.253 61.7408
11.3839 27.7413 82.8983
10.1099 18.3565 45.5482
5.88715 13.0248 50.9761
10.1785 18.12 98.3893
17.3356 17.3791 38.4165
11.8903 23.9811 53.4357
8.69911 32.0938 75.2936
2.20809 17.0207 74.01
6.64861 8.1229 26.0034
5.20574 17.9709 36.7292
4.43704 6.41136 48.3863
6.93756 10.6047 18.0004
1.93148 13.3968 63.6714
7.87851 24.8384 83.2972
10.7591 27.7127 63.2665
6.98643 6.39236 43.2598
9.83611 18.9396 47.0355
6.59936 5.17859 22.9297
2.78655 12.8951 55.5615
13.2719 17.3388 31.4027
3.99345 4.37358 33.0463
7.91781 14.4454 30.2398
6.03171 7.14262 45.0768
9.93051 18.4469 74.2599
5.30359 8.97086 55.0712
8.13525 33.1276 47.7019
4.33144 23.3114 67.429
7.87627 13.4495 39.3276
6.36963 10.2376 38.0176
7.90117 5.37741 35.4319
10.0025 13.7989 42.6465
8.71939 12.8952 52.3832
10.7298 15.9345 32.01
3.60659 7.69716 54.6625
14.2927 21.5526 38.2716
5.14553 11.4611 44.493
9.11413 23.0631 110.312
8.72786 26.8039 39.2985
3.82474 19.5373 88.119
12.8941 18.2258 39.3944
5.04774 16.9196 52.0615
7.10415 10.6544 33.6182
4.88789 13.5062 73.2993
9.45729 22.0142 38.7073
7.82231 26.82 126.819
7.83856 16.8368 53.465
9.1433 8.74951 11.13
3.98045 14.6317 99.9673
8.36929 22.2769 28.6346
8.08129 22.9411 42.6754
7.29446 17.8934 39.4029
8.58535 11.8225 43.2332
4.93668 12.8568 33.5364
5.19701 4.55371 34.5121
6.89787 13.664 58.7075
7.16204 12.3534 26.6432
4.66048 3.63903 33.409
5.93272 16.571 72.0197
8.08095 14.229 23.1139
6.14963 13.2084 56.0102
8.63966 10.6052 24.6623
6.98111 11.9032 33.6734
9.02084 6.61211 25.3312
6.97995 13.0559 28.4591
6.60162 17.0445 69.2879
12.3185 14.2259 30.5896
7.00077 6.00223 21.8664
7.66622 15.3899 64.4059
4.36372 11.8961 34.865
7.69474 9.94566 36.6219
9.05966 14.5778 49.674
9.51374 16.5014 53.9376
9.52987 15.9052 69.282
6.57757 10.1565 30.6228
10.5167 24.9884 56.2435
4.39154 8.45169 37.1884
5.68168 13.0548 70.3388
11.2245 16.7716 18.64
5.34848 12.6782 81.02
8.11558 34.9918 84.4299
8.36341 8.88328 61.7375
7.06807 23.9936 43.8191
4.32616 7.26585 33.558
6.81652 3.6504 18.2869
7.69351 12.5854 43.389
7.58985 12.4857 27.544
4.63655 9.31057 29.1313
5.30954 12.1694 71.1975
4.54948 20.7971 56.4749
8.7781 8.71091 43.5288
11.304 26.4691 46.5149
3.53306 18.629 95.0716
12.6923 17.9063 41.6123
4.93154 10.3695 66.8082
9.50831 14.0539 32.2619
5.84907 18.402 54.4337
8.69899 12.4477 28.5693
4.61012 13.8411 71.445
5.72311 6.61913 24.5522
6.31905 17.6598 60.806
4.98528 11.2362 50.8065
5.61568 16.7809 95.2397
14.0115 26.2203 93.5535
12.6567 25.9023 67.0286
7.3554 23.8728 43.8704
6.30971 10.5534 57.2346
12.4208 17.2585 43.719
6.94584 10.4522 28.7933
6.35679 7.89047 41.8349
8.36073 10.9963 21.6877
4.10986 10.2703 35.0971
6.23596 6.3207 28.9511
5.09073 9.53015 36.6844
4.64731 14.0445 56.843
8.66439 6.84772 20.4399
5.63907 7.02459 32.9853
7.61479 13.1202 52.3623
7.68219 8.99937 27.1042
3.64543 15.4966 67.744
7.17155 13.7515 33.004
5.43397 14.4782 42.5446
6.4698 5.30441 36.9871
7.19221 23.4224 55.8259
7.47274 15.158 43.5756
7.9197 11.5078 66.9849
9.40789 13.9794 55.1286
9.89201 13.2524 64.677
14.9684 30.9683 64.1691
5.96427 8.70941 19.3776
4.00706 6.0397 28.6391
4.83744 10.2855 53.8736
6.99858 10.3323 34.0104
3.81622 5.02601 32.7874
6.72889 16.6582 34.0946
8.84875 22.6318 49.8039
4.17311 13.2478 73.9599
12.9507 19.3734 53.7326
5.71817 12.3963 49.1866
6.34365 18.951 48.3251
5.72317 9.10821 55.5554
10.553 14.0383 58.9674
11.1413 12.8335 57.7014
11.3706 19.9993 49.6269
6.49688 12.3433 26.8486
5.32855 13.4789 36.3803
6.86295 15.3758 79.4623
8.53061 13.7615 44.9452
4.5527 6.61504 49.5366
7.91298 26.5873 93.3068
9.23194 9.68365 15.8363
2.55242 7.6227 23.2408
3.28328 4.71578 29.5012
8.96615 19.3841 73.6785
6.36665 10.5032 33.058
6.33708 13.1632 51.2345
6.70746 11.115 16.7969
4.89998 11.1714 48.6655
5.37802 7.78538 41.8901
4.67385 12.427 69.456
7.65111 17.5608 35.3309
6.11713 10.2097 56.4141
7.40582 18.9648 71.16
7.93684 10.3749 29.6447
5.19727 8.66248 18.4559
6.55268 12.9471 81.7852
12.5351 26.3021 85.2832
5.82212 8.76244 22.2677
3.54416 21.8842 78.8523
5.49601 10.1273 60.0598
8.26792 16.6976 35.3612
6.84466 10.1445 56.179
9.90743 9.69651 24.4496
6.21593 19.4879 51.2617
7.43773 22.7152 99.4137
10.6685 15.716 27.0876
5.09099 10.2439 50.4755
6.43064 15.9853 68.6034
5.02858 4.70467 69.8476
6.94507 21.5401 28.3526
3.90068 12.5652 33.8792
4.50038 9.56422 37.1295
6.02231 12.6869 50.0723
5.98542 14.7804 66.5512
5.65307 9.55387 37.5034
7.26764 6.91711 26.2179
6.36768 5.47112 22.5604
7.25678 11.1982 24.5789
5.90957 16.0667 69.2143
5.1362 10.1855 34.653
4.73941 16.1285 51.308
6.52562 22.4132 97.8057
6.86329 9.5649 61.8685
7.35222 10.7361 15.9407
3.92537 7.72145 58.5987
5.93519 18.3361 46.4093
3.01961 15.0585 66.5617
9.45185 8.6107 26.7749
6.62537 12.1365 67.6152
7.77382 14.5779 41.1706
3.67627 14.3428 63.7753
11.8149 17.9632 61.8793
11.1723 21.6997 23.5963
2.62816 8.15691 23.9561
3.63446 5.29278 32.1267
5.29324 17.7053 67.2095
9.89248 29.1759 73.3764
5.24102 12.6277 64.7675
4.35289 5.12998 37.6859
4.24935 11.6993 59.7553
4.09688 11.4769 43.3315
3.38141 10.445 55.2722
6.04535 24.9738 89.7712
10.2315 15.8099 50.0771
1.83414 10.4491 32.5824
4.24096 9.57428 36.2341
5.00034 13.768 42.6662
7.92473 11.4482 41.5023
2.71707 9.57353 34.4333
4.32458 8.72294 21.2332
4.11312 12.731 28.7037
4.87413 5.54387 40.7618
3.49236 13.4711 39.4197
3.37846 8.91494 38.6008
6.67622 5.24236 23.3038
3.68354 6.57651 44.9225
5.13939 15.7721 49.3135
8.48427 3.86313 29.948
6.27876 10.4285 40.3186
6.59938 12.1478 30.9716
3.678 7.62561 29.546
3.08197 7.50854 30.5843
6.29333 6.38967 40.9589
7.87121 14.3759 44.4002
3.57475 8.46914 28.7441
7.84275 8.86866 56.6412
9.04091 19.0402 27.2802
3.79749 12.0537 24.1239
2.02169 6.05234 29.5668
3.53267 7.31888 54.1526
2.83175 11.0554 46.5609
2.78488 14.2021 37.425
4.19673 6.27737 50.2133
7.09595 9.47402 20.7823
3.47097 16.751 112.263
7.91676 18.5648 33.0129
4.04183 9.44036 56.1365
2.88634 21.0426 53.0127
6.91694 8.67328 18.3109
3.70557 5.2498 22.7776
2.02268 15.5095 69.2901
5.8207 9.73424 31.842
5.10294 11.2894 31.1932
6.62574 8.88767 62.3018
9.47745 19.4837 84.2
8.11943 19.7308 52.9962
8.14758 6.19598 17.2266
3.69496 9.80969 34.4481
5.48374 16.5168 69.6904
5.91076 13.4988 47.3605
4.80882 8.71445 40.4198
5.30336 19.5766 70.2697
4.63405 14.6183 63.6371
6.28432 4.40578 26.1568
3.44558 4.69243 39.321
3.76332 22.4824 102.341
10.7304 16.8846 44.9697
5.55751 16.9927 65.9071
11.4179 17.9116 60.1322
7.42088 14.5171 97.5757
10.1985 30.7144 55.4867
6.61546 9.45481 52.682
7.7364 14.6253 25.2812
4.29549 12.93 42.2509
6.34398 9.44869 69.6161
7.51686 19.9101 60.8264
5.73165 9.28127 40.5423
5.14034 7.69766 19.0494
5.57965 5.23407 25.035
4.44774 7.54392 42.0201
5.00175 7.64604 29.2211
7.1115 9.43983 35.722
3.08096 11.3809 30.3678
4.06533 12.8152 66.92
8.85723 15.7355 36.8954
3.16551 9.2473 30.8741
5.56355 12.7778 59.1582
3.87495 19.2063 124.236
11.3773 18.1157 49.1899
2.36757 14.4764 87.8793
11.9442 27.4414 52.7081
3.8684 10.0601 68.6703
5.84823 19.7382 47.8281
6.95535 13.44 52.4652
6.80162 11.2955 32.3168
3.42875 2.65252 27.1878
5.06143 12.253 16.0523
4.77291 8.59981 48.667
4.80952 11.0498 46.1037
6.54577 13.5805 46.9104
5.71333 6.97677 44.8977
4.85586 9.00979 24.8325
1.5791 18.6996 84.8803
10.9778 14.345 29.0919
4.19312 8.39079 27.3078
4.86451 3.34961 17.1891
3.05374 6.54498 37.4553
6.18772 13.2403 36.1015
3.68418 4.88662 38.2976
5.68641 9.4854 38.6317
4.29567 14.534 100.261
8.91666 30.2543 52.8884
7.32098 11.3557 56.9923
9.64154 7.31458 78.8997
9.51483 31.1537 87.2126
5.73548 14.1403 50.2202
6.73054 9.99936 16.8519
2.95464 6.86921 38.3808
2.99367 10.181 45.5576
6.04014 10.3806 49.2848
2.06736 6.12603 40.9208
4.07834 19.4888 53.2315
6.99833 28.0418 116.118
11.8493 15.0364 42.0518
7.62899 13.1388 39.4127
3.27817 7.74802 36.4767
3.7197 5.16295 38.6206
6.37834 13.8 59.9306
8.57429 25.515 83.803
4.67235 10.2514 41.9508
4.13272 10.4912 54.4323
6.29905 13.1784 31.2695
4.40024 11.2783 42.0873
3.66891 14.9116 64.3802
4.027 6.43704 27.7059
2.66081 8.52581 30.0884
4.29167 12.2697 51.9423
5.57433 11.4994 45.4309
7.14702 9.26917 42.5473
8.73045 10.7068 97.9343
9.48618 16.08 16.7918
2.39225 9.43748 36.0294
3.41836 15.0709 36.5317
5.47984 4.04746 26.9172
1.83374 10.2846 44.5044
5.16199 14.2939 75.8692
7.83586 16.0659 71.9338
10.014 13.0123 32.5273
2.90369 14.0692 35.4349
4.45603 11.0103 44.335
7.23599 7.25111 66.2779
8.00938 12.0352 25.8226
4.95826 9.74178 43.2134
4.00996 11.8353 30.7129
5.87737 3.28906 30.9954
5.06409 16.1429 50.3678
3.00661 6.57525 42.3207
5.18874 8.85803 43.5244
4.6424 14.8935 57.8277
8.28867 12.2539 49.1342
4.00321 10.1664 25.4131
5.65786 8.2313 27.0886
3.50803 17.0847 36.0602
5.37131 10.6621 48.184
4.82148 7.53182 30.7119
4.48078 6.80435 22.9258
4.3481 7.9169 76.2716
7.7086 17.9889 58.5224
4.20416 9.84927 21.1847
5.15476 7.72942 49.1167
4.71801 19.0373 47.9288
8.99684 9.15827 41.1716
5.29468 1.75174 55.3663
7.15547 27.1612 56.0681
1.51559 15.7746 47.6074
6.16592 6.75647 34.1127
4.41038 9.27601 26.9031
6.1173 8.53735 47.2756
8.4181 13.7294 71.4452
2.99971 19.6159 72.3704
11.355 7.23024 32.1994
4.70161 15.0768 68.0881
4.28916 7.308 25.8143
5.52988 12.3145 88.4047
11.5909 19.7197 28.6574
2.12297 6.11886 61.9496
6.00127 18.6752 53.6921
6.14259 7.38533 21.6649
3.66546 10.9991 35.2815
5.47612 5.76106 32.2885
6.37443 9.66867 37.486
4.8003 8.65655 37.1764
4.95917 9.96573 39.4235
6.41761 5.1053 28.0592
4.28227 4.84928 14.1265
4.80412 7.3658 45.7763
4.51857 10.4051 55.8631
3.55395 11.1239 41.267
6.72518 14.7898 27.8259
3.67435 8.97093 21.0968
2.98316 24.831 66.089
5.7971 11.4247 74.8949
9.02267 11.8786 74.6802
5.36812 7.39715 47.511
5.54402 9.91659 46.2922
7.42023 16.322 33.2847
2.73747 4.14279 48.772
4.87968 18.5549 50.8392
5.58358 14.2776 35.7533
4.68755 9.21208 46.2431
7.54647 6.16843 23.3395
5.08942 8.89657 39.4918
7.02497 6.3037 29.6804
4.8459 15.6792 66.1439
8.41811 13.5161 67.0317
6.68841 12.224 39.407
3.95033 8.62885 45.8171
5.70043 13.482 41.3492
3.84249 10.8459 19.0014
4.10692 6.58772 49.3108
5.96879 4.7106 27.4231
4.60054 11.2682 48.0529
6.3115 7.71077 55.9928
6.94566 15.282 33.7529
5.39288 11.6968 72.6157
6.15957 14.3026 31.4312
6.19232 13.5865 61.5311
5.73253 16.2585 43.9093
5.26946 8.38144 35.2167
6.45523 11.3707 76.8202
9.6208 16.4196 37.3551
4.1135 6.34191 45.7943
4.26001 13.4249 60.0672
8.54539 23.6293 63.5049
8.64374 5.82181 26.8173
4.74456 17.0781 98.8623
11.2218 14.4112 45.6534
8.70911 15.5272 45.0625
4.56591 4.554 25.2493
3.70346 12.2866 90.6425
8.65657 20.4156 50.6107
5.20609 14.2828 23.3207
2.83737 11.7877 49.267
3.91492 7.42201 24.5094
5.58118 9.77203 92.9812
4.51679 18.2569 47.9269
5.53275 8.27367 30.6889
5.42513 10.4852 66.6672
4.40371 16.5655 52.2131
6.25857 0 0