# pn-170911/CsIIA-39-KOKB-1280-1959.psd
# Power spectrum* (dif=0,1,2) (really just |FT|^2)
# NOTE: only the first half! (symmetric)
# weeks: 1280-1959
# 5 clock-days, 2 excluded
# PSD: 1441
54891.9 1.4085 0.0223656
3.91981e+06 43.3849 0.00844537
1.13027e+07 228.268 0.00918647
977020 42.1246 0.00883371
1.0971e+06 74.9352 0.0150453
449516 45.1199 0.0116999
742576 86.6948 0.0300709
299171 51.1262 0.0291625
142702 35.3707 0.0175718
129431 44.1487 0.0227463
133728 34.3214 0.0218429
54187.6 30.4622 0.0216128
77866.2 36.4301 0.0330872
93180.9 42.8731 0.0241941
135472 103.793 0.12015
50967.5 55.5393 0.0443317
67052.9 65.4212 0.0664193
59369.1 42.4755 0.0779633
33272.1 51.8629 0.0667599
21930.5 39.5605 0.0957082
33254.8 66.6183 0.140008
37786.8 48.666 0.109693
24556.5 57.4124 0.149659
29775.2 70.3429 0.219156
63580.4 138.036 0.36586
31793.4 62.4794 0.186132
12396.9 41.5143 0.123393
35136.9 85.1103 0.288181
28266.3 82.392 0.312868
6822.8 29.9793 0.124134
5621.78 29.5722 0.137782
22551.5 88.4667 0.361653
21128.3 77.6661 0.366968
20459.4 81.4029 0.465449
12309.4 76.5954 0.4363
8545.63 44.5514 0.258574
8155.45 38.7838 0.210109
21175.6 97.0588 0.645914
9182.07 33.4373 0.274662
14868.8 93.6514 0.702501
8413.4 50.2685 0.355218
10258.1 44.3876 0.406888
3745.02 19.4614 0.127503
11340.7 62.9725 0.616444
6958.76 36.6678 0.306033
5842.38 44.0524 0.383955
7959.18 71.415 0.724879
2158.46 13.7252 0.135782
2521.29 36.2909 0.429454
4721.21 40.8933 0.547358
1602.54 46.542 0.588735
3368.83 34.3204 0.416835
7416.23 69.3856 1.01775
9669.76 82.4565 1.0595
2797.98 28.1257 0.363211
5519.88 82.2466 1.112
3170.4 26.2669 0.366962
6017.43 99.253 1.37418
4496.5 84.0633 1.36509
3682.41 54.3307 0.901061
2919.4 52.042 0.919996
5055.44 70.1528 1.23507
3432.8 35.0058 0.60084
6031.59 80.6477 1.54176
6121.78 94.7466 1.94216
2144.5 49.2726 0.855652
3356.35 74.699 1.52776
1251.68 47.5931 1.06182
6809.98 111.233 2.43576
3271.62 52.2586 1.2866
3192.48 45.4603 1.09067
1888.43 33.5063 0.748191
1742.67 33.1713 0.887934
2457.01 33.1598 0.861389
3612.07 63.7361 1.55424
2401.17 73.2199 1.84692
2857.95 42.4603 1.11943
3285.58 89.564 2.32842
2778.66 80.0719 2.28746
2708.81 68.8714 2.1128
2710.19 71.4097 2.00016
2745.11 65.7933 1.94085
3316.37 72.2909 2.46319
1071.89 40.0699 1.20185
1116.31 39.9701 1.30576
1222.07 47.8367 1.73453
1190.21 29.3827 1.18045
3632.71 89.7594 3.1706
1382.89 43.9145 1.66639
2509.95 91.5587 3.28079
3676.26 104.103 4.00324
1985.34 61.4816 2.68488
1994.57 51.85 2.10239
1133.64 27.9616 1.04145
1416 71.5466 2.90354
1521.73 66.3867 2.82289
833.459 37.1806 1.60415
1404.25 53.4881 2.25744
2291.5 97.5773 4.54683
1340.04 53.5118 2.65611
556.501 25.6446 1.23298
1896.26 87.767 3.98557
2581.07 95.4742 4.67198
2401.61 76.5639 4.02441
737.649 34.0577 1.72243
1345.35 58.9595 3.14113
674.372 24.0673 1.22923
411.392 17.6736 0.914589
845.258 20.8423 1.22429
574.37 34.2794 1.85152
1252.57 60.7778 3.8112
823.723 47.3539 2.70484
675.284 24.9451 1.59049
1247.14 67.4984 4.00295
762.167 40.9723 2.68577
827.007 31.9646 1.89284
485.558 27.2857 1.77129
792.936 30.6786 1.89645
986.063 47.5283 3.54893
821.494 93.3541 6.18675
901.285 44.6818 2.97977
385.746 22.8417 1.51113
691.815 26.8532 1.98216
996.663 34.9225 2.32131
673.505 36.3738 2.73914
651.965 46.5198 3.40216
773.38 101.964 8.21101
1398.44 66.9051 4.77562
1136.58 52.9121 4.08347
1216.07 66.4326 5.49287
892.029 77.1438 6.3526
949.68 42.6733 3.31768
1186.08 94.8955 7.91468
547.737 36.4332 2.65314
645.247 38.4569 3.46802
398.361 47.8918 3.67091
773.911 91.2278 8.35508
991.621 70.9118 7.27011
955.617 64.5554 4.93386
595.603 68.7192 6.68138
669.091 55.5124 5.21019
625.193 33.3154 2.5217
527.679 62.6785 6.42324
843.933 48.8595 4.16018
504.321 52.1515 5.41699
864.964 77.0919 7.47287
457.526 39.8953 4.34632
486.684 34.1914 3.60286
574.1 52.5512 4.93632
395.581 25.8719 2.90356
533.362 43.2301 4.50803
382.568 14.6044 1.35238
703.699 52.6364 6.26734
387.281 52.2071 5.28448
176.107 15.2851 1.78664
754.136 62.2357 6.79903
427.027 38.5586 4.67506
336.922 21.8342 2.47957
254.058 29.1307 3.55243
660.775 50.4749 5.99833
932.536 90.7701 11.55
419.642 30.3835 3.47079
479.873 60.4833 7.1302
536.034 53.4638 6.94022
516.031 54.3842 6.70981
266.06 21.3795 3.08005
447.078 50.5724 6.36954
198.402 27.187 3.84187
448.326 36.7016 4.96431
309.608 39.3081 5.62335
394.169 63.2296 8.56672
461.357 54.7054 7.74281
280.478 49.47 7.14609
556.559 59.0821 7.78747
412.43 75.4083 11.3801
779.154 80.4306 11.2561
314.071 48.6021 7.47232
285.128 22.4685 3.17297
423.708 22.2368 2.85557
319.401 23.3717 3.29858
608.446 49.621 7.5704
373.484 39.6152 6.82321
374.248 57.5135 8.95715
526.578 40.3998 6.03057
210.435 12.2313 2.30246
770.198 91.6896 14.7903
228.288 14.9836 3.40114
325.642 54.4844 7.95897
215.476 45.7772 7.87699
618.753 78.729 12.8559
320.591 47.7386 8.2186
195.216 39.5799 6.71179
188.888 44.7178 8.35687
284.907 42.8709 8.16437
507.123 56.7813 8.87679
323.069 47.3467 8.11101
474.22 88.8145 15.7529
161.812 20.4264 3.82101
136.476 22.3272 4.24841
151.295 20.2581 3.87978
210.882 38.1356 7.67932
236.202 29.0845 6.90894
586.011 72.8972 11.7735
144.113 25.5925 4.51054
344.377 48.6111 9.31558
88.431 25.8127 5.24849
228.392 52.124 10.9016
192.155 51.5897 10.4439
264.374 44.2523 10.4443
613.543 78.3628 14.6419
236.747 31.1741 5.86161
440.248 67.6541 14.1729
500.239 63.5113 13.6948
474.423 56.5538 11.3055
228.17 32.5673 9.0115
341.295 37.9689 7.23682
311.871 47.6245 10.438
300.069 40.6858 9.34527
251.89 56.5397 14.4632
398.26 76.7292 16.3213
220.241 56.1891 12.3685
188.613 18.8138 3.70532
75.1341 21.5993 4.46577
128.658 19.7588 4.7544
187.856 24.8162 5.31124
193.371 36.9484 9.07713
157.274 36.0283 7.4567
370.427 88.8611 20.8449
96.5228 23.2533 6.14083
389.384 52.7777 11.2601
249.011 40.5749 10.6488
169.26 50.4194 11.5254
263.79 43.0823 11.9137
204.96 47.9919 13.6575
185.777 58.219 14.1331
257.168 40.6301 9.40598
380.312 68.7474 17.2015
159.565 41.3256 12.8165
176.081 32.3944 7.27433
180.286 32.8694 10.2357
274.61 43.1418 11.8537
228.384 47.2894 10.8227
276.734 60.3418 14.8738
61.4747 16.4462 5.08022
250.771 56.7395 17.7847
114.424 25.2205 6.38746
103.3 19.7627 5.55225
108.162 37.6425 12.5718
128.433 23.3333 7.5876
338.075 66.256 19.3904
121.692 14.8086 3.37857
161.067 41.0878 11.3354
65.0482 43.9817 13.3418
159.029 29.2961 11.0065
299.087 71.9534 19.973
169.523 41.9727 10.4859
148.469 44.8692 13.8667
65.6379 28.8991 10.3858
233.67 43.3939 12.6191
95.1042 23.6144 8.38718
154.722 35.4245 11.3655
164.335 42.6057 12.7354
133.163 44.252 14.0609
191.051 29.1417 9.1462
96.3397 33.4274 10.7121
152.924 29.7865 9.14365
133.544 35.219 13.7926
185.797 53.2119 19.0648
95.2612 21.807 7.99222
79.149 14.9578 4.73974
119.084 35.4528 14.2564
105.573 23.2581 7.62974
211.082 40.6544 11.8596
241.314 54.082 17.4959
123.552 22.5477 6.12801
140.203 22.7391 7.86764
201.78 43.343 15.8138
90.7658 22.8342 7.14695
138.291 30.9687 8.87463
239.989 83.7061 33.9471
159.133 34.0973 11.721
168.581 35.161 11.1116
163.146 37.2759 15.0878
138.218 19.7533 5.56575
161.961 44.7902 17.3293
182.447 47.8836 14.6394
162.273 42.134 16.8391
109.319 41.9446 19.081
217.657 58.7207 21.0786
103.169 19.6491 6.99811
118.649 39.0167 15.7055
74.8602 14.1628 5.44658
138.94 53.7493 21.895
170.244 49.7634 17.1078
143.865 43.4814 18.9365
41.2798 11.2857 6.26734
91.814 43.5781 18.2737
142.158 29.2218 11.2354
86.0826 12.3021 3.82984
129.448 30.755 11.8445
143.346 25.4445 11.2573
99.409 25.9755 10.3778
122.068 34.1787 14.4394
61.2441 25.0676 10.3177
253.35 86.8843 35.0222
125.13 35.841 15.3942
87.0395 24.6994 12.7379
113.529 50.5442 22.7197
139.011 32.3689 16.5341
100.052 46.02 20.2789
91.0394 41.7128 19.8233
154.826 43.7895 15.973
268.005 94.0931 38.9455
82.7579 38.2497 17.434
109.274 55.7934 31.5475
130.108 57.4661 21.4827
105.721 31.476 13.9905
67.7205 19.1193 9.07601
81.8767 16.2055 8.14052
124.474 45.5822 23.2089
207.085 53.7259 22.5587
28.1155 11.8052 6.26084
181.375 62.8031 26.9292
89.459 23.0593 11.8507
154.635 69.5446 31.6337
125.203 28.6018 11.595
97.9074 30.9704 17.7552
86.5884 25.1333 12.4234
148.139 41.369 16.5637
90.6307 37.2227 22.703
198.39 67.1728 26.7157
76.6525 41.7546 19.7463
69.7241 31.2426 18.4643
74.3033 22.0488 15.2616
143.282 42.4242 21.8194
116.787 40.4406 17.4004
202.518 68.2879 28.8578
109.08 46.348 24.6267
185.394 75.9643 44.3336
51.8202 35.3315 20.3992
69.628 31.4378 16.1996
64.068 36.8637 21.1707
82.2984 32.3743 21.6652
34.6419 25.3137 9.34392
34.0496 23.3205 14.2148
25.5304 12.2691 6.50233
95.5257 45.9972 27.23
56.5316 6.21943 4.29147
78.1457 19.025 7.4119
66.1383 24.2259 12.1025
41.2414 15.5771 8.89014
161.936 75.3286 41.4436
48.1877 28.887 21.4512
53.2725 14.507 6.82583
51.7753 17.5937 12.6701
84.5856 32.3023 13.9176
63.8187 24.9521 11.9656
89.7406 42.3823 28.6568
90.5628 45.0669 22.9634
93.6349 42.5697 25.4774
75.3993 25.9644 16.4676
57.3036 15.1392 6.06971
101.339 35.9676 22.2107
46.0658 26.5884 20.3706
123.311 64.9141 37.6993
63.3507 26.2923 20.2346
77.4824 31.6934 12.4155
86.1533 43.5507 23.1086
74.7947 47.8149 29.1821
57.8382 41.6636 30.258
32.1288 10.3044 10.2149
87.0829 26.4326 15.5975
48.6705 10.9341 6.53665
78.3479 20.5321 13.8868
98.8 42.3018 25.7665
100.418 23.6323 13.2601
121.248 57.7676 37.2169
65.947 29.3919 17.8517
34.835 8.28438 4.80403
68.7151 24.9658 15.9327
25.3263 11.3618 8.43642
38.0763 27.8172 17.5823
36.0271 39.1245 31.7439
89.2201 37.1095 18.9702
42.349 26.3405 17.3198
73.9718 33.2949 27.5862
68.8899 24.0434 14.3026
46.9864 16.9534 10.5798
76.5541 34.8204 25.9298
65.2471 51.5867 33.2098
63.0127 33.9432 19.7279
37.0872 16.7118 13.5179
39.6184 16.9101 12.2636
88.7177 48.5726 32.73
66.7976 22.4965 14.0124
53.591 26.0667 17.959
43.9687 22.795 13.287
31.3516 19.8717 13.2593
65.4187 21.1088 12.1141
33.839 17.7274 11.492
73.4327 60.6619 44.9622
68.1303 36.6045 27.1967
62.513 34.8501 26.875
32.3199 24.684 19.6897
70.3558 34.0788 25.8809
98.2353 34.7841 21.0249
30.1481 12.8025 10.072
52.7421 27.9262 21.6345
123.317 95.309 67.1931
31.9773 22.8432 18.6113
66.0635 39.973 35.3611
42.3504 11.7927 11.0436
71.7191 19.8975 11.4646
47.047 28.2072 26.4174
134.608 65.1987 42.8516
53.7999 39.3643 34.4441
19.0308 10.5952 14.1582
68.1159 44.1946 27.6719
97.1608 40.7593 28.3235
19.5238 6.83778 6.77886
28.1116 15.1608 10.6155
72.7662 37.9466 32.9218
120.565 82.836 54.8186
61.4225 43.1902 42.2907
50.106 25.8558 22.1101
42.3578 24.9622 27.4957
21.7981 7.24166 12.0964
119.917 62.9327 37.2471
28.7868 15.4682 13.4414
39.6568 32.0239 24.442
29.6173 4.41368 6.57849
52.315 20.4034 14.0543
17.1311 9.06444 10.3108
39.9455 23.8023 18.6057
10.2968 8.48543 8.00036
34.7368 16.135 14.3321
36.9432 27.8568 27.7184
55.0418 32.8175 28.095
77.1529 40.3498 31.8198
24.1978 9.28441 3.43041
29.6886 31.0499 34.8613
59.1902 28.7377 16.6988
22.6706 17.3768 16.4734
56.7829 35.7745 32.617
40.5772 12.1881 8.76519
41.8888 19.5323 16.9855
17.1405 14.2202 17.1401
31.8038 15.0409 15.8385
53.3714 27.6829 21.744
40.1437 19.6029 16.2943
66.168 46.2442 33.798
28.1813 39.7352 35.916
19.9849 8.02233 8.94955
58.8117 28.8563 23.6384
26.2376 20.4286 20.3216
42.2616 27.0757 27.7315
21.3878 12.6559 16.9415
57.3029 24.8228 17.3474
31.5221 11.8401 12.0674
58.5673 37.8239 38.4961
56.3305 38.1154 49.8644
81.7007 49.9556 34.0805
23.4885 9.06689 3.70224
45.3337 19.2196 13.8454
28.4495 15.0686 23.25
17.82 17.0413 10.9589
12.7904 8.85917 9.23128
47.4862 36.1609 30.7011
64.7697 41.4136 31.9718
40.5202 16.9985 13.7247
44.9016 30.4989 31.1068
46.5729 20.6831 19.5372
22.8528 9.55119 10.6377
39.1344 35.7596 38.4806
11.9515 14.8726 15.152
40.9473 37.6267 42.1033
31.9899 15.9737 9.44646
5.99146 16.6002 15.8493
27.2107 23.6723 18.6051
34.0873 35.1213 42.9027
56.8056 30.2807 20.5021
38.5216 34.3908 42.4395
36.4438 20.6092 19.0156
29.8387 27.0059 25.4206
25.5769 13.5203 17.2534
34.1932 24.9661 31.021
56.7348 27.2623 24.2882
23.3316 23.6208 29.5817
38.1983 5.29812 6.5563
46.8216 23.2777 17.4143
29.4774 19.2856 21.5864
49.0704 20.0471 18.5012
34.8949 16.4643 23.5751
77.5034 41.769 33.4764
21.0095 25.2744 25.8738
20.9099 17.6412 25.7805
32.4934 7.69274 7.6121
38.0479 36.1069 33.2124
32.0532 11.4167 9.4818
12.0766 12.1942 14.4582
17.7009 5.90566 7.86556
14.724 10.0559 10.5452
14.3688 9.47524 10.9981
54.5339 24.6843 13.5427
57.7621 51.0189 47.4446
33.2381 36.7197 45.5713
35.7719 35.8884 50.6676
77.0186 71.0159 65.669
20.4847 8.05761 9.02763
30.5356 24.6464 32.373
37.243 10.6034 12.5846
29.1194 10.3165 8.56178
18.5882 12.0542 18.6767
27.2174 18.0262 20.3965
27.0248 18.9265 24.6284
26.4272 21.1301 17.1918
36.3277 17.5928 21.9114
39.3772 40.9964 47.2025
37.2652 29.4858 45.2555
25.9116 14.3758 10.0833
59.7898 53.643 50.5437
61.5561 66.0201 84.9146
10.4673 5.23748 20.225
32.922 37.8199 34.0313
23.4442 15.1593 24.4687
17.0184 18.8542 27.0068
45.0311 15.327 14.033
29.4269 34.1051 24.8325
18.0357 19.1785 28.1261
28.0097 20.7194 32.298
63.9534 50.5369 41.5989
16.191 13.222 20.9551
17.7862 7.20056 18.287
37.0499 25.4372 27.1108
17.4021 12.104 17.5749
14.201 14.7951 24.9315
28.0422 24.0266 36.3804
25.7464 18.1888 15.6626
24.2061 32.6218 45.1768
50.1335 32.4721 30.9153
26.6442 29.4413 31.7203
23.565 15.9836 18.8254
11.3937 9.97234 15.6593
8.79564 10.7552 14.0522
52.0999 67.26 60.6634
22.6844 54.633 100.012
52.0092 29.9545 27.7383
19.6845 17.9459 24.1741
38.9049 28.9526 43.9576
34.7412 27.5776 27.8868
11.9106 7.64242 11.1261
24.0321 20.3589 29.595
31.4473 15.286 22.1118
26.0073 19.9975 28.5342
28.7032 13.0188 10.4635
13.6299 10.8884 18.4822
24.3379 10.9481 8.82807
30.9438 13.3161 17.3155
20.353 8.86026 12.4865
29.7426 16.7296 20.062
22.201 27.9422 41.4581
24.635 17.4297 16.6445
9.57281 9.42026 16.5807
14.7677 5.48034 11.3706
29.9272 19.6211 23.3235
32.5831 18.7108 21.6149
24.1865 26.0593 39.6343
17.8208 10.1245 14.3823
20.5029 11.2083 9.37425
20.9444 27.5887 36.7153
21.2296 15.1649 17.3472
7.51318 4.08947 13.7402
37.9174 32.3983 35.6291
34.7017 34.5314 44.8555
11.02 15.839 24.3922
12.831 12.8228 24.2944
12.4885 6.77698 14.5839
22.4172 10.0509 15.7874
27.0946 20.6456 16.7104
21.6931 19.6324 35.7047
15.6002 14.8328 23.0495
35.5171 22.1441 20.3327
23.1447 21.7527 33.4058
30.3913 20.2242 28.2227
23.8862 13.9004 17.8174
13.9344 7.98326 11.3862
9.97731 19.5441 29.9952
32.9233 30.6625 53.1582
23.3892 15.0559 10.6382
18.6771 10.7207 10.9546
12.3048 7.80517 17.7943
24.3614 16.155 18.1312
6.75873 5.85863 11.1436
23.1092 17.0646 32.3113
17.2052 18.5222 16.7775
24.4481 27.3075 37.9147
14.2784 4.56764 9.14953
29.6013 15.307 21.191
16.3304 11.9397 30.516
23.091 19.7645 17.7766
16.1292 27.1232 36.2376
11.4401 6.98846 8.7775
12.1857 18.2757 41.4428
30.3844 20.4618 27.3631
26.6263 9.36621 9.13814
17.7566 29.5573 77.2686
44.5358 27.2951 15.7332
34.7776 43.3184 50.1852
11.6471 8.83316 23.304
24.8297 24.5988 31.4957
16.4287 13.3256 32.6435
28.2451 12.2045 28.8121
24.9515 17.9441 15.8775
14.1485 16.3139 30.2471
19.3876 10.1093 10.5523
15.9209 13.1203 28.0308
47.2977 36.8271 41.0604
25.6937 19.3861 22.7533
12.8438 10.9235 22.4603
17.8119 25.4428 35.438
11.1812 8.07464 23.1053
39.6641 32.4255 36.171
26.2226 38.2889 70.0385
29.2849 30.8142 50.7869
43.4944 45.6123 63.3825
11.4929 7.65229 10.7159
14.7058 21.5229 41.8671
20.0348 13.4028 27.0228
35.0245 27.6524 33.5818
19.2317 8.92566 18.009
14.0104 14.0285 17.7488
27.5778 24.1355 43.5331
23.0036 26.4515 39.2243
14.7562 18.5145 39.6388
18.2777 31.9399 56.1187
17.5652 6.14765 11.8574
7.92446 8.5357 16.5656
16.0363 6.54998 13.4053
22.8372 16.4602 13.5148
15.4083 14.4034 25.5531
26.5025 15.3836 22.131
9.71658 13.2312 29.6372
20.2222 39.1127 62.8066
20.8295 11.7985 17.5574
17.2541 13.0881 19.8779
5.77038 11.7821 26.3448
24.9741 16.7647 17.1318
21.9525 23.4099 45.9947
11.3724 6.05233 9.03783
19.3799 19.9571 34.6737
8.71808 5.78308 13.0876
21.454 20.464 25.5654
11.9552 8.17999 24.6273
22.9023 15.989 18.9021
18.5904 20.3616 36.3011
9.6561 7.55015 14.9214
9.3177 8.12241 18.5152
8.57713 10.4291 29.8709
27.2207 42.1024 61.8956
15.2377 12.7927 29.1458
21.6468 37.6928 70.3903
29.5268 33.402 61.7526
25.6306 29.4654 42.1013
8.35943 8.91732 34.5472
17.7213 21.14 14.3845
10.0244 11.0433 15.2801
14.1633 7.29578 17.8276
7.14402 7.00473 9.90429
15.0716 12.8875 34.2708
11.7209 12.5458 16.5864
10.2387 13.7167 11.409
14.37 11.2753 16.1122
20.6728 43.5335 85.6523
16.1204 5.92065 16.1545
10.8015 13.0008 24.7446
10.9698 14.7177 30.2514
20.4461 20.5334 45.0253
14.6396 14.7512 20.9081
21.7004 24.9041 39.9815
18.9745 29.9586 47.6223
10.0346 8.66796 31.0242
13.6848 6.70091 9.66696
10.7161 5.70222 16.9769
10.7091 14.5179 14.4261
10.8686 9.82934 16.7319
18.2611 11.942 24.5527
16.1691 20.5252 39.159
10.9296 16.5935 24.9057
8.54101 4.12928 14.2226
11.0441 6.34823 8.96205
16.1041 25.2046 38.3292
11.1531 17.2366 32.7362
14.3218 13.5228 27.1004
6.37663 6.49305 22.0438
10.3304 9.16338 20.4422
21.8992 26.5822 36.1471
15.7366 10.6268 19.9639
9.49288 5.34415 8.38331
13.3255 16.1845 34.1798
15.5931 14.1884 27.9441
15.3327 10.2675 24.647
14.9311 27.4263 42.2144
12.2208 18.089 35.4179
14.4318 8.41821 15.8148
16.1615 19.083 32.6666
14.0931 15.293 37.1051
18.1198 22.2922 25.972
8.18409 7.82889 21.9041
16.0718 18.3418 26.3599
17.5424 43.1188 58.8528
15.938 28.8917 73.5564
13.7693 24.1905 41.5932
9.06232 16.2332 54.6732
17.3543 6.06115 11.6056
11.4834 6.45273 15.6411
8.52833 5.38973 11.4032
9.42648 10.9094 23.1291
16.0824 23.8947 56.4046
9.98075 9.89106 32.2906
15.3354 12.7931 16.2964
9.50394 11.2261 23.0479
9.65321 9.43035 42.2649
20.2788 15.9951 20.8662
12.7664 17.0933 37.2851
21.3414 17.7614 24.0387
12.3519 3.35537 12.1563
13.1994 14.1899 25.1699
23.256 31.7444 52.6735
10.4972 7.91408 19.9921
22.482 42.9353 75.1084
9.72321 1.93764 11.5018
11.6811 25.7409 59.7773
18.8774 14.9373 18.4695
17.0871 16.3475 28.6193
11.158 16.9962 40.543
8.26784 7.95954 32.6673
17.4483 17.3477 42.2078
18.6944 18.6601 28.3735
8.9967 12.4834 23.0232
9.74109 17.6113 31.3928
15.6436 19.6261 25.0364
11.2889 40.4791 108.856
22.4026 11.3878 13.6458
15.9267 12.2103 21.2812
12.6964 12.2756 28.9532
11.4528 6.40149 14.323
12.3367 10.4145 29.7387
18.7282 20.343 33.5529
5.94929 9.10138 31.7645
10.5502 9.49327 29.6177
24.1281 32.9883 44.7585
8.31742 12.0963 22.9183
10.3957 12.8756 37.4465
15.2023 11.377 17.9034
12.1112 13.5379 34.7503
8.1974 9.84327 28.436
9.11949 9.40187 22.7919
11.6452 8.41123 18.7792
10.9932 9.14102 12.8675
9.58805 3.46695 15.7653
12.1033 16.1327 40.1305
11.7275 13.6456 34.4257
13.2524 9.29972 18.9987
14.209 11.9477 45.8488
28.8705 43.9237 49.1814
8.02788 4.66439 9.99984
14.1244 29.1955 78.1082
19.8541 18.0201 29.4488
9.53527 15.7787 84.0902
22.5432 26.3929 19.5813
4.13396 9.10282 13.3854
8.75177 4.86015 11.5028
10.141 8.15313 24.8065
14.7196 20.2618 28.4051
4.21756 6.9739 26.3203
7.21731 7.33243 11.5566
8.14739 7.79056 13.0194
6.8586 11.0425 33.4816
13.7475 13.1557 36.4652
16.8508 21.6898 47.0429
14.4515 13.918 27.0098
7.77429 11.8868 16.6383
6.27487 10.2579 34.2951
10.3426 8.56311 18.3735
8.64997 15.4052 34.9096
12.0911 19.35 48.5544
14.8508 11.9005 15.9535
9.0824 18.2502 35.456
7.90072 18.9376 74.7038
19.8496 28.9198 42.2454
7.97479 9.159 23.2619
4.80267 6.22782 23.5585
11.0354 9.95464 33.6353
18.4889 26.5727 42.2184
8.26713 7.9621 20.898
9.05312 14.5409 45.8246
10.223 15.6572 25.9054
7.77546 9.57034 36.9903
11.5457 7.69782 14.237
13.2107 29.1096 85.7322
19.8654 18.5874 27.4939
8.97526 4.60143 12.2881
8.37996 4.68644 15.7346
13.4829 12.7897 15.3773
10.2847 16.6768 35.7624
4.74419 11.414 37.6658
7.81716 6.28652 18.3269
9.89129 5.14541 28.7135
11.69 12.2278 17.8714
31.0824 71.1111 101.473
3.92454 24.8471 77.982
8.48636 4.82272 9.46261
10.1246 7.83384 22.2934
6.93793 11.77 47.7077
7.88525 8.22239 20.8397
7.43327 10.7263 27.4574
10.1108 10.8485 26.5117
7.19064 10.8776 24.2943
14.227 13.6083 28.0872
11.594 27.4641 53.299
5.4776 5.2431 21.5886
11.1267 9.71893 14.0555
5.34564 7.07339 24.7119
8.88271 9.16635 29.3867
13.0259 8.45114 13.3912
7.73012 9.53035 27.5921
9.85986 16.1003 43.3231
4.75699 6.90092 29.1154
9.20198 38.2789 112.379
22.245 11.1748 15.3055
7.61584 8.74334 35.3079
9.60715 12.649 44.0367
13.3927 12.5876 18.0927
8.44811 8.1511 25.953
16.1751 12.9645 23.891
11.3633 14.695 12.7595
6.08512 20.9508 52.1593
7.14697 8.57324 40.8702
13.2624 10.0466 24.6163
8.63067 6.60399 22.3406
14.3668 10.245 17.5506
7.07287 8.26211 31.3616
9.93816 12.7567 29.0139
12.1125 8.44902 12.7484
8.47357 5.94857 17.8746
12.6869 13.8751 31.2234
10.5527 13.0698 28.8864
8.55877 11.8875 35.4097
8.56688 10.0971 40.4012
13.1729 11.7116 23.4407
13.3752 24.9611 46.7772
8.30183 7.86081 27.0611
12.9499 13.9038 38.6622
12.0193 14.9434 26.0505
5.41232 11.6541 44.2595
2.73354 8.8424 60.0923
14.1608 18.8652 42.9665
13.1541 15.4246 27.6546
7.33914 13.6668 15.7055
5.48003 14.8862 34.5517
7.84071 3.55648 9.73516
6.0037 5.88639 7.39912
6.73134 8.64484 25.1602
7.45302 12.9669 26.6682
7.52979 9.15257 37.9064
8.83018 7.64485 13.8602
6.11252 13.8434 28.7764
5.45616 8.90877 35.3393
9.05795 3.98736 21.865
14.77 22.2147 67.254
14.1058 11.7994 29.1121
10.5048 9.97203 7.01298
7.56413 10.9887 43.2372
10.6612 12.644 22.3556
6.01932 4.11092 11.7144
6.19229 4.81984 10.8651
4.57758 5.7158 19.4539
7.54773 5.83714 28.1419
12.9588 18.8333 27.6419
2.79884 5.50992 20.3678
7.65867 5.46814 17.4966
6.23907 8.1645 12.2055
10.383 20.3181 60.4027
7.42319 9.36942 27.2079
8.37566 7.239 24.6519
12.7981 21.6792 45.0425
6.42748 5.88351 40.3626
6.56194 14.7731 31.9365
11.1033 8.03372 26.4712
8.34653 8.45906 16.9119
5.9541 12.9276 22.9235
8.2819 5.8882 24.6151
4.02904 8.98258 45.0233
7.95386 8.85753 18.2616
7.35173 16.2837 37.0114
7.33517 11.6568 18.8453
6.66906 9.63703 31.8469
7.32229 6.17844 17.6503
6.20448 8.26365 19.6457
7.19755 11.5054 29.4121
7.02065 6.4107 16.5907
4.73113 7.92697 34.2934
11.4159 8.6038 5.91403
6.79347 19.651 73.0968
12.7695 9.76868 21.2132
5.54928 8.15175 24.0166
9.68171 7.465 24.7663
12.5454 11.3255 31.4593
11.5541 15.7437 33.7959
7.65122 6.63723 28.2953
6.919 5.53224 21.067
15.2039 26.5276 77.9868
11.1957 13.5312 30.6201
10.5827 6.65466 32.2696
15.3824 25.8079 45.7953
6.42198 10.8594 45.5256
6.96746 5.41355 6.62595
5.85819 6.81644 23.3107
7.35727 10.0594 18.7334
7.93559 7.25519 22.0886
5.75666 7.89861 31.929
9.03932 5.92308 15.2089
7.33973 9.09243 21.4477
8.81895 12.963 31.7886
6.36238 9.69288 60.2061
10.5356 25.1732 42.7843
7.52865 6.27994 21.5912
8.1601 5.90578 17.6514
4.73887 10.2334 33.969
7.03072 6.55982 19.3207
5.50055 6.64412 13.571
7.37449 7.10644 37.0588
6.83299 11.8048 32.1089
7.55721 7.00927 10.7606
8.02485 13.2625 44.4642
6.18541 6.85278 12.8229
8.72833 6.83967 37.289
5.92155 12.3902 34.0962
8.35052 7.14723 11.9357
3.92066 2.26841 29.3147
8.69848 18.3076 20.119
3.09811 8.6006 39.8852
11.3384 12.5799 39.868
10.8454 18.8076 41.3425
6.00398 5.60109 8.80015
5.22894 3.86892 19.0072
6.86654 6.20203 12.6259
4.59612 0.716574 3.17576
3.84368 5.43485 23.8804
6.46854 11.2779 31.478
8.56358 6.52596 39.9355
9.44754 24.1315 48.9925
7.49628 2.83238 12.8589
6.28129 16.2551 30.8932
6.66123 3.27332 13.4569
6.05866 5.85366 47.9991
16.6236 28.3842 68.9409
9.71278 7.3693 12.6722
5.73213 4.60013 12.9881
5.15455 3.68969 19.6281
4.18366 10.1262 38.8535
9.6832 8.22143 20.0156
3.84218 6.83759 18.5443
8.08354 6.84461 9.5395
4.75952 4.90186 20.646
8.03444 17.368 48.2593
6.91019 9.63132 21.7247
6.25323 3.56086 25.2757
6.28546 11.0517 29.5281
9.34418 4.74233 24.6118
8.18975 23.8106 45.3537
5.57354 6.19681 30.333
8.54921 7.43393 31.1923
9.5556 6.72048 11.0939
5.98813 3.50517 17.271
6.0034 10.1591 18.1336
4.9201 4.27974 31.4939
7.38008 6.80098 11.1051
7.82074 13.6769 31.5957
3.84516 3.59764 17.8321
6.7954 2.76874 14.9032
7.45627 10.1857 24.5976
6.27537 3.57311 11.6224
5.95157 5.74415 27.6298
10.8996 13.2027 24.6605
5.28602 11.3681 36.0972
6.07095 6.79645 35.5228
5.45325 7.83941 14.2422
6.75915 6.32805 17.9865
6.4542 11.5802 54.7571
7.87458 15.1832 24.5124
7.13413 6.9679 18.54
6.76184 12.6202 43.1708
8.15616 7.43265 38.8704
8.71594 12.2662 51.5679
9.73303 15.2219 32.107
4.8505 3.10238 21.9696
7.63492 15.4471 38.6931
6.5346 7.6108 19.5167
5.57522 18.0359 43.9636
6.98183 6.00975 29.3534
8.32529 3.12073 13.3707
10.1086 6.69521 8.89222
6.79498 12.2543 38.4634
7.15439 4.99987 29.2711
6.15031 5.50049 15.3086
2.24222 8.73762 35.3354
9.51789 3.29329 22.4986
8.4755 6.50957 11.0149
7.84505 8.63809 16.2945
3.83202 6.40625 39.8503
9.89149 12.8147 15.2819
5.68614 5.38208 20.2908
7.29488 6.24922 22.4032
8.86571 16.5902 34.3951
6.62209 7.06844 31.159
3.67531 5.57889 31.2883
8.11277 11.2716 15.94
4.8791 4.0023 22.7754
5.61119 3.87897 5.04469
8.09142 9.30521 28.474
4.14321 9.16109 34.4618
6.60563 8.05731 14.8063
4.22426 5.39074 34.9904
5.3951 6.92227 11.5105
6.61176 8.44841 50.0903
9.07359 8.4432 14.5388
3.91645 4.02361 24.4878
10.2883 20.7411 48.1237
6.93656 10.8192 22.1725
4.73571 7.8565 52.1988
7.55744 18.4562 41.8893
9.58021 5.5982 13.7984
5.3456 7.5547 18.3833
4.48876 14.465 51.6294
6.38792 4.91871 13.325
4.07273 7.6779 42.7165
7.44239 10.3085 27.6949
5.51721 6.91566 11.3687
7.13914 5.83824 11.7828
3.47826 8.74229 37.8763
8.20917 11.8848 23.134
6.33702 9.79011 33.8711
4.69489 9.89519 69.6573
10.411 7.6403 25.2857
4.16192 5.56892 15.0847
5.36574 13.5521 39.9378
6.25903 8.37217 15.7352
4.03484 2.61886 18.4424
5.80523 3.95875 6.07993
6.48185 3.49448 14.1594
3.42708 8.23139 22.6901
5.98645 7.06103 20.8286
3.56628 7.5803 41.9301
4.94393 4.59284 24.5562
8.00954 7.24419 10.8729
5.16251 12.4838 35.0732
5.06279 7.70426 20.0968
4.79609 8.49607 23.3147
6.76889 14.067 40.6606
7.53457 3.61936 22.5016
8.44568 12.6487 37.4791
6.43148 6.14417 22.0533
6.03665 7.02414 15.1082
6.14551 6.6713 16.3158
3.6966 6.75723 51.8011
6.80551 5.91803 19.0909
6.28809 4.20565 16.2148
7.48349 9.77586 16.4451
4.67844 13.3212 88.9571
11.6394 16.3931 31.5555
4.71715 6.94916 18.9356
5.00114 2.26128 16.5249
5.26532 9.0386 22.6082
7.65924 11.6954 50.476
6.76506 7.62134 17.2781
5.68225 5.1584 11.3055
3.49491 3.54959 21.7722
4.1089 4.70623 22.2817
3.43558 7.72846 35.1855
7.73754 4.82563 15.5064
5.95137 7.32193 13.9735
5.47033 5.17347 14.8046
5.22955 12.9602 38.5826
5.44596 6.68871 56.7901
8.28341 8.96384 15.4044
3.70886 5.21815 9.28686
4.80656 6.46368 24.6872
4.96133 3.29711 18.1203
6.21673 8.08117 12.5207
4.40272 8.48315 26.2099
3.33094 4.25391 14.9887
5.2794 3.74729 19.2669
5.06824 3.6619 11.5217
5.34775 3.5567 9.84012
5.7084 6.81358 29.6255
7.26572 7.52566 20.6704
5.27793 6.29837 30.0624
7.48201 8.56771 24.5197
5.81366 5.40624 26.3853
8.38351 6.46478 22.5259
7.7402 9.79314 15.1978
4.22521 2.73307 16.0485
4.07368 4.82437 16.105
5.36171 9.03199 22.6707
5.81438 5.41535 20.3718
6.22606 9.21438 17.2756
5.77985 11.7259 31.3179
5.05285 2.07567 17.8693
4.96048 12.2744 73.0288
9.26571 13.4004 25.3261
4.2523 4.42338 21.1001
4.50072 3.42445 22.9
4.26718 8.14862 25.3582
7.04435 10.4138 42.2323
6.8373 7.78081 12.0276
5.72658 6.79127 22.4548
6.17715 10.313 31.2199
3.34408 2.42736 10.0548
3.32218 8.22947 55.516
9.89901 8.6117 13.4621
5.38436 7.0923 29.9179
8.59621 8.65904 30.2456
5.19447 8.28598 50.0522
10.1625 19.8493 64.4345
5.03934 5.56952 15.4803
2.86983 7.16065 44.6113
7.89435 13.8604 22.2856
4.18748 7.98988 20.3401
5.43462 7.90589 31.8056
5.59439 4.44918 26.1645
7.76236 14.0923 60.1974
8.42836 24.1286 46.2956
4.48203 9.21646 16.5756
3.54832 5.98701 41.7153
8.38392 13.8472 44.1677
9.88808 19.6602 61.9119
6.24521 4.51046 47.7782
4.33203 13.2313 21.2075
4.19173 3.29546 22.8473
5.65778 5.89777 51.5992
7.52006 7.04609 31.4708
7.52793 16.3352 52.4939
8.26605 13.5187 22.7305
3.78786 5.69439 37.8009
7.13943 3.6027 17.7794
7.29036 15.9376 25.5686
3.28956 3.58428 13.9084
5.34091 12.851 36.539
4.18139 2.27362 19.109
2.96009 7.28614 51.343
6.80393 9.33 23.3694
6.85222 9.71846 21.0049
5.69297 5.14277 17.6988
2.16641 14.1798 38.1013
5.10226 2.55287 17.8071
4.81396 6.5843 34.2434
4.7148 8.15321 30.5827
8.45233 4.97787 18.5071
5.36303 9.41591 18.4424
3.32367 2.58578 27.9633
3.31195 10.2583 25.0175
5.2386 2.74545 51.9394
10.9079 17.6299 28.3442
3.39809 11.2313 41.5076
5.02743 2.6293 23.8616
6.8555 7.99708 21.9201
4.90647 2.74571 24.8982
5.32446 16.1052 46.1105
9.15689 7.82615 10.5981
5.01773 10.6973 43.3029
5.58119 4.36769 29.4739
5.58065 11.3237 45.2763
6.90037 8.67783 27.4613
3.451 7.52358 49.8147
6.42376 5.32741 16.5033
6.58134 20.6714 92.8899
12.0198 17.4203 24.2698
3.43821 5.53248 21.2597
6.10401 2.94069 8.94083
3.01294 5.36604 21.0927
5.87851 4.11753 12.9696
4.62997 3.34982 22.6819
3.37637 2.70415 13.8326
3.65837 8.84134 26.8448
6.03936 3.42431 5.83589
4.9286 8.7583 44.9941
6.40452 8.34455 62.0911
6.16964 12.631 16.4219
4.40041 7.24466 11.1528
4.82694 7.89136 25.0599
3.32739 3.09601 21.9895
5.02771 7.24184 22.8766
5.14707 1.89518 6.97635
4.98308 7.7709 43.6996
7.29707 8.80108 25.464
3.80433 4.22303 27.5064
4.91872 10.3047 40.3626
9.69487 17.1216 64.5598
5.28183 7.79544 12.4082
3.73401 5.99417 30.444
5.18658 5.12017 21.3086
4.59515 6.81456 19.242
2.89958 6.4345 49.6043
9.23396 18.1983 35.0731
4.4611 3.25376 26.9381
4.00346 5.62505 7.20696
3.32596 8.77877 36.0232
4.78749 2.98978 13.5868
3.36071 1.44258 43.694
6.05192 10.8371 20.7242
3.95228 6.74707 11.6553
4.45982 9.96347 34.6744
4.98328 4.89583 11.0437
3.75956 4.90971 18.7953
5.0002 2.47068 8.91287
3.50836 4.22181 21.0462
6.38898 9.56476 50.9971
8.02918 3.44714 8.57655
4.66415 2.04197 30.6754
7.63972 4.48465 18.2779
6.62916 5.3253 20.5969
4.36007 6.99979 10.4618
4.27297 2.1557 12.5766
5.76717 9.3798 41.6115
5.31865 4.25226 25.4208
6.09982 11.6382 20.5856
6.30554 7.8752 36.763
2.75493 5.6934 12.3493
3.50438 6.03146 14.2021
4.52486 1.05338 5.20872
4.53751 4.58922 26.0058
3.04775 8.68927 25.7668
4.75677 3.5792 14.4304
5.65881 2.78624 19.4697
6.44975 10.256 52.6941
7.22926 13.0116 50.227
3.79314 7.75128 17.6799
4.37913 4.93913 23.3597
3.20178 7.234 29.7625
7.03159 9.1942 15.5373
4.49758 3.13264 16.2283
2.10574 3.28621 24.6152
6.27299 12.5643 44.4455
6.39879 8.21532 22.1863
4.07978 13.1267 26.241
3.3872 5.64945 9.90267
3.83762 6.197 21.922
5.18663 13.8209 120.427
10.8427 6.42465 27.2564
7.45696 7.62106 28.9664
6.52945 20.8951 54.6774
4.18667 3.07895 9.47296
3.63157 4.15341 11.0119
4.28869 4.00308 14.6729
2.98085 2.99475 14.2263
4.57983 4.06439 12.0243
4.31437 10.3249 23.4036
5.49873 4.91968 15.7714
3.10645 9.88335 27.9921
6.00099 2.32388 10.8446
4.32681 6.16396 31.5791
3.84806 3.89266 16.5308
4.33939 6.08894 21.8597
4.44102 9.95017 56.9744
7.90915 6.97607 14.9551
3.79251 5.94119 26.0536
6.72145 5.18517 6.72345
2.8187 2.75122 21.9043
6.03814 4.65008 18.9108
3.96513 8.57468 19.4147
3.74553 2.38849 9.52414
3.32341 7.41407 32.151
3.13561 5.05338 24.0734
5.9404 2.36315 12.1685
4.41443 5.2308 18.3996
4.00616 5.8164 14.4591
3.22984 4.26776 19.1844
5.35069 6.58714 22.5729
4.31262 4.81245 16.7304
5.48284 3.61621 26.3087
5.94941 10.5598 34.6549
6.28195 7.28599 28.5241
5.38788 4.26024 10.0867
2.37863 4.06541 21.0731
5.06071 6.60852 19.8071
3.14057 7.9999 57.8065
8.3622 6.21856 18.6284
3.8011 4.90615 30.6462
6.49238 14.7327 40.0127
3.32972 2.96251 13.9534
3.06682 16.9323 90.7436
8.6766 7.09249 12.3977
3.4205 4.83213 19.0324
3.36684 13.7985 38.4836
6.28869 6.04181 7.21682
2.18228 7.87859 19.6445
3.69713 5.34319 49.4015
5.14697 6.32562 20.3205
3.90957 6.67952 13.0642
5.81262 1.34158 10.6795
4.38724 13.5041 53.0514
7.70163 5.40979 21.7706
5.66631 7.86759 30.031
6.42106 4.68077 12.5609
3.2817 4.4841 22.0091
3.35717 5.4435 27.5914
6.41857 4.11898 26.8163
3.5494 7.24597 23.1727
3.44691 8.3128 24.2491
6.19224 3.1991 10.1436
3.22272 1.3217 8.69259
2.81917 2.30187 10.5916
4.41136 3.68946 33.9234
7.76277 9.09845 21.3758
3.7798 8.17687 40.123
4.53749 7.07167 22.9286
6.0017 3.58861 12.7571
3.92936 3.99602 35.6206
3.96975 7.03972 12.9136
4.91079 7.70805 25.2358
5.5189 10.5633 53.2954
6.93473 4.40606 16.1293
4.19153 8.57428 60.4744
6.48929 15.1165 59.3545
7.76931 7.03945 16.1704
3.36965 7.61181 25.1177
5.67876 7.81452 18.66
4.81396 4.03514 9.94983
3.35144 6.15717 19.9325
4.49211 5.13781 22.0681
3.17603 3.09559 20.6171
3.1989 5.08003 12.2204
5.31171 4.73317 21.8463
5.65235 4.31789 29.4398
4.26231 6.7871 8.55185
3.79916 3.18888 19.0086
5.27898 2.41156 8.67848
3.82469 6.02471 22.8879
4.81687 5.1712 39.6403
6.8461 5.0501 9.15781
5.18286 8.09866 12.7637
3.65091 1.77809 6.00023
3.43587 9.8862 36.3208
4.98248 8.9851 35.0102
5.48716 3.60149 28.8506
4.78262 3.47216 13.7475
4.87449 6.9129 19.5543
4.23611 4.8584 23.638
5.1747 6.73465 20.8667
6.69593 3.20539 11.6468
4.50618 2.69877 8.56918
4.41198 7.79703 25.1355
3.21106 3.49815 13.9686
2.9509 5.79384 37.2062
4.95011 2.90804 11.1605
3.6405 11.3497 35.8563
4.85159 4.52209 15.0734
2.63642 3.74343 16.2235
4.34078 4.85925 20.262
4.46902 2.70771 18.2614
4.32305 6.52938 45.658
6.57932 18.0824 37.5629
6.38253 10.8772 26.0058
4.15114 11.6841 58.7601
4.0352 6.4976 32.8495
4.9348 4.83074 7.30048
3.93248 8.09568 43.6798
4.55165 3.82217 8.39463
3.74168 4.76129 30.4146
4.49668 8.03696 25.3937
3.82231 6.88072 38.9846
4.7346 7.19026 21.1508
4.65138 7.18095 19.7757
3.91958 4.95451 20.6423
4.97135 2.00787 14.9464
5.75444 4.12867 25.5221
5.6754 13.8396 39.9645
4.4681 4.2819 40.6845
4.44981 10.1888 22.6226
3.14345 2.11058 4.61848
3.45218 13.2351 69.1236
4.2642 5.19055 37.8807
5.14489 12.8121 26.5983
4.24073 5.03295 29.5556
4.07142 7.98959 24.6379
4.99042 4.81613 18.4773
3.04875 3.53167 8.94829
3.57794 3.41086 12.9457
2.27829 3.5547 19.2946
5.50909 3.08547 9.37767
3.03978 1.45373 16.9614
4.06534 10.2991 25.2513
2.9641 2.89648 17.6436
4.75116 4.86847 26.018
6.39915 3.02991 24.4236
4.72007 7.15831 61.9891
5.0022 16.4839 14.8495
4.67431 13.6789 75.1631
5.42287 7.25683 17.8998
3.97624 6.38046 11.7934
3.28841 7.45104 40.5917
7.13881 7.9594 13.7499
3.60125 3.06225 14.1035
3.40214 4.99117 18.7724
5.17509 7.09475 32.6367
5.44127 2.76905 17.831
5.78832 5.62039 28.762
6.61795 14.6803 74.5768
4.25142 5.92635 12.4673
2.76871 4.33856 13.191
3.93989 4.59699 20.5748
3.63815 3.36228 22.7625
6.027 10.0901 13.1953
3.36877 5.84825 41.9369
4.2141 5.80314 4.20762
3.48576 3.59807 20.7434
5.02041 2.51057 14.0232
3.46227 10.1927 65.0421
6.82527 10.0714 17.6521
3.26927 4.07512 33.2592
4.67451 6.05739 22.4765
3.59515 8.34212 22.3346
5.85534 5.5626 19.8574
3.94691 2.42418 8.86843
2.89614 4.23165 6.90848
2.49473 10.0011 72.531
8.22357 6.62157 31.1642
4.80097 11.2596 25.4621
2.74576 5.59861 13.9429
4.64412 4.17323 9.57792
4.06694 3.99671 9.13786
3.32522 4.15724 43.5396
8.80134 12.1052 8.54002
2.89211 11.4177 53.0157
4.79872 2.14135 28.927
2.96628 8.33678 28.1097
5.49478 6.8331 8.74171
4.21258 3.5135 32.8224
6.59553 9.52954 44.5681
6.9665 0 0