# pn-170911/CsIIA-30-CsIIA-1280-1959.psd
# Power spectrum* (dif=0,1,2) (really just |FT|^2)
# NOTE: only the first half! (symmetric)
# weeks: 1280-1959
# 1428 clock-days, 436 excluded
# PSD: 1441
41065.9 1.68804 0.0722789
3.35062e+06 59.46 0.0472173
1.36211e+07 282.774 0.0531814
3.27487e+06 124.935 0.0544139
2.91958e+06 204.068 0.0655903
1.2931e+06 127.308 0.0616931
903874 129.051 0.0692326
603614 120.455 0.07386
488412 127.844 0.0875392
389011 125.882 0.0910758
308504 122.794 0.105921
272954 133.005 0.122456
234753 135.698 0.13829
188768 125.949 0.147133
167438 131.939 0.167157
151320 134.954 0.18583
119501 123.788 0.194613
108390 124.404 0.217309
98219.8 126.16 0.237642
85266.6 120.94 0.256096
76738.7 123.849 0.278995
70152.5 124.859 0.30374
68772.2 131.219 0.352676
59713.3 126.944 0.351322
54343.6 125.637 0.388362
50993 124.889 0.412777
47593.2 126.076 0.446931
42141.4 122.817 0.462481
39293.5 119.323 0.488168
37555.2 124.813 0.538786
34414.9 120.586 0.550099
32492 123.438 0.612486
29026.8 117.24 0.610809
28045.8 119.317 0.666835
27132.8 120.788 0.696769
24886.1 121.528 0.747073
23257.7 116.952 0.764771
22408.3 118.877 0.813941
21848.7 124.731 0.890122
20411.1 123.634 0.941908
19701.3 124.486 0.976328
18135.9 119.06 0.98902
17304.4 120.229 1.05008
15873.7 117.311 1.06866
15931.5 118.67 1.13844
14832.8 116.682 1.16184
14250.1 116.08 1.20062
13727.4 118.845 1.27384
13109.6 118.184 1.34455
12231 115.559 1.36619
12486.4 122.059 1.50176
11848.6 121.681 1.55204
11270.8 118.532 1.56923
10687.2 118.08 1.62354
10314 117.977 1.6749
9869.89 117.288 1.71906
9759.56 119.998 1.82195
9419.07 118.532 1.85779
9047.89 118.598 1.93967
8570.46 118.757 2.00592
8688.88 120.838 2.12768
7978.11 118.055 2.13787
8025.45 120.255 2.23321
7334.11 114.681 2.19892
7236.78 116.044 2.29285
7123.43 119.025 2.44317
6617.04 112.785 2.36953
6528.71 114.281 2.44847
6268.63 111.756 2.51705
5939.96 109.398 2.50298
5976.57 116.484 2.75497
5773.47 113.549 2.75481
5733.06 116.653 2.94117
5459.65 114.682 2.92271
5353.15 115.209 3.04028
5228.11 115.927 3.12246
5081.31 114.466 3.17763
4836.13 112.908 3.22752
4813.19 113.553 3.32496
4608.28 110.511 3.29501
4691.33 115.549 3.51849
4384.92 111.798 3.53442
4365.25 114.446 3.68167
4116.73 112.968 3.73994
4065.11 110.716 3.75084
3995.81 115.002 3.96239
3966.38 113.469 3.99641
3837.12 110.231 3.98604
3734.74 109.867 4.1306
3807.99 114.136 4.32193
3671.45 115.175 4.44266
3401.93 109.528 4.34451
3594.45 116.644 4.71814
3467.27 114.941 4.73451
3373.91 115.602 4.9178
3232.34 110.858 4.77688
3199.71 115 5.04295
3055.77 113.67 5.1235
3154.71 117.365 5.39712
3008.08 115.736 5.4111
2946.83 114.864 5.44376
2721.44 109.377 5.31044
2729.18 108.579 5.36806
2709.1 113.894 5.80865
2734.31 112.42 5.82426
2644.4 111.049 5.76726
2468.97 111.178 5.92383
2567.8 112.313 6.1072
2429.41 109.002 6.09416
2466.32 112.759 6.38859
2358.68 111.214 6.33888
2307.53 109.712 6.44073
2307.65 112.878 6.76874
2261.05 112.364 6.84425
2304.41 116.497 7.13383
2234.5 112.358 7.09909
2065.03 108.625 6.99596
1946.18 105.765 6.88069
2059.28 112.006 7.42606
1978.7 110.843 7.4931
1932.34 106.26 7.27078
1987 111.637 7.7633
1885.4 107.049 7.59745
1874.49 110.116 7.9088
1692.02 100.739 7.4176
1794.88 107.392 7.99547
1741.96 105.624 7.95939
1768.93 109.422 8.36954
1765.13 112.974 8.81879
1618.49 104.599 8.20156
1662.65 108.903 8.76809
1691.82 108.95 8.8483
1537.72 102.25 8.4343
1601.25 110.271 9.24021
1585.77 108.786 9.3358
1580.44 109.34 9.44542
1497.36 107.82 9.45882
1522.15 109.132 9.62568
1408.43 103.295 9.35406
1406.63 103.589 9.51369
1475.82 108.406 10.0863
1480.58 113.486 10.6847
1430.9 108.985 10.4496
1394.27 106.568 10.2268
1384.09 110.5 10.8394
1355.52 108.905 10.818
1312.65 105.078 10.5808
1269.33 105.977 10.8093
1252.35 105.52 11.0453
1265.15 106.775 11.2691
1244.82 106.055 11.3012
1215.82 105.7 11.4086
1174.53 102.052 11.1498
1199.12 102.005 11.3175
1104.12 97.2077 10.8433
1112.85 102.353 11.6858
1108.51 100.966 11.5609
1090.51 100.851 11.8378
1058.75 100.912 11.9594
1050.01 98.3071 11.6781
1087.45 103.107 12.4215
1069.05 104.242 12.7442
1046.08 101.793 12.5041
1051.19 105.618 13.2508
1017.56 104.393 13.2824
978.574 102.296 13.0076
1014.38 104.729 13.7139
954.524 102.304 13.2964
979.023 105.447 14.0307
937.757 99.8638 13.542
971.628 102.812 13.9579
948.957 106.28 14.6153
924.562 105.979 14.7573
906.354 106.865 15.1906
947.398 106.019 14.9741
888.203 101.354 14.5194
883.455 102.736 15.1031
872.892 102.142 15.1473
874.509 106.464 15.7455
856.699 104.169 15.7435
833.682 101.973 15.5923
814.054 101.306 15.566
831.543 103.536 16.0285
801.495 101.549 15.9761
778.413 99.7613 15.891
792.761 101.838 16.4877
812.233 103.903 16.8171
774.666 103.421 17.1059
785.238 105.196 17.4251
759.484 99.6391 16.731
761.247 99.8822 17.0176
723.011 96.2242 16.655
747.15 102.784 17.6989
718.762 100.291 17.5239
686.623 100.575 17.826
746.603 107.091 19.0662
681.44 99.1519 18.007
678.934 97.6405 17.8331
683.562 98.0137 18.1297
682.746 98.7602 18.2116
660.12 97.4233 18.3764
669.609 101.789 19.1495
658.608 99.3561 18.9923
630.106 95.6208 18.4859
635.317 96.232 18.868
608.567 97.1378 19.0604
632.563 98.9657 19.452
616.619 95.5117 19.3504
627.244 99.52 20.0642
617.179 100.61 20.5876
588.942 97.4736 20.0867
608.977 98.0429 20.3796
568.188 96.5808 20.2879
598.905 99.5809 21.0985
548.869 93.8007 20.2418
550.7 95.7116 20.7646
543.132 94.1839 20.625
569.16 98.357 21.5745
592.203 101.355 22.4672
557.989 95.6653 21.4409
542.838 95.817 21.5184
514.148 94.1477 21.5759
520.445 93.3761 21.6762
523.517 97.5253 22.3875
540.449 97.1221 22.7519
518.634 98.6693 23.0556
504.518 94.5357 22.9975
508.361 95.294 22.7741
502.648 94.716 23.0796
477.206 93.9657 23.1627
481.004 91.0558 22.4374
470.218 90.9817 22.49
450.002 93.3072 23.4149
480.934 95.0496 23.9447
476.181 96.086 24.6116
463.306 90.6154 23.3021
465.409 95.1661 24.7367
438.406 90.4567 23.55
475.28 98.4464 26.088
461.587 96.6113 25.4357
439.781 92.1436 24.6875
435.148 91.6425 24.737
422.045 89.8314 24.5562
430.622 93.4034 25.7871
425.668 93.5585 26.0992
425.877 94.4513 26.3716
417.398 90.4815 25.4263
429.566 97.2539 27.4553
427.067 96.2526 27.5752
404.052 91.4608 26.4686
398.642 90.3917 26.4016
373.072 87.3255 25.6891
392.569 89.5019 26.3486
380.23 88.0629 25.849
373.17 85.3676 25.938
387.904 90.1518 26.8885
380.625 90.5542 27.4753
378.91 91.8288 28.1435
364.749 87.2532 26.9164
379.264 96.3553 30.2349
373.99 90.4844 28.4624
374.559 92.6945 29.1929
378.03 91.2366 28.631
352.688 91.9606 29.5808
355.837 89.8935 29.1884
348.348 89.4993 29.6276
364.998 92.2638 29.5962
359.442 89.5804 29.342
346.53 88.659 29.6239
343.12 91.9317 30.6892
348.119 89.0346 30.2325
344.791 92.5434 31.0887
346.543 91.5464 31.3709
325.109 86.2651 29.8161
323.603 87.5372 30.3151
322.863 87.387 30.964
330.252 89.2657 31.1402
318.12 87.3457 30.5974
316.444 85.1158 30.5972
302.393 84.9094 30.6974
327.353 92.3392 33.3566
316.562 89.1225 32.3578
317.718 92.5576 33.9627
304.652 85.0312 31.4788
303.233 87.664 32.4903
296.706 87.0425 32.6821
290.418 85.3599 32.3724
299.809 90.9296 34.8095
313.191 91.1173 34.2357
293.736 87.6001 33.7129
295.035 91.5673 35.6704
293.437 87.9598 34.246
286.82 86.6513 33.9219
294.413 90.8195 36.2249
279.093 82.8903 32.8448
279.498 85.1318 33.9918
294.218 88.5598 35.7249
286.567 87.1613 34.7373
278.624 86.8866 35.6148
269.971 84.7281 34.5989
278.005 86.8726 36.0139
271.742 86.6153 36.0858
279.384 89.4299 37.0986
252.25 82.647 34.9168
257.212 84.0984 35.6358
253.528 84.9134 36.4904
260.173 84.5967 36.3039
255.951 83.9853 36.3201
252.95 85.2551 37.3397
253.328 84.8065 37.1967
248.846 84.0935 36.8
249.694 81.5179 36.1512
241.367 80.938 35.91
241.789 82.5841 37.1452
246.02 83.3926 37.6508
246.89 86.7608 39.5139
238.119 83.5814 38.0008
238.968 81.8202 37.7053
242.948 84.5373 39.4727
232.806 81.7903 37.7244
233.668 82.3732 38.3179
229.213 81.5294 38.484
223.868 80.5178 38.0439
230.735 81.9281 38.6922
227.614 84.3381 40.3362
222.165 82.4773 40.0195
227.994 82.6526 40.0342
221.374 82.2718 40.0384
220.635 85.6086 42.2952
210.492 80.4537 39.6999
217.949 81.0007 40.6228
211.055 78.0344 38.9201
206.164 77.8124 39.464
214.931 80.7654 40.1557
212.966 82.9757 41.5332
203.191 77.4696 39.7701
198.673 77.8552 40.1788
201.444 77.6529 40.1872
207.329 83.8924 43.7296
198.093 77.3921 40.4667
194.833 76.3384 40.0155
202.213 80.8636 42.4758
193.622 81.1279 43.5097
200.871 81.4584 43.1222
191.518 77.3913 41.7037
188.791 77.2354 41.7701
196.303 80.762 44.1761
192.312 82.1559 44.9318
193.288 79.7082 43.383
189.068 80.3259 45.0998
182.202 75.0644 41.3307
176.768 73.901 41.5399
183.717 77.4308 43.457
185.638 76.3858 43.1432
189.663 81.0258 45.5721
184.233 77.6733 44.0272
181.49 78.2001 44.8016
173.899 76.1302 44.2837
182.839 82.1011 47.8984
177.219 75.3557 43.8924
184.173 78.1289 45.4206
179.157 77.4945 45.4853
167.598 74.965 44.247
166.404 74.6801 44.7072
175.201 77.4291 45.903
164.483 74.5262 44.8836
167.256 76.1949 46.4014
165.267 75.7984 46.2705
163.871 75.1218 45.6743
174.804 78.7526 48.251
170.924 78.9556 48.5871
164.754 78.1086 48.537
158.434 74.4061 46.8099
162.89 76.465 47.4524
154.509 72.7033 46.0729
153.695 74.8816 47.5878
158.942 76.555 48.6694
156.489 74.9005 47.7687
158.044 74.3606 47.689
156.217 72.728 46.3733
149.39 73.4644 47.6881
148.703 72.1133 47.8393
152.766 73.125 47.8226
146.551 73.0009 48.6119
150.526 72.993 47.931
150.403 73.7593 48.6172
146.373 71.9566 48.8825
148.549 70.9453 46.9912
147.272 75.0697 51.1299
147.394 72.5626 48.852
144.301 72.7922 48.9613
143.97 71.6044 49.3123
146.008 72.0285 49.1162
139.778 69.2937 48.4685
144.143 72.2431 49.2737
137.118 74.8861 53.0856
140.231 71.4268 50.3851
138.909 71.2888 50.0248
141.067 71.5418 50.5572
133.294 70.5779 49.9506
131.724 69.073 49.6809
137.661 72.2961 51.9927
131.581 69.3728 50.19
141.342 72.3412 52.5393
132.471 71.5452 52.5355
137.911 73.1869 52.8233
127.818 68.1247 49.6533
135.868 75.3691 56.2942
130.793 71.1111 52.6583
126.071 69.555 52.1191
138.408 71.814 52.3433
122.994 70.4341 53.5901
126.641 70.9397 53.7142
126.081 69.2584 52.8005
128.175 69.2439 52.3016
117.9 65.0963 49.9618
119.75 67.5488 51.7337
126.012 68.8417 54.1918
123.426 68.6172 53.042
122.409 68.1687 52.7662
122.667 68.9262 54.2107
121.073 70.3816 54.243
117.433 67.5895 54.5273
119.106 67.2086 53.1812
121.611 70.057 55.4119
119.173 68.5123 55.058
119.845 66.6819 53.1699
118.109 69.9582 56.7902
123.47 71.6015 58.7006
118.968 70.726 57.4385
115.677 66.7199 54.7312
110.885 64.0941 52.3626
111.4 67.5866 55.8514
113.734 65.8929 54.5823
117.038 69.8612 57.4507
114.034 68.1071 56.8821
113.105 66.49 56.7311
112.684 68.7223 57.9804
111.216 68.6773 57.7257
106.135 66.1993 56.8526
110.523 68.3363 58.0828
111.68 68.5462 57.3088
110.103 69.2023 60.1028
106.859 66.2624 58.1751
106.252 65.2289 56.9431
108.96 68.5408 59.5202
105.396 65.0985 56.5009
107.761 68.7232 60.7582
99.038 63.6723 55.9505
100.243 64.1089 57.0982
102.217 64.8584 57.6796
99.8753 65.8241 57.5418
102.522 66.6084 60.0273
98.7175 63.7309 58.5907
102.692 65.4789 59.6942
105.293 68.0194 61.3718
100.028 66.6003 60.3113
97.9541 62.9037 57.7789
98.2358 62.1104 57.5863
104.816 69.6503 62.9371
97.5179 67.3654 62.5775
96.1756 63.6117 59.5268
93.6042 61.7921 57.7369
95.3513 60.9643 56.7978
99.4193 65.8969 61.6846
96.7799 63.3073 59.5258
94.186 63.4649 58.9569
89.4938 60.3174 59.2499
93.6071 62.0815 59.2623
93.2034 61.6045 58.8081
91.7427 63.9576 62.8907
94.5657 64.2263 61.7529
95.6923 64.1419 60.5175
89.7579 61.8581 60.0523
90.2096 62.3965 61.0654
92.0942 65.0545 63.2019
92.3575 63.1855 61.913
86.7864 59.9098 59.9003
91.4401 63.575 62.4501
87.9297 64.049 63.6441
90.5684 62.4929 62.2823
90.7225 62.7878 63.406
89.0054 63.4694 63.7792
85.4814 61.8454 62.7444
81.7673 58.508 60.554
90.0868 62.0102 63.1502
84.0528 60.994 61.6013
85.4466 63.1441 64.9706
87.2384 61.9925 63.3928
83.1024 61.9456 65.3199
84.9651 64.3643 66.2726
83.3574 61.2568 63.2356
81.6217 59.5677 62.2084
79.5599 59.0279 62.3922
83.8661 61.432 64.8941
82.5869 60.2264 63.2725
80.1544 61.2658 65.2202
81.7554 58.3203 61.2788
82.3639 60.884 66.089
81.038 59.9839 64.8598
84.6827 63.7734 67.9159
77.6494 58.687 63.5843
78.7194 58.3315 62.4989
78.2708 60.8632 66.4788
75.8757 59.0534 63.9473
79.7855 59.6856 64.8644
77.9219 58.3302 64.7043
77.7834 61.15 66.8897
77.4808 59.0367 64.5856
74.0992 54.7618 61.61
77.7434 59.4098 67.3304
78.2923 61.0307 67.906
73.142 56.8816 64.0965
72.0623 57.7241 65.447
72.0995 57.4638 65.0435
74.2162 57.8647 65.9894
72.9835 57.335 65.3678
74.4675 58.0473 66.137
74.947 58.2268 67.0119
72.2667 55.9124 65.287
72.698 55.3074 62.3594
70.9013 56.6499 66.3157
71.3402 57.5901 66.4814
73.5374 57.699 68.2407
71.4848 56.8426 66.7812
72.725 58.941 68.5255
71.969 57.7183 67.6376
71.1766 58.5628 68.3992
69.9415 56.6597 68.1766
70.657 59.9062 71.551
70.3003 58.2657 70.1959
68.9376 54.7363 65.4574
71.9127 57.6974 67.4865
67.5128 56.9679 69.7429
71.5702 60.0581 70.9838
67.9796 57.1158 70.091
68.0209 54.678 67.447
64.879 56.2054 69.6847
67.3796 58.1646 70.9193
66.046 55.4362 68.9175
66.7169 57.7441 71.668
67.9002 57.3987 70.1796
67.1723 54.3588 66.5986
63.0851 53.8471 67.6976
63.607 53.3556 67.9558
65.6056 55.5522 68.6122
65.4068 55.8571 69.5795
64.2825 55.9383 69.7449
62.3043 54.6386 70.1657
64.6295 54.0309 68.6982
64.9451 56.0292 71.2483
64.6697 56.5531 71.5519
60.2608 50.5822 65.7197
60.619 53.751 70.0424
61.85 55.6353 72.3399
63.0652 55.6287 71.0426
61.7809 55.7443 72.9845
63.6108 55.9966 72.6327
60.4105 54.0058 71.1792
62.4698 53.8764 69.6831
61.7353 55.8811 72.9333
59.1186 53.1372 71.1694
60.4956 52.1192 69.4929
60.951 54.0075 71.5774
62.0198 53.6611 71.5827
58.6175 51.7534 69.0826
59.3093 53.0385 71.4565
58.4015 53.0751 72.858
60.6228 52.9646 69.3585
58.0053 52.8759 71.7346
57.2716 51.1372 70.0109
58.13 52.5138 72.3123
59.1472 54.0316 71.502
56.9937 51.6072 71.6513
55.8699 51.8451 71.6327
57.837 53.569 73.2202
58.3434 51.7138 71.6147
55.3568 50.7726 70.6179
55.6681 50.8125 69.2875
58.6554 53.3312 73.4358
55.7327 51.2738 72.1655
53.5994 51.0352 73.2776
57.1179 51.9474 71.727
54.2284 51.5556 72.6426
52.5272 49.5799 70.1309
55.5058 51.6955 73.2257
54.1879 50.3044 71.4511
54.5553 51.5056 74.2436
53.7006 50.3731 72.092
54.2633 50.4497 71.3776
51.0743 49.6895 73.0613
52.321 50.4087 72.5625
54.1731 50.0461 72.6324
54.2046 51.05 74.172
54.769 51.194 74.5347
52.8515 50.2945 72.0408
49.8913 49.9117 73.8142
52.4569 49.5373 74.5838
51.5951 50.0978 74.2295
54.8864 51.2691 74.3909
50.3371 49.9552 74.8724
50.9393 49.2841 71.9857
51.6946 52.7731 79.8682
51.4672 49.969 73.6577
50.1085 49.2092 73.8407
50.5462 47.5957 71.2195
50.1375 47.4502 72.3286
50.671 48.045 73.0665
48.2078 48.9817 74.89
49.1762 48.9654 74.5522
49.7119 47.7785 70.1461
49.4894 48.6721 76.6017
50.8077 50.0572 77.0507
50.3285 48.3944 72.9537
49.6344 49.2675 76.0936
49.4809 48.7922 76.5097
50.1682 48.7027 74.5691
47.6511 49.3175 76.6013
47.7689 47.3202 72.7472
48.6966 48.9424 75.1942
49.3577 49.6844 77.1927
47.5433 49.9305 80.207
46.4671 47.5675 74.812
47.4249 47.1939 73.8883
45.7579 46.3198 73.6513
45.2107 45.8051 74.5193
48.1249 50.4085 78.5095
46.3391 46.2793 73.7211
46.8576 48.1398 77.7087
47.2961 47.7756 77.5658
45.1403 47.4828 77.1122
47.7786 49.3849 79.8533
47.2605 50.6028 82.0559
46.8939 48.068 76.7025
46.03 46.8735 76.4166
45.5352 46.7654 76.6862
44.0984 45.3322 75.1615
45.8679 47.0934 78.2776
46.5029 47.7099 75.2517
44.3815 45.8762 76.0885
46.2429 49.0719 79.6138
44.6718 46.5647 78.7214
43.4183 44.4858 74.7578
43.3043 46.9452 77.4388
43.4156 44.8075 75.3059
44.4458 46.2468 76.0113
43.2798 45.2495 78.0492
46.1162 48.0364 80.5359
45.7391 48.2069 81.0692
41.704 45.1723 76.43
43.6168 45.8597 78.0738
42.046 46.1278 79.4338
43.0048 47.8806 79.2372
43.1957 45.389 78.4793
42.8154 45.8433 78.3961
42.0144 45.469 78.6647
42.4297 46.4977 79.1863
42.373 46.1681 77.3756
40.4786 44.3219 78.1369
42.0135 45.1644 80.4793
43.1816 46.0052 77.3333
40.1511 45.3799 80.5737
41.4845 45.2289 78.1424
40.3281 44.5769 78.2251
41.0496 45.3352 80.3889
41.1305 45.1448 80.5188
40.3724 46.1526 80.1765
40.1313 45.8404 81.6311
40.7522 44.6985 79.0662
40.1533 43.9115 77.8572
37.9196 41.7667 75.0815
41.7782 47.2596 81.9602
38.8302 42.9039 77.2625
39.5084 43.8054 77.7979
38.6581 42.7574 76.1096
36.184 41.7799 76.5556
38.0216 41.7192 74.9236
40.2863 44.7194 83.0583
38.6779 45.2264 81.9356
38.1586 44.1578 80.39
37.4351 41.5875 78.1429
39.7283 43.495 78.0852
38.1589 44.9625 82.6308
38.0392 44.0902 81.2609
37.1195 42.0885 77.058
36.8426 40.6483 76.2771
38.8592 44.0974 79.8563
38.1194 43.8595 81.7237
37.3674 43.1092 77.8874
34.4926 41.431 80.4198
38.6747 42.2851 76.4691
35.5504 40.556 76.8733
36.9453 41.8399 75.4518
35.7689 44.889 86.5073
37.9636 41.8935 80.6374
36.7564 41.7397 79.7993
37.4872 44.5396 82.9602
35.2252 39.6138 75.4748
36.2265 42.3269 82.8018
35.7541 41.2946 77.7897
35.143 40.2322 78.6318
35.857 41.146 77.2652
33.5204 41.1583 77.0652
34.0897 39.7378 78.8264
34.4135 39.3395 76.7957
34.9212 41.7237 79.1529
35.525 42.7866 82.259
35.5994 42.9783 83.5431
34.483 41.1076 79.7285
34.8596 40.4352 77.784
33.523 39.9546 78.2377
33.7706 38.67 75.6655
33.8366 41.6282 81.8157
34.5926 41.2143 81.7484
34.1464 41.9124 82.9073
35.2011 39.8203 79.0015
34.6157 40.3445 80.0504
34.5994 40.7883 82.0606
34.6952 40.1087 78.0332
33.0359 38.8068 76.3197
33.0972 39.2452 80.5199
33.112 39.9144 79.7872
32.0432 37.9235 75.5857
32.4655 38.1016 78.4215
32.4782 40.3867 80.9812
33.0199 39.7667 80.491
32.0358 39.3778 78.0881
32.8702 38.064 75.9076
33.0147 39.6465 81.7995
32.5343 38.3477 81.5372
34.0388 39.0696 78.7013
33.2789 39.5404 80.9487
34.2853 41.6346 82.6114
31.77 38.3326 77.9841
31.3147 40.4885 82.9834
31.5898 37.9336 80.5721
32.2135 39.7973 81.7982
32.7823 39.216 79.1223
31.4239 39.0923 81.2822
32.3539 39.3458 84.3706
33.1922 41.6436 83.7374
31.8828 40.145 83.6963
31.0215 38.0236 79.5612
32.2238 39.908 84.4479
31.2235 39.1426 81.9214
31.9895 39.5341 83.8601
30.969 39.0342 82.7302
31.1516 39.7796 84.221
29.8997 38.1389 80.4673
30.8816 39.2137 82.0567
31.3048 39.8756 85.7819
29.9525 37.5332 81.4428
30.9453 39.4209 83.6233
29.335 36.9859 79.9469
30.4005 39.2949 85.0948
31.2419 38.3898 80.8104
30.8242 38.7382 85.786
30.8751 39.6886 85.8217
30.9128 38.7116 82.0733
28.8683 36.6112 80.1789
29.6547 37.3527 77.942
29.536 37.2388 80.6035
27.5285 35.637 77.6419
29.0282 37.9893 82.8298
30.1121 36.645 81.4339
28.0808 37.7318 80.4932
28.5766 36.7547 83.97
30.2076 37.6842 82.3157
28.9552 37.6444 85.5441
29.7587 36.8442 82.9742
29.0306 35.9042 80.0104
30.2636 36.1017 79.0002
29.6761 38.8149 85.4161
27.8709 35.8777 81.7445
28.1794 35.2873 79.61
27.4428 37.3035 82.1421
27.9115 36.4026 82.9099
29.4607 37.7735 85.8488
28.0893 37.4565 83.9102
27.3829 37.0631 82.4058
27.0824 35.6437 81.5344
28.6406 35.8108 78.0582
27.2977 34.9283 81.8884
28.3747 34.934 79.1977
27.3919 36.4203 84.0241
28.5604 36.2874 81.5741
27.2357 38.1425 88.0875
27.9063 36.2476 81.9756
27.1129 34.8727 82.234
27.284 37.952 86.2908
27.6148 34.3631 80.8857
27.3322 37.2965 83.1414
26.6567 35.5028 83.8036
28.0072 36.8781 83.0919
26.3129 34.1047 80.3061
27.251 35.7218 80.5602
26.6335 36.585 87.8924
27.4461 35.4746 83.192
27.6603 35.4546 84.9143
28.1175 36.0729 84.6351
26.8466 35.2162 83.191
26.9183 35.0632 80.6871
25.7616 33.892 79.8688
26.1564 35.2252 81.0481
25.2198 33.9265 81.1706
27.1434 35.795 83.3958
25.7762 34.4205 82.4499
26.4521 34.3962 82.0577
26.62 35.3881 85.4425
27.3551 36.3492 84.288
25.5926 33.8905 81.0372
25.8705 34.9543 84.5439
26.2483 34.0991 82.2518
26.5416 35.881 85.9736
26.1212 34.8042 82.629
26.101 34.6682 83.9673
25.3496 32.1788 79.0503
24.6621 34.1354 83.9941
26.0147 34.8291 81.7642
25.9783 33.3073 81.4158
25.8727 34.5671 84.1462
25.0238 34.0842 83.4063
25.1297 32.7024 79.7875
24.3205 34.2676 83.4658
24.3398 33.2446 81.332
24.3792 33.2946 82.7963
25.308 35.543 87.3579
25.608 34.2854 83.4034
24.4874 33.4219 83.2648
25.3309 33.8952 81.3991
23.5756 33.6472 84.9095
24.5264 33.0058 80.9485
24.7051 33.0468 82.4864
25.1182 34.394 83.4167
24.566 32.0319 80.956
23.6324 33.8602 86.2398
24.2708 32.4332 83.6362
25.6907 35.0327 83.4525
23.008 32.278 82.0543
23.9907 33.5463 83.5153
23.5012 32.1887 82.5709
23.4487 33.2601 85.5026
24.3465 34.1026 84.3015
23.4314 33.8404 86.4283
24.1192 33.5284 83.0172
24.0391 34.0963 85.9577
23.6678 33.001 83.4506
23.4082 32.7748 82.3107
23.1547 32.6352 85.2362
23.0707 32.5788 83.4655
23.0199 33.4312 84.4256
23.1728 32.1664 82.1507
23.3259 32.1035 84.0526
22.8364 33.0169 82.9281
23.7714 32.6273 83.2879
23.2712 33.4638 86.8924
22.7057 31.4048 85.2891
23.9728 32.3116 82.8444
23.4978 33.0237 83.0804
23.1215 31.274 82.1085
22.5009 32.7126 81.0135
21.8388 31.5661 84.8379
23.5154 32.3002 82.7889
22.7646 32.497 80.8863
22.2081 32.4033 88.8813
22.8665 32.947 88.5368
23.4891 31.2036 80.9921
22.7838 31.8725 82.5112
22.344 31.6863 84.4308
22.5724 31.6377 83.1308
22.6476 30.9528 79.9579
21.4913 31.3833 84.7178
22.766 31.7144 84.6782
22.2287 30.9557 79.9793
21.3857 31.1143 83.3354
22.4343 32.3947 83.6056
22.2541 31.6452 84.0846
21.1486 31.584 86.1926
21.3753 29.6479 78.988
21.5411 30.1282 83.6424
21.3098 29.9431 82.2064
21.223 30.5924 80.7213
21.5448 30.1399 81.7406
21.3076 30.3997 80.0566
21.2769 31.2462 85.2031
21.545 30.8143 82.2744
21.5625 31.5069 84.4307
21.9165 30.7943 82.0726
21.7093 30.5237 82.5452
21.472 29.0872 79.8844
21.0113 29.6234 81.6434
20.5528 30.0383 80.5664
20.1802 28.5653 80.3428
20.8184 30.2889 82.5439
20.977 28.9673 77.7415
20.9166 28.8098 78.307
20.2797 29.4594 81.6087
20.2583 28.4202 78.6307
20.1355 29.0902 83.3931
21.3663 29.9425 78.3641
20.6798 29.6304 82.4396
20.8005 29.8629 81.6283
20.117 30.4031 85.1248
20.3277 30.5509 83.6925
20.69 29.0104 80.5336
19.7452 29.4102 80.8081
20.146 28.664 81.9658
20.1929 28.3192 79.8852
20.2564 29.09 81.4849
20.5672 30.3024 84.8634
20.292 28.7495 79.3822
20.3413 29.3263 82.0024
19.9779 29.5624 84.5547
20.4085 28.1387 80.1098
19.8553 29.1854 81.0532
19.8494 29.143 80.5569
19.5833 28.6124 82.2937
19.3484 28.3141 80.2616
19.5366 27.8205 78.8794
19.0146 29.2744 83.9568
19.9316 28.439 79.0225
18.2807 28.9976 82.51
19.1797 28.5643 81.7778
19.8576 29.2214 82.9758
19.6327 28.4295 83.1404
19.5413 30.246 84.4489
18.94 28.5016 82.6543
19.6947 29.1132 83.6428
18.971 27.3349 78.7258
19.2219 28.6986 79.0062
17.9305 27.8376 79.9603
18.8226 27.8778 80.5443
18.6746 28.6565 85.2275
19.3408 27.6086 80.4565
18.7618 27.3807 80.7536
19.2776 28.6101 84.3175
20.0915 28.1807 79.824
18.159 28.5158 83.251
18.6473 28.2534 83.3584
19.0555 28.9187 84.1336
19.1863 27.9646 79.3096
18.4476 27.8892 82.1207
18.47 27.1848 78.1096
17.7382 27.9144 83.234
18.8392 26.4055 78.8994
18.7151 28.69 82.8267
18.2241 27.8689 81.437
18.825 28.2217 80.4046
18.3409 27.4675 81.3796
18.54 27.3594 85.1589
18.9358 26.7939 78.3043
17.7255 26.2753 78.7531
18.6541 27.9656 83.4832
19.3864 27.7954 81.4478
18.9253 26.2665 75.7206
17.7869 26.5256 75.2914
17.4734 25.4436 79.8147
18.3176 26.8063 80.0546
17.8021 26.1708 80.8792
17.8751 25.8981 78.8361
18.1609 27.5932 80.3159
18.1135 26.9661 81.5926
18.2903 27.0399 81.4402
17.6587 26.3135 80.9814
18.2053 26.0726 80.2806
17.5783 27.4073 80.013
18.233 27.7597 85.7811
17.7956 26.7892 81.4781
17.4807 25.3464 75.8537
17.2915 26.1804 77.2246
17.3527 26.62 80.8005
17.509 27.2551 84.8887
18.0115 27.6116 78.6086
17.07 24.5828 76.6894
17.4078 27.2761 83.2255
18.0683 27.0223 82.9931
17.6609 26.8761 80.7417
17.4339 27.0427 82.247
17.5372 25.7505 81.7003
18.7273 26.8719 81.8988
17.5768 26.7553 78.7023
17.0916 26.5894 85.1429
18.146 26.3802 79.5609
17.2963 26.0457 82.2109
17.2573 26.1227 77.1134
16.5982 25.5623 80.3495
16.8512 25.2918 79.2046
16.5219 25.2059 78.3706
17.1143 26.7479 78.6941
16.6377 25.1987 80.6771
16.8359 25.7965 79.0263
16.5106 25.9129 85.2979
18.3726 26.9886 80.1044
17.0071 26.2606 81.5176
16.3674 24.0207 76.642
16.4446 26.0164 80.6088
17.0825 24.4752 75.1791
16.0133 24.5441 79.11
17.2149 25.5644 80.4674
17.2234 24.6288 77.8174
16.4945 25.0656 79.7641
16.9704 26.7351 83.7278
17.0371 25.5618 81.6276
17.6834 24.7512 78.1453
16.1751 25.2154 80.0203
15.811 24.5559 78.555
17.1 24.5266 76.9315
16.7858 24.7285 80.7794
16.9259 24.8695 75.168
15.7555 25.6558 79.9092
16.2359 24.6966 79.0986
16.2007 24.6342 78.2135
16.3334 25.5975 83.5556
17.0163 25.1154 80.9586
16.3227 25.2208 78.2951
16.72 25.9333 82.0257
16.5081 23.2246 77.3863
16.355 24.4943 78.3458
16.2731 26.0836 79.7067
15.4075 24.1185 78.451
16.263 24.449 80.374
15.7487 23.8534 78.7166
16.3049 26.1216 82.7303
15.6959 24.8703 81.1517
15.8174 25.3887 83.4781
16.6162 25.1771 76.8605
14.9399 23.396 80.3139
16.7653 24.4696 77.2025
15.7922 23.7933 77.84
16.0383 24.0277 78.9293
15.776 24.6425 78.6931
15.1999 23.3651 76.8627
15.2988 24.9571 81.9841
16.4848 23.9864 76.6892
15.5608 23.7185 75.5479
15.2135 24.0474 80.8179
15.6963 24.2441 76.9365
15.4451 23.7034 77.0904
15.7492 23.3245 77.9186
15.735 23.0191 76.3592
15.7746 23.7005 79.305
15.8121 23.144 74.6745
15.0361 24.503 77.883
15.1776 23.4377 79.5744
15.8783 23.8936 76.038
14.6612 23.8926 81.5606
15.4455 23.0543 76.6424
14.9793 23.488 76.8119
15.5041 23.2448 76.2736
15.2515 23.7012 78.4
15.441 25.0125 83.9906
15.5957 24.4097 78.6844
15.655 23.3084 76.6877
15.3096 24.192 79.8463
15.3317 23.6483 80.0588
15.5504 22.1487 71.6891
14.2853 22.2171 76.7268
15.178 22.8955 74.5329
14.566 22.9105 77.9633
15.3232 23.5572 79.1029
15.5111 22.761 77.0238
15.1462 22.9481 76.4725
15.8166 23.5931 79.6653
15.3152 24.6791 77.7397
14.8727 22.6135 78.109
14.8999 22.5848 74.8797
14.4801 22.9033 80.0836
14.9982 22.6958 76.0322
14.7669 23.4471 79.3602
14.6672 22.7221 76.8549
14.8259 22.8501 79.5616
14.9304 22.7369 76.7512
14.933 22.8488 75.1211
14.8749 21.0588 72.3776
14.4873 23.2573 80.061
14.9809 22.4176 75.95
14.9909 22.6461 76.8515
14.495 22.6733 76.7561
14.6126 22.5754 76.4804
13.9856 22.6868 75.4696
14.434 22.3735 75.1327
14.608 23.1491 81.5881
14.6429 23.4345 78.4314
14.5031 23.4917 77.0768
14.1937 21.4163 75.0385
14.9017 22.5383 79.4573
14.6912 21.9726 75.6883
14.2741 22.3264 75.7157
14.697 22.3854 77.6051
14.728 23.2846 77.9664
14.3851 22.6176 77.7142
14.919 23.6229 80.6108
13.7585 22.5763 76.3864
13.7319 21.7617 78.698
14.2096 21.6698 77.3434
14.5079 22.8404 77.83
14.3822 22.41 76.4089
13.9262 22.0335 78.1759
14.8214 22.2221 74.1997
14.4056 21.8916 74.9514
13.9841 22.4125 79.7764
14.7521 22.1309 76.1914
14.0887 22.3031 75.6261
14.1075 21.9265 77.5395
14.258 21.4778 75.6317
13.9754 22.3866 73.4918
14.2856 20.7648 72.2555
13.6261 21.1893 75.8889
13.6546 21.7766 79.2068
14.1716 21.3879 74.6984
13.7353 22.0758 74.9053
13.6459 21.024 76.3262
13.7443 22.4324 78.9672
14.4453 22.0745 77.6146
13.6626 21.5185 73.8466
13.554 21.2878 75.2538
13.5466 20.8741 76.4314
14.1292 22.7614 76.357
13.9724 21.0428 74.6612
13.8618 22.0297 79.7224
14.6718 22.9261 79.4801
13.7996 21.1985 74.0003
14.0136 21.0508 75.0704
14.013 21.3407 71.6835
13.4272 21.1233 75.2445
13.3523 21.9194 77.1299
12.7076 20.4396 75.058
13.5292 21.2133 78.3117
14.2592 21.7951 73.689
13.3004 21.6703 76.8718
13.9437 22.2172 77.8969
13.7489 20.7065 76.2882
13.5542 21.5203 75.1165
13.9841 21.3383 78.5856
13.517 21.337 76.8272
13.6504 20.2639 71.9221
13.1902 21.3343 74.3489
13.3005 21.1778 72.6332
13.7918 20.8334 75.3064
12.6521 19.941 76.2184
14.1617 21.4801 76.3461
13.1684 20.8347 72.7927
13.2388 20.3018 72.0846
12.9569 20.6677 73.4
12.8638 20.6194 78.1245
13.8735 21.5823 78.7301
13.8046 22.5335 81.4394
14.2016 21.5285 75.4375
12.9707 21.5977 80.0229
13.5302 21.2468 75.3149
13.1513 21.2657 79.2496
13.6467 22.3008 76.5403
13.5884 20.1487 76.6671
13.2541 21.6798 77.094
13.9072 21.9781 77.6022
13.0839 21.8998 81.0769
13.7302 21.0574 75.5974
14.0894 20.8414 79.2546
13.4689 21.8221 74.5395
12.9813 20.9994 75.3307
13.1442 20.1322 75.7491
13.4145 20.9028 73.3228
13.0695 20.1317 73.343
12.7148 21.0617 79.4295
13.7017 20.0749 70.627
12.9721 20.8408 72.599
12.9989 20.8825 75.6855
12.4525 20.1028 74.7285
12.8263 20.6319 76.8944
13.5083 21.0508 74.9092
13.0878 20.3823 78.2407
13.6147 20.8955 76.3306
13.0112 21.6328 77.6022
13.5777 20.4062 74.8099
13.2298 19.8476 71.8296
12.5913 21.0482 76.4523
13.0559 20.1907 73.7525
12.9479 19.6063 73.8419
12.7796 20.4208 73.2891
12.655 20.7243 77.5869
12.8737 20.4456 74.1581
12.5333 20.0014 77.3812
12.5946 19.1595 71.6104
12.8106 21.1972 75.5497
12.71 19.7544 74.6524
12.4144 19.3529 71.1919
12.9133 20.5459 77.1132
12.6533 20.2062 76.2618
12.7829 20.1454 71.6299
12.9421 19.3557 74.2201
12.7405 20.5496 76.5046
13.0344 19.9288 71.2095
12.322 19.4731 75.7645
13.2471 20.0331 71.3021
12.657 19.8329 74.5426
12.5129 19.764 72.6165
12.515 19.9845 72.4153
12.0772 19.8061 74.0982
13.0829 20.4288 74.3394
12.7144 19.5168 75.7889
12.9264 20.6611 72.8215
12.2431 19.7997 76.4446
12.8763 19.7519 70.3852
12.2928 19.5864 75.0538
12.5981 20.2641 74.3889
12.0879 18.4432 71.2211
12.6277 19.493 71.5241
12.2685 19.9143 73.3497
12.4387 19.1344 73.1911
12.2189 19.7073 72.9562
12.5654 18.7811 74.2954
12.2238 19.7443 73.7493
12.421 19.3176 73.9165
12.4718 19.872 72.4987
12.4807 20.3318 77.9426
12.3606 20.3133 74.6297
12.1178 18.5045 71.3337
12.5837 18.9334 69.6208
12.0528 18.9292 71.4077
12.248 19.3293 71.1285
12.8245 19.787 73.4409
11.9769 19.9099 76.9317
12.1573 19.683 74.5917
12.6933 19.8061 72.3799
12.3872 19.5025 74.3193
12.6861 19.4261 73.8648
12.3438 18.9497 73.2413
12.0449 19.1889 73.6682
12.6676 20.102 71.3477
12.2971 18.2553 70.813
11.7751 18.5633 73.1204
12.6663 19.878 71.8062
12.0713 18.4239 74.4919
12.7639 19.4395 71.6013
12.3265 18.8779 72.4211
11.9596 19.4134 72.4511
12.39 18.9405 75.148
12.6871 20.4298 75.9052
12.4129 19.1166 71.8917
11.9097 19.1266 74.2626
12.2229 19.1685 73.7227
11.852 18.6201 72.4101
11.984 20.0287 74.2863
12.4295 19.158 70.8388
12.0207 19.0849 72.8162
11.8806 19.9628 77.6486
12.0601 19.0262 73.1978
12.5634 19.6763 72.6099
11.9858 18.9665 72.3048
12.206 18.99 72.9418
12.1933 18.738 76.1547
12.7152 20.0411 75.8052
11.9002 18.6195 72.0807
11.7368 18.9007 71.275
12.588 19.2375 71.5143
11.8371 19.7247 75.1231
12.1467 19.2921 73.6016
12.6204 19.3838 76.3854
11.9733 18.8268 69.807
12.3838 18.7503 71.9735
11.8003 17.9065 70.6555
11.9532 18.6914 71.4016
12.2304 19.3139 74.6432
11.8728 18.3767 70.6782
12.2846 19.078 73.942
12.275 18.4987 70.4588
12.1513 19.3962 73.1586
11.7616 19.3131 72.8344
11.6961 17.6336 71.3324
11.9521 18.7585 72.4786
11.7588 18.9144 71.8995
11.4696 18.2492 69.4932
11.8521 18.2023 71.3131
12.0276 18.356 70.1051
11.4588 18.6741 72.336
11.7939 18.4914 70.4941
11.6604 18.2901 73.4318
11.6984 19.5474 75.4424
12.2586 18.7353 71.4895
11.8762 19.2384 73.9396
12.0148 18.7128 73.3216
11.9474 18.2529 71.5281
12.1055 18.9652 72.7359
11.5715 18.3917 67.3896
11.5867 18.0717 74.351
11.7232 18.2844 72.2985
11.7299 18.3779 69.7882
11.3533 17.6098 69.1904
11.1433 18.6629 71.2108
11.6105 17.9468 69.8407
11.5888 17.1743 68.5806
11.7115 17.9295 69.4821
11.8108 18.8345 70.0811
11.8082 19.1984 71.9958
12.2455 18.5454 72.5867
11.3353 18.0384 73.8738
12.018 18.2881 72.6405
11.9441 19.1195 72.4437
11.8246 17.6215 67.6585
11.0305 18.2345 72.7592
11.5951 17.7115 67.9569
11.5479 18.2425 72.3297
11.9023 18.2439 69.4391
11.5737 17.9887 72.2794
11.7003 18.6122 70.8856
11.7852 18.0587 72.5374
11.6109 18.7668 71.0751
11.6769 18.6079 75.8329
12.1136 18.3288 69.95
11.08 18.6605 73.9311
12.3039 18.1132 70.04
11.2855 18.4627 72.984
12.1143 17.3778 72.1743
11.3944 17.8236 72.331
11.8946 19.039 68.5951
11.2171 17.299 70.2108
11.1545 18.548 69.9876
11.4233 16.988 68.3729
11.397 18.1153 70.6902
11.2657 17.995 70.9568
11.6347 17.3803 68.6805
11.3974 17.9826 70.6666
11.497 18.501 69.8459
11.4165 17.5226 71.2988
11.5985 18.2193 67.9823
11.0553 17.6804 70.5673
12.0757 17.928 71.2189
11.4201 18.3348 72.2199
11.7187 18.4902 71.2857
11.3682 18.0741 71.7834
11.6417 17.7713 72.7832
11.4562 17.9131 72.6985
11.7242 18.192 70.6837
11.3258 18.1329 72.9728
11.6548 18.6837 71.9688
11.9595 18.0443 73.099
11.4807 17.7919 68.6424
11.0406 18.6255 73.6171
11.794 17.565 68.2389
10.9702 17.7217 70.9549
11.3799 17.8292 67.0663
11.0698 18.0887 70.7264
11.3215 17.1829 68.6927
11.3257 17.731 74.9611
11.6737 18.5611 69.6966
11.274 18.5714 73.7954
11.1989 18.5022 72.629
11.5791 18.0227 67.161
11.0232 18.1148 75.4811
11.5009 17.4373 70.5727
11.4237 18.3405 71.5576
11.5611 17.7746 70.393
11.4084 18.0691 71.969
11.3706 18.2347 71.7599
11.7782 17.4099 69.1219
11.3485 17.3097 73.2156
11.345 18.4676 69.6455
11.6711 17.9141 69.8679
11.4082 17.1607 68.986
11.2884 17.907 69.2146
11.0301 17.0926 71.735
11.216 18.354 70.7188
11.214 17.5695 67.3729
11.3287 17.1041 66.89
10.8731 17.4458 69.2756
11.5647 17.8116 72.3734
11.6355 17.6089 70.5706
11.1975 17.1113 66.3721
11.402 17.9588 73.0114
11.4081 18.0426 71.3717
11.308 17.7598 72.6161
11.4712 17.6398 67.5008
10.7678 17.4402 70.6697
11.3018 17.8744 69.2995
10.9035 17.2424 72.4106
11.3874 17.4769 67.2146
11.2219 17.8016 70.3793
11.3395 17.3852 69.9219
11.1944 17.9857 70.0091
11.7308 17.5011 67.7181
11.1526 17.1575 69.2422
11.3593 17.1448 70.2411
11.4033 17.744 69.7158
11.1938 16.9056 70.1961
11.6683 17.9424 70.821
11.1245 18.3104 70.3815
11.4599 17.4876 73.8845
11.4536 18.4928 69.7204
11.3518 17.2785 70.173
11.6004 17.5742 70.4142
11.0538 17.2978 68.9858
11.4481 16.9166 72.0618
11.317 18.4941 71.5929
11.232 17.6944 67.9975
11.2224 16.566 66.2817
10.7319 16.9795 67.5169
11.4139 17.2657 70.1702
11.1589 17.029 66.8082
11.0868 18.4507 70.3019
10.798 17.2774 68.5346
11.21 17.7922 70.1222
11.0381 17.1153 68.6035
10.8561 17.2404 68.4032
11.1661 17.778 70.6292
11.3601 17.3608 68.1633
11.2393 16.5343 68.8675
10.5402 17.578 70.5036
11.3327 17.7646 68.7273
11.3464 16.4237 67.5473
10.9274 17.3855 70.9555
11.2701 18.2174 69.7235
11.2961 17.7015 70.7374
11.1545 17.7293 72.7325
11.4817 18.2103 70.3822
11.4363 17.1322 69.9325
11.3403 17.9544 69.0107
11.272 17.0359 73.0699
11.7517 18.1391 73.9234
11.4623 18.4433 68.2261
11.3205 17.9545 71.0894
11.1124 17.6309 71.6801
11.4459 17.3412 69.6232
11.4213 18.0275 72.367
11.3741 17.4291 67.2255
11.5653 17.5886 72.6479
11.5731 18.1158 73.0807
11.4269 18.1024 69.7178
11.4167 17.1686 70.6164
11.2705 18.0499 70.3874
10.8453 17.4993 68.5736
10.7958 17.0882 70.1203
11.478 17.3361 71.2678
11.1299 18.7078 71.2726
11.391 17.9411 70.3216
11.4211 17.3595 69.8971
11.385 17.9077 74.158
11.3921 17.4631 69.7195
11.1221 18.4439 74.9141
11.6983 18.0733 72.8496
11.6907 17.9214 71.3902
10.9654 0 0