# pn-170911/CsIIA-29-USN3-1280-1959.psd
# Power spectrum* (dif=0,1,2) (really just |FT|^2)
# NOTE: only the first half! (symmetric)
# weeks: 1280-1959
# 109 clock-days, 88 excluded
# PSD: 1441
52306 1.19194 0.0504617
1.17551e+06 22.5482 0.0204046
5.08838e+06 97.2031 0.0219804
1.36791e+06 49.4633 0.0220889
1.50947e+06 112.672 0.0287445
494936 53.6895 0.023653
313652 50.7626 0.0321409
255827 50.5299 0.0321957
179352 45.0603 0.0347189
147586 47.3014 0.0413225
121796 50.1375 0.0433625
109936 54.4946 0.0531069
88980 53.2087 0.0607828
77229.5 52.2589 0.0620274
67077.4 52.6899 0.0705381
52414.5 47.9426 0.0692958
58910.4 55.6921 0.0763328
41898.9 49.0317 0.079343
41433.5 54.3143 0.108658
38584.2 50.1981 0.101532
28407.6 44.7444 0.101218
23515 42.576 0.105639
23273.5 46.1056 0.116852
24290.4 49.4557 0.153241
25128.3 54.2617 0.17646
18905.7 46.3484 0.163603
21024.1 57.5538 0.19747
16422.9 48.3966 0.194399
15883.7 49.0907 0.209468
16299.2 54.0571 0.221152
13614.4 49.8733 0.230206
12158.8 48.0195 0.228386
12124.1 48.9593 0.252894
10861.2 43.0537 0.265666
9868.8 44.6683 0.265228
9260.72 49.2293 0.306994
9772.29 49.1212 0.320698
8054.66 47.5603 0.329821
8588.85 52.4313 0.386646
8238.26 51.1234 0.416701
8522.46 54.4263 0.453546
6647.13 47.1124 0.395814
6050.03 48.5807 0.441141
6334.51 45.7438 0.433369
5651.69 43.7369 0.427974
5876.08 47.1998 0.471769
5561.33 50.2792 0.537536
4629.31 45.175 0.50734
5348.35 46.3808 0.533722
5096.89 48.8526 0.554535
4537.4 47.3607 0.588202
4234.36 42.1412 0.557171
5167.76 55.0327 0.713427
4166.68 49.3288 0.668943
4239.62 47.0661 0.677061
3700 47.2874 0.699834
4051.16 50.3637 0.755556
3546.38 51.8195 0.818202
3698.62 51.4029 0.851873
3609.5 54.1458 0.891224
3750.5 50.5729 0.890852
3218.1 47.7752 0.864172
2736.58 42.0474 0.821602
3351.65 58.0647 1.09044
3153.89 51.903 1.04182
2804.07 50.4211 1.02896
2821.47 48.4829 1.02645
2502.16 46.9602 1.01602
2490.69 44.9007 1.0201
2788.62 52.9192 1.18702
2388.14 45.2755 1.05465
2559.52 51.3539 1.29617
2669 55.2666 1.36905
2822.55 66.4159 1.70527
2364.35 49.1826 1.31004
1797.64 42.1233 1.14636
1912.69 50.183 1.365
2136.5 55.2078 1.54813
1686.18 43.1382 1.25224
1679.74 41.1002 1.23521
2076.93 56.5361 1.71394
1894.27 49.7718 1.62124
1946.96 49.4191 1.62119
1780.74 50.3983 1.69593
1633.73 44.7519 1.53087
1611.98 48.3999 1.64474
1670.53 46.3575 1.66098
1275.92 41.8116 1.52946
1446.2 44.5464 1.65232
1875.6 57.5249 2.15544
1758.98 54.0442 2.14127
1543.43 52.1918 2.04215
1581.22 49.2861 1.98799
1316.28 43.9708 1.81426
1352.32 45.3233 1.90208
1180.71 44.532 1.94926
1357.38 47.9414 2.07553
1510.91 54.7999 2.40621
1319.48 51.3174 2.35421
1075.69 42.685 2.02335
1127.32 42.3815 2.01954
1083.94 46.4523 2.29558
958.212 41.9954 2.10039
1234.55 52.4767 2.69141
951.13 39.8295 2.08334
1062.1 46.0902 2.45268
1158.79 53.3458 2.82318
984.313 47.6093 2.60906
1111.69 55.3438 3.07524
1037.91 52.9912 3.01372
1080.37 49.751 2.78818
895.126 46.4538 2.67518
970.487 44.8401 2.67965
914.914 47.4604 2.87766
792.25 41.534 2.5806
845.108 43.6202 2.75446
877.499 48.5588 3.05901
1149.7 61.9213 4.01941
950.581 56.5962 3.74266
765.982 42.7731 2.89859
708.707 42.9461 2.98593
1001.26 57.6665 3.99318
898.328 53.3252 3.8088
807.446 49.9861 3.61513
724.533 42.8408 3.16479
778.209 45.7495 3.4133
609.418 37.419 2.80837
671.186 46.2306 3.55804
647.249 41.7023 3.24716
831.656 56.8507 4.61076
773.859 50.4721 4.09983
603.14 45.0967 3.69492
644.319 43.1007 3.54631
682.852 49.2039 4.04532
645.66 41.9224 3.56751
662.175 51.8136 4.54957
679.325 48.4569 4.17312
628.475 46.2496 4.11157
593.93 49.5301 4.47757
639.569 49.2455 4.53403
555.37 40.6545 3.98122
718.054 51.2615 4.69482
654.079 52.7542 5.00002
597.167 49.6799 4.92728
594.825 48.0288 4.77572
498.606 44.4506 4.32038
656.594 55.6105 5.5444
621.682 53.3681 5.43293
580.83 48.7868 4.98896
529.059 48.3728 5.08313
626.356 55.423 5.72942
525.568 49.875 5.25163
569.031 57.0424 6.34374
550.083 48.3002 5.3393
456.26 42.9257 4.73342
465.834 48.0701 5.58278
434.083 48.5298 5.46819
508.022 51.1347 5.913
444.868 47.7543 5.71073
489.96 48.9362 5.93464
439.364 43.3593 5.27058
452.948 51.1633 6.43413
488.394 54.6788 6.67945
393.285 39.906 5.09154
443.837 46.4218 5.93833
510.257 50.5524 6.59426
511.136 55.3009 7.1338
538.025 59.6477 7.71909
462.349 54.687 7.25276
383.465 42.9422 5.86771
463.494 52.2737 7.16754
434.079 52.5927 7.31542
428.443 51.7807 7.22612
399.509 49.6789 6.87711
401.262 48.2246 7.04551
402.811 50.2864 7.11369
456.554 55.9245 8.14364
405.356 48.0294 6.9013
348.866 45.5219 6.74814
350.8 43.2174 6.6582
431.993 61.0949 9.54223
420.445 49.1783 7.47518
332.279 47.8017 7.5283
360.337 48.7942 7.56491
361.355 54.2201 8.72902
366.677 50.3333 8.12738
314.514 43.9984 6.81173
326.081 46.7605 7.78402
306.685 42.5362 7.1108
321.863 47.132 7.89456
374.869 58.4693 10.094
300.353 44.2109 7.66288
299.1 48.3682 8.4699
263.139 39.9175 6.88646
291.26 45.731 8.24163
281.908 42.4759 7.56422
299.839 50.0881 8.99076
305.278 48.1122 8.90379
258.535 40.5547 7.21496
329.805 52.8725 9.6804
259.445 43.7041 8.21726
281.383 45.7806 8.72159
294.169 51.9224 9.86959
288.227 46.6641 9.3162
251.01 41.9007 8.06808
246.393 47.5486 9.38067
284.879 51.3199 10.2392
277.741 45.411 9.04588
258.944 44.028 8.90516
257.692 45.08 9.2137
245.009 43.3477 8.86792
292.973 57.4581 11.95
272.745 44.3199 9.25573
229.529 39.4809 8.72561
251.992 47.4933 10.0264
247.501 43.9173 9.64595
252.981 44.2758 9.47057
237.162 46.8288 10.2438
257.688 45.5044 10.1219
290.388 52.2898 11.7666
262.655 49.2376 11.1677
240.352 45.7131 10.865
217.044 48.9831 11.0219
255.814 49.4684 11.9504
282.826 52.3704 12.2628
223.295 38.0851 9.18355
236.273 46.8054 11.3958
189.379 41.6836 9.78052
210.76 42.5285 10.1597
253.179 49.6304 12.619
228.932 44.6041 10.6415
219.101 43.9141 11.057
232.064 50.2572 12.5252
231.587 47.102 11.8636
204.233 44.101 11.3756
242.534 52.7834 13.5714
200.187 42.5774 10.3653
224.236 46.8949 12.7213
219.943 51.4425 13.575
193.598 40.2152 10.5795
196.443 45.6112 12.0306
190.485 45.5266 12.4787
201.245 44.3901 12.2215
195.031 42.4306 11.8001
193.15 45.6461 12.519
188.352 43.8149 12.0706
230.999 50.1272 14.1529
173.938 46.1802 12.9532
218.287 52.8014 15.4629
198.682 48.5464 13.6924
187.081 42.7919 12.5963
163.309 42.2897 12.911
188.718 49.3348 14.3094
181.355 48.2704 13.9219
168.351 38.9912 11.753
167.583 42.5534 12.9448
190.306 50.5073 15.4735
187.031 51.0923 15.5081
188.906 47.7393 14.9223
175.481 45.9788 13.7748
186.748 50.656 15.2781
166.314 42.9042 13.9056
162.128 42.3472 13.5287
196.851 56.176 17.8904
161.655 43.6324 13.8761
156.596 44.1803 14.5489
157.614 46.8678 15.6271
173.381 51.4422 17.0244
148.477 40.0582 13.2735
165.925 47.9041 16.5904
182.885 51.9348 16.6203
149.861 43.4372 15.5499
158.493 46.5825 16.0097
160.164 45.1993 15.8036
191.08 54.1985 18.5611
157.73 49.5681 17.0304
184.854 54.7155 19.1834
166.249 47.9369 17.3905
150.417 42.492 15.0017
148.524 44.9147 15.9524
122.564 37.9684 14.2211
128.735 42.0841 15.674
140.764 42.8102 15.9939
150.43 45.3481 16.4948
155.578 47.1272 17.1683
154.103 47.4301 17.426
131.265 43.8613 16.9783
145.121 43.3879 16.2018
145.62 48.3168 18.2887
154.931 49.6825 19.1309
145.471 43.109 16.4468
141.793 46.9716 18.4651
131.616 46.6952 18.9918
135.888 41.9296 15.3694
141.316 50.1315 20.3272
125.715 41.131 17.1341
153.702 53.7076 20.9809
122.781 41.3568 17.1028
140.634 47.5732 19.6322
136.114 49.5471 21.1613
145.573 50.142 20.1988
143.787 49.4294 20.5179
131.46 48.8371 20.3682
143.118 50.5609 20.9102
140.321 50.738 21.9803
118.606 39.5467 16.6952
119.25 42.0256 17.8452
132.012 47.3044 20.4032
128.924 47.7173 20.739
130.596 49.5038 22.6753
138.195 53.6958 23.0533
113.478 42.9021 19.7964
108.167 41.0466 18.4354
126.245 44.5313 19.7411
122.845 44.563 20.2448
125.582 46.6763 20.6476
118.015 42.3677 18.9115
105.597 41.5698 20.4979
125.572 44.5071 19.6195
112.346 45.4063 20.94
120.961 50.6255 23.5153
112.651 47.3477 22.1965
122.827 47.9366 23.17
128.195 50.1891 23.1285
108.4 45.9622 22.0857
112.606 47.0398 22.2959
114.912 49.94 24.3524
150.461 60.9243 29.9022
126.792 52.0003 25.8508
103.951 45.0601 23.2574
125.687 51.5444 25.2893
106.788 45.0001 22.9033
126.539 51.316 25.2689
101.905 41.5747 20.9497
102.269 42.8073 21.5743
121.048 51.6449 27.2771
96.3278 44.8861 22.8446
109.778 47.6558 24.7891
111.701 45.2006 22.6209
93.8518 43.2562 23.7908
111.852 51.9125 27.1711
97.7629 47.0129 25.1872
93.6834 40.792 21.3498
92.3336 42.3528 22.3972
108.189 48.8831 25.577
101.746 47.1687 25.6041
102.728 46.7779 26.4991
98.2919 45.8535 24.7014
99.4138 44.1933 23.515
104.485 44.5484 25.0179
100.969 49.5603 27.251
94.9185 51.0988 29.5475
94.2195 41.1804 22.8029
96.157 50.4072 27.9244
95.8643 44.9061 25.5722
91.6641 44.3834 26.1804
96.2992 46.3737 27.1102
100.538 47.2157 25.561
96.0542 49.9031 29.6655
94.0327 44.0905 25.392
89.1396 44.053 26.0933
90.6346 42.1964 23.9213
77.1664 37.3687 21.0022
98.5714 48.2945 28.3402
76.9788 42.5868 25.9685
97.0319 45.8647 27.7982
91.9136 47.4493 29.2984
88.6736 45.9567 27.9034
82.5973 40.5653 23.5779
81.6067 38.7396 23.9982
88.6014 50.3161 31.1293
72.5259 40.9251 24.7923
72.177 40.7942 26.1225
73.9243 41.65 27.0394
87.5831 45.6178 29.1288
88.7264 43.5046 26.2735
81.8948 41.2791 25.9636
79.6491 46.1763 31.416
82.8898 41.7945 25.6159
67.8147 39.807 27.0505
92.2507 47.6938 31.351
94.7943 51.2436 33.4267
76.1878 40.8171 26.0563
84.5399 41.1963 27.1524
83.8342 48.1616 30.8018
72.4487 37.9916 26.3337
82.868 43.675 29.212
83.4971 47.9144 31.7937
85.3327 48.8245 34.9493
69.6518 39.1948 25.1165
77.8517 46.3968 31.2838
71.9265 43.2546 30.6696
80.1531 43.6982 29.8371
82.0641 44.3039 29.2758
73.446 41.488 28.0184
78.1409 43.5275 30.2305
77.2332 43.0171 31.4653
86.2718 47.4928 34.3091
74.5004 39.9345 27.0576
76.7942 45.6425 32.0326
73.7926 43.1612 31.5204
65.4494 39.0966 27.9961
77.5416 48.1903 34.5533
70.2196 43.954 31.5543
69.3565 41.7769 30.7338
65.0763 40.4432 30.4311
69.7453 43.2219 31.3567
71.5751 46.9326 34.9388
78.6873 47.0371 35.7
74.4063 46.5235 34.5593
64.7467 43.0167 32.7469
69.6972 42.8539 31.1051
76.7357 50.5026 39.1697
67.6316 39.692 28.4828
76.4228 51.9193 37.9952
59.3923 40.2205 31.7811
69.79 45.2204 33.9724
67.4604 45.6329 34.8576
63.2538 45.0779 37.3407
56.8165 36.7901 29.8268
68.0041 46.0308 37.0353
62.0894 38.7426 30.8909
73.2688 43.5657 31.0933
61.5049 45.214 35.5525
60.2863 41.6902 34.367
67.4153 44.7848 38.0443
68.3012 45.7388 34.8623
68.0641 45.5651 36.2437
62.8152 43.5553 36.5511
64.0258 43.2566 34.3323
65.9618 50.8592 40.639
61.2229 42.2301 34.3261
61.9485 45.1528 36.8509
58.4903 42.6022 33.0108
73.2943 52.4311 44.3103
64.5096 46.583 40.3473
61.1357 39.1818 32.6283
55.6185 37.9862 32.7809
52.8136 40.4152 35.2164
59.5227 40.6389 34.1945
59.5845 42.5628 39.658
68.4642 46.963 38.5782
55.9715 37.6442 31.88
66.0909 47.0642 38.6129
48.7543 34.5433 30.7232
54.6126 39.2081 33.383
57.0618 38.6636 34.4637
63.9324 44.7382 38.2502
48.7503 40.0484 37.6659
66.3691 44.9245 39.3821
55.7817 42.9496 39.9014
60.946 44.7215 38.9506
59.3625 44.738 39.5054
57.0933 41.0325 36.6366
59.6266 41.9847 39.2871
64.197 49.7976 44.2979
57.3056 37.8791 36.0227
63.7141 47.766 42.4963
51.5565 38.1161 37.3831
67.9419 53.7973 45.5839
59.3839 51.3043 48.8394
54.9437 44.1432 40.7708
50.1877 35.5237 32.3212
50.2787 43.8213 39.4355
49.3973 39.37 39.7818
48.0765 36.604 35.4786
53.9616 41.8635 39.2609
59.779 45.4404 41.1151
53.6948 41.1997 37.1133
41.4262 36.7018 37.035
46.716 34.7432 32.5494
49.0206 38.1904 38.0647
49.1482 40.3001 36.8555
48.7885 40.9657 42.365
50.8191 38.0677 36.6035
46.5664 37.6233 37.8792
49.7059 42.4486 41.5693
51.1175 40.7768 38.6169
47.5828 43.4366 43.4538
40.5232 32.3954 33.6957
57.2605 51.2911 50.7665
53.4308 45.5378 45.8704
53.2718 43.8559 43.7967
47.5818 42.9622 45.3665
54.8428 44.1486 42.5882
47.8627 43.9949 44.0582
50.3666 43.0173 43.1688
44.0057 39.0008 42.6544
43.1325 38.6882 40.8478
47.7854 37.8907 38.177
38.2194 33.4549 37.1148
52.6145 45.9284 47.141
49.4069 42.0319 43.3052
48.3247 41.2269 43.2896
39.445 34.5334 38.631
48.1898 40.1162 41.153
40.8511 34.566 35.528
43.7153 36.3968 39.3872
41.4176 38.0116 41.2674
41.6087 33.6411 36.2677
49.6668 46.4837 48.0145
48.4025 38.8373 41.2035
50.5422 45.2401 48.9599
46.9563 46.4742 51.1294
42.9797 42.2414 46.2989
46.0357 46.7934 50.1905
42.7836 42.1891 46.6964
45.7766 37.4678 40.7543
37.4681 33.9032 41.2859
50.416 40.4103 43.174
40.9224 35.5665 40.15
48.2608 47.3179 53.2197
49.0659 43.5189 47.387
44.6239 39.6424 41.7334
37.7396 39.8324 49.0092
44.8308 39.5756 41.4026
45.2963 49.5297 55.503
41.8204 41.044 52.495
43.9902 38.0899 42.2194
48.4095 48.3097 55.3012
44.1401 39.0908 44.7086
39.0853 34.8855 42.5778
36.9212 38.7992 44.6561
41.8429 37.8338 41.8997
38.0873 34.2491 39.4197
44.4844 45.5739 58.5542
47.996 44.4381 48.8254
42.3906 41.1464 45.9597
37.8547 39.0677 44.7215
35.0491 41.7595 52.3461
36.1602 35.8074 44.4521
39.8485 34.9408 39.9
40.3117 38.4609 46.3554
38.372 37.7617 48.8041
37.0436 40.1608 47.7348
39.6365 38.064 47.7261
43.3937 38.3365 47.2295
42.1703 40.4243 49.0733
40.2269 35.854 43.8529
44.7929 42.7583 49.8083
43.4254 45.6729 55.6454
44.5376 48.0602 58.9764
39.3077 41.6565 54.1842
45.4716 43.7683 52.7374
29.6129 34.8118 47.291
43.1772 39.243 48.6179
39.1858 44.9527 57.9148
36.0038 41.0367 51.9679
43.9997 40.6111 50.4821
40.666 44.6997 54.9001
37.6452 38.0783 47.8929
39.0912 43.0096 53.8196
41.9027 45.5962 56.9905
32.8427 33.363 45.1038
33.239 41.137 58.3181
38.4553 37.6922 49.122
36.9396 41.1801 54.0598
38.5863 42.5755 52.6162
43.4938 45.8687 60.0542
33.2689 39.3526 55.3647
41.9057 46.8447 61.4127
36.8757 39.9201 51.0729
30.2564 31.3516 43.0863
38.108 41.9036 55.9549
38.3693 39.0955 52.5745
36.6688 37.383 48.4121
34.6039 39.211 50.3978
27.0602 30.5474 43.1652
29.5224 35.2492 49.4897
32.3167 39.254 54.6029
39.1944 42.1722 55.3245
31.3352 33.8916 46.1642
29.5747 35.293 52.078
35.0442 34.9263 47.8375
33.0779 38.6311 50.2013
35.9886 47.3596 61.6979
34.8359 40.6526 58.8304
37.8729 46.6705 60.52
31.4397 41.7747 60.2721
30.2427 35.5513 54.7132
38.9371 41.8735 49.841
28.4628 34.0236 47.6174
32.7261 37.6493 54.1425
31.522 38.6361 53.7567
33.8716 44.4662 61.9273
31.2682 34.2602 51.9888
35.4181 40.0937 59.3977
33.6113 36.9383 53.5072
32.9198 39.9363 55.1077
26.0765 28.0003 43.7864
30.7432 30.9518 40.5559
31.1681 40.355 56.3941
29.68 37.5405 54.6733
30.0637 34.9516 53.273
34.5729 40.92 55.1697
28.1937 32.9365 52.897
31.5891 38.3244 51.512
29.6712 39.7661 59.9405
29.5155 35.6436 53.7907
28.0999 34.5016 53.1217
31.6093 37.8545 55.845
35.0639 42.3282 64.7402
33.3576 35.423 51.424
32.5025 39.9157 57.6323
28.6005 34.9438 51.5485
28.4747 36.1351 56.8349
32.7639 36.2429 52.9716
26.3849 31.6755 49.8404
25.479 33.8099 51.8018
31.7763 38.6436 59.357
31.0673 36.0006 56.5706
31.5799 36.8537 59.1783
34.3613 37.2688 52.2876
34.3662 42.4601 66.8079
33.8576 45.4174 65.8934
29.7827 38.1937 62.9575
30.239 37.9477 55.7525
26.8676 33.8972 56.1872
35.1586 40.2962 54.3661
28.8305 41.0726 66.4126
24.0203 35.4189 61.2537
31.8884 39.0871 61.1124
25.4354 31.2251 50.6332
28.5266 34.6798 53.4349
31.2884 40.2349 68.0438
34.1336 38.7234 58.7789
28.2261 37.5129 61.9815
29.581 35.7435 55.1401
31.4738 40.9559 62.1681
29.1054 39.7008 62.9515
32.1881 47.6815 79.0773
29.5654 35.4493 56.9153
29.0714 37.3136 59.9928
25.7593 34.2717 52.5117
29.5164 42.9024 71.9333
30.5671 35.5311 56.7647
24.237 34.5201 59.3405
26.1411 35.9816 59.729
26.6309 36.8039 59.5956
31.5321 37.9765 63.8378
30.9959 44.8018 72.154
32.4367 47.4562 77.1043
25.2444 32.479 56.311
26.6233 40.3619 68.2675
28.0159 40.3953 67.313
29.4827 43.9319 74.928
30.1803 38.5567 64.9319
27.7752 35.875 58.7915
26.2153 37.1184 65.1972
29.3739 33.3909 51.6862
28.1288 34.1138 54.1707
22.6461 35.1599 60.9118
22.473 34.0214 62.854
31.2333 43.3394 68.5819
25.5114 37.9762 67.2383
26.3207 43.8102 82.3399
32.4182 41.5924 69.263
21.9438 29.0059 52.3576
30.653 42.1131 63.2706
23.4365 39.8545 72.9736
26.7963 34.6341 58.8988
23.5546 34.1135 62.2524
25.7314 36.4841 61.9129
28.3559 44.4557 81.0197
27.4221 40.8076 67.8283
25.9381 40.406 76.3978
29.8171 39.0896 66.382
24.7006 31.7143 59.6898
26.8902 36.4077 65.2775
27.8003 36.7541 64.2582
28.9864 41.9447 72.2898
23.797 35.9599 64.6904
26.8656 37.0871 65.0491
21.1999 31.1946 60.1213
26.8879 41.1587 65.3245
20.1052 29.8313 60.283
23.4396 30.0157 55.2321
26.0976 38.9272 74.3366
26.0278 37.1931 64.2968
26.496 39.5266 69.4559
23.6948 37.5563 66.5071
23.2421 38.577 70.9743
24.4459 36.6474 64.5811
19.1369 27.7447 58.2464
23.7365 29.6995 54.4192
21.9286 38.0445 70.6951
24.6209 36.2573 66.9624
21.4923 33.5971 65.9761
22.2131 32.8403 62.5254
23.4329 35.6892 64.1048
26.4971 42.1859 83.7787
27.8193 40.3773 74.5485
27.9959 42.9553 81.3414
27.9358 44.7111 75.658
22.7156 39.1331 71.9475
21.6791 36.0028 74.0676
23.081 38.7644 74.1119
26.15 35.0141 68.9661
25.2577 37.4488 74.3035
27.2648 38.2097 63.7707
21.3394 32.0295 59.1565
19.5785 33.5291 67.1064
22.0463 33.4162 67.721
22.7048 35.4472 65.8111
21.6372 37.1869 70.1819
22.0444 35.7863 72.3693
23.7622 35.9341 68.0302
26.0529 44.6529 84.8215
21.7136 35.262 69.2185
25.405 34.546 63.0559
23.928 36.0489 73.3036
20.2554 31.9562 62.4868
18.735 33.5405 73.9759
23.1198 30.5189 55.2789
21.7885 35.3078 70.4781
22.7041 35.3414 65.4642
19.04 32.3862 73.328
26.3743 37.7064 72.3443
23.6964 37.491 71.3322
20.8562 34.8286 70.3596
20.0361 35.2227 71.9645
21.939 35.0847 67.8667
20.0225 32.7866 68.7831
21.1977 37.7454 75.2036
22.2248 39.4236 79.0176
17.767 31.7908 78.6282
26.737 35.9894 64.2809
18.5483 30.7388 66.3076
18.6012 32.5678 64.0739
21.4742 34.0799 68.5985
20.9793 40.0874 81.3383
25.2866 38.7255 69.6234
18.277 31.152 65.8807
20.1044 35.4346 75.0393
21.3049 30.7518 61.8245
20.1514 34.3706 72.8032
22.9204 37.6802 81.0688
22.279 34.0764 63.6793
16.7684 30.6744 62.8634
20.4103 35.0419 76.3685
21.9624 36.913 77.2042
22.6712 35.1204 75.5832
21.3225 35.3262 74.1793
20.911 38.477 76.7964
21.5131 33.7439 69.9952
20.1412 35.0777 72.743
17.6163 28.0897 64.2731
17.6578 32.5906 66.3222
19.9041 32.9836 65.801
17.9166 27.4299 61.8855
19.5068 35.9091 74.9763
16.6137 30.8358 71.482
21.7139 32.4951 73.6009
23.7164 40.507 78.5159
18.7974 35.8076 80.5266
18.0838 28.2278 58.4362
16.479 28.8277 68.0199
21.6091 36.9961 76.0532
19.5095 38.6967 78.5435
17.6214 34.188 75.4928
17.4137 29.3692 66.1142
20.2187 35.7296 75.1646
21.9505 38.0025 80.7145
20.9503 29.729 63.0759
18.516 30.6479 64.0808
17.1343 32.0013 81.8475
20.1393 35.1767 75.6069
17.9441 28.1948 66.3082
17.9553 34.2029 80.2014
20.7063 34.3269 69.1939
19.5077 34.4166 72.9659
15.939 25.3509 58.9913
16.4392 32.1266 72.4508
21.251 40.5026 87.1949
19.7646 31.918 69.1716
19.0976 31.7256 76.7243
17.5046 31.7207 69.4056
18.2378 35.2768 81.4649
17.9616 31.1867 71.2729
15.3198 30.3922 64.9934
18.6468 34.1861 72.4605
18.5123 35.5756 83.5133
20.3135 33.7091 76.4322
20.0058 31.2707 74.1656
19.9056 34.453 76.7428
19.2238 32.0305 73.2012
18.2446 33.4225 78.1905
18.9886 33.472 69.9636
15.5972 29.941 75.2603
18.5604 34.8508 84.8303
21.3771 35.9469 75.4921
17.9826 33.9864 81.9198
19.1534 36.8997 84.7053
18.6791 32.4992 73.9388
17.4571 31.7116 71.2235
18.3636 33.7818 86.1158
17.4057 32.5305 79.8086
20.6566 39.4888 90.412
18.7164 31.3036 69.6123
19.4673 36.2668 80.7558
16.8011 36.5795 83.5201
16.634 29.9912 72.8061
19.516 34.3162 80.775
16.9363 32.0941 71.915
16.3474 29.6936 72.4647
17.9692 35.5986 88.2104
16.6407 31.5517 75.7423
16.371 26.197 59.0802
14.5788 28.4123 71.2183
16.8335 30.4058 75.4474
17.7423 32.1515 78.0455
18.6646 30.9179 72.5083
17.3563 33.2375 67.004
14.8544 31.146 81.9581
17.1991 32.4134 84.7157
16.2268 29.0094 63.9684
16.0696 36.1113 87.8524
17.4603 36.5325 93.0404
18.5568 27.021 65.8664
15.7019 32.3275 75.6275
18.2432 36.8188 86.423
17.9887 37.9027 83.9399
15.0333 29.9534 74.3448
14.9791 27.8113 73.3579
14.1321 26.9029 71.951
17.5706 33.6149 77.7013
15.164 29.2487 66.543
15.5675 32.9925 87.7905
18.1578 38.142 94.9812
17.6131 34.5558 90.9152
17.7752 29.7776 77.5905
15.3971 34.4856 80.8257
16.4202 30.1575 76.9633
16.8445 33.0521 77.8954
16.9232 34.2992 79.358
15.6043 36.915 93.241
14.7527 28.8863 70.6944
15.8622 31.3037 85.7604
16.2569 30.6911 82.4626
19.2942 37.0803 80.1256
15.7408 30.4814 79.0019
16.2877 31.858 94.2983
19.7435 37.1696 84.7121
16.4635 36.0072 91.4759
19.0287 36.3748 85.8089
15.3235 34.0865 89.0282
16.5227 33.7906 97.0385
19.2602 34.1455 80.2687
15.4531 32.1484 77.3734
14.1696 30.3932 76.0562
13.696 32.4784 91.4953
16.0554 33.3548 92.8002
17.9473 36.1517 91.59
16.8793 33.3843 84.3153
15.2575 26.9913 67.5298
15.4429 29.4868 77.289
15.6064 30.9041 75.8135
13.9406 30.0923 81.6756
15.6983 27.0208 68.8195
14.0359 31.3668 80.1233
14.8652 28.3177 83.6744
14.4656 34.2203 90.1142
17.4122 33.8427 90.8613
15.5112 26.4892 62.442
14.3277 32.9474 83.1128
15.9322 34.2274 85.3963
14.4473 27.8936 74.1083
15.3374 34.0756 93.8002
16.4679 36.6495 84.2231
12.4247 25.7866 76.1275
17.4528 35.6601 87.4689
16.3301 34.1706 78.539
15.3868 33.0899 87.7912
13.2522 28.7172 75.8983
12.4859 26.528 82.0527
15.4211 27.0323 71.4107
15.2061 32.5355 81.963
11.8355 27.3096 71.7718
13.8755 31.1433 89.548
15.2998 30.2104 75.6767
13.8445 30.407 88.8742
13.7114 29.0104 68.7123
11.6962 26.9109 80.9624
14.2549 29.5884 88.6202
16.9446 32.6479 76.8423
12.7233 29.8809 81.8492
15.0592 28.8203 80.8031
15.4593 28.9785 80.1298
12.7391 26.3972 69.0453
12.8302 28.383 81.8258
13.0092 27.9329 74.8971
15.5612 35.9619 94.6095
14.4665 30.5225 79.0269
12.663 25.6346 74.215
14.5418 31.5481 82.6593
12.7383 28.4795 83.1211
13.3874 27.1538 72.6051
12.3858 30.7791 85.4658
13.9329 35.5147 86.8049
14.407 34.1403 94.4006
12.4777 27.0548 81.5111
13.2718 25.7338 76.6179
14.5829 30.4125 82.5747
13.4476 34.3712 98.3436
14.4514 29.4237 81.7213
13.255 23.0642 65.6469
14.7192 31.2166 86.6565
13.9747 28.1952 68.3338
12.2115 29.5988 92.3743
13.7564 33.6041 91.1363
14.3408 32.4232 99.7466
15.5375 29.8601 81.0822
13.2792 32.2731 90.9814
14.517 33.2589 93.5516
14.3584 28.6657 79.234
13.6787 30.6533 97.9829
15.4392 33.7166 81.9162
11.843 26.9016 76.0865
12.3816 30.2002 91.2285
14.5366 25.897 78.2399
13.9309 29.2066 82.0811
13.5578 32.4407 91.5976
13.1786 32.0884 93.0912
15.5227 36.5795 92.4579
12.0529 25.2999 70.8819
11.5755 28.3959 84.3027
12.962 30.8585 84.3027
12.8875 27.1959 84.5687
13.5693 34.0929 99.5553
13.2 27.038 84.2248
12.1551 30.8629 84.4017
14.1343 31.7792 95.783
13.7751 30.7126 80.0094
11.9676 30.0788 94.4469
14.2304 26.2916 72.3104
13.463 28.4556 76.0753
12.8341 30.8402 96.6539
14.3395 30.3267 83.3663
11.8146 28.5535 78.9768
11.7047 30.4304 97.427
12.573 26.426 71.177
10.8318 26.301 77.3476
12.4003 32.1887 99.1108
14.9474 33.5799 88.3004
12.2541 30.1768 97.8719
12.9492 30.5858 87.8991
12.112 28.8735 86.0551
12.6593 28.6947 75.203
11.432 26.6361 82.3308
12.3604 26.8217 79.2375
12.2675 23.0959 66.7454
11.119 29.2121 90.7806
11.6912 28.4341 83.9401
12.1088 27.5741 87.7778
15.058 33.4855 88.4847
12.2028 29.1984 94.5544
13.3842 30.2274 86.7382
12.2694 28.911 95.0294
14.5868 31.7518 89.4838
12.5481 26.9803 82.5014
13.2332 27.1537 83.4997
11.8229 25.3609 81.0478
11.8937 25.4874 77.4912
13.0274 30.0005 88.7261
12.7055 31.4469 86.7798
11.5673 26.1788 83.4988
14.0506 32.0772 88.1694
12.6936 33.6964 99.435
13.321 29.6382 95.0722
12.7269 28.091 85.608
11.9575 28.6485 86.0888
12.7239 29.9956 85.5848
11.2149 26.8835 83.5317
11.5618 29.4583 95.3089
12.1336 29.5947 89.4289
13.0155 29.1294 86.0534
12.4357 27.6325 89.1849
13.484 29.903 83.4839
11.5423 27.9028 87.4573
11.9251 30.9848 94.1234
13.844 27.9086 93.5455
14.6338 35.885 97.9342
12.8211 28.9089 83.0965
10.4997 26.3252 94.6037
11.9765 30.3842 90.6964
11.6638 28.0439 88.3611
12.5592 25.1952 69.2339
9.74751 27.7563 89.2456
13.3564 29.9787 93.0865
13.3641 29.0308 88.3729
11.1711 29.403 88.2126
12.5137 27.8854 91.5021
11.3385 24.6935 82.3871
11.4026 22.2989 80.1609
12.3995 31.0945 88.3626
11.4467 27.8459 87.0787
12.4371 27.0716 94.4814
14.299 35.2684 103.278
12.9659 29.0068 88.5448
10.9875 25.2713 78.1179
9.96034 23.7367 85.0766
11.9941 30.3548 87.9871
9.70747 26.5338 86.0058
11.5021 27.9788 89.4075
11.9108 29.6637 96.7678
12.6486 28.7032 78.5414
10.0178 28.1061 99.911
12.7132 27.6809 82.8927
11.1987 29.3541 82.3034
9.88255 29.1053 106.708
12.1929 31.9511 104.488
13.8724 28.5077 90.3991
11.4233 26.0551 87.6632
13.7987 28.7374 82.025
9.82099 26.3188 82.7797
10.0416 29.6873 99.5408
12.4544 27.737 86.5805
11.4339 29.0371 92.5275
11.9104 25.9263 85.3452
11.9033 31.0439 88.2383
10.5539 23.2057 81.9943
11.0274 29.3297 91.1241
10.9382 26.7882 89.2937
12.0185 28.9296 104.734
13.4945 33.0609 103.989
11.2308 27.2439 78.5813
9.97941 23.9898 81.4147
10.2364 28.3111 89.0323
11.0934 31.4882 96.7671
10.7597 29.5449 99.6634
10.1761 23.5872 85.849
10.8006 25.5233 89.3102
11.927 30.1175 84.389
11.087 29.1619 98.1841
11.5524 33.0604 103.825
11.5733 25.1103 73.1007
8.4995 26.3158 94.3633
11.3804 24.7228 81.0225
11.1684 25.6878 89.544
11.1556 30.3199 87.9844
9.81663 25.5261 94.5592
12.5579 31.096 94.7217
10.1763 26.257 92.14
9.99206 24.301 79.6818
9.16201 23.8974 88.1918
12.1135 27.0285 86.2523
11.4466 26.7045 80.0675
9.33394 30.7199 107.11
12.5704 25.5849 80.0908
9.6234 26.1443 90.9392
11.7043 26.1861 96.0735
10.6255 24.2554 83.8088
11.6405 29.8294 91.9201
10.7658 27.027 85.319
9.97178 24.5652 93.145
10.0616 26.7891 89.0984
10.8645 29.4445 101.872
12.5313 31.9003 90.0005
8.93313 22.2588 78.1984
10.7884 30.6155 113.971
12.0637 28.748 92.1204
10.162 26.9642 87.8357
9.38731 25.1026 85.4648
10.4827 26.9246 78.6909
8.4587 23.0213 92.6519
11.2043 24.0533 87.3939
11.1681 26.6811 87.0766
10.7543 29.9781 95.3847
9.53292 25.7551 92.7806
11.1628 26.9487 89.4921
9.9645 24.5329 76.5554
8.69215 26.5403 93.4955
11.4615 28.275 92.2203
9.63548 29.0303 97.6505
11.5491 25.1756 84.8017
9.70335 25.8343 88.3821
10.577 25.4721 87.7521
10.92 26.5324 83.8078
9.52093 24.3403 92.4812
9.70887 27.4618 102.644
11.0926 31.1888 93.8086
9.20205 23.5921 84.28
10.3349 29.73 101.516
11.5407 29.4833 86.3279
9.57265 26.3094 98.2436
11.5468 30.0925 100.239
10.7392 24.9167 80.7019
9.27881 30.9613 104.304
11.6467 28.169 90.2938
11.5081 31.0686 104.044
10.0595 20.6853 80.5152
9.75344 25.6551 81.0305
9.55959 27.1407 105.959
11.6946 24.6934 87.7491
9.90558 25.2515 84.2024
10.4336 25.2882 86.7578
9.27496 31.0184 107.405
12.1772 24.2278 78.9979
8.83689 25.4599 98.2789
9.37276 22.1492 81.6161
9.45129 24.9206 83.8204
9.99323 24.3779 87.7093
11.5401 29.2134 90.6934
10.3764 28.7982 100.306
9.8599 25.8089 78.9819
8.82621 27.0646 95.5839
10.0942 26.7728 89.9182
10.5201 27.7909 106.188
10.7417 27.5293 81.729
8.90052 28.7924 105.59
9.31701 19.7108 90.3682
10.7064 28.3549 97.9291
10.9555 27.0052 102.033
11.1317 30.6344 102.492
10.3671 25.8755 87.952
10.0946 29.3672 89.6259
8.48293 25.0334 102.857
10.3554 29.3026 93.2273
10.4783 29.2366 96.177
9.75402 29.0971 103.003
9.46002 24.6832 91.5468
9.42227 24.7741 94.2839
10.6467 23.6192 84.8619
10.4489 22.3331 74.8661
9.23194 26.8476 92.2673
9.58103 24.2418 80.9649
8.09007 18.3841 75.0807
8.4582 22.6687 98.2114
9.7101 26.4014 92.2343
10.4139 26.3127 89.0111
9.84138 23.9068 80.344
8.63115 23.2885 79.6917
8.35389 24.7625 85.7422
9.36439 22.2721 82.9941
8.76882 22.0362 70.9026
9.33608 25.5948 87.6806
9.50944 26.3708 109.883
11.1239 27.5911 96.0338
9.16868 21.7619 76.3257
9.08866 24.1433 82.4545
8.91231 26.1638 89.7973
8.46642 25.3585 100.221
9.80338 27.0963 80.6362
8.93191 27.1103 96.3636
9.82759 23.983 92.5451
10.0121 22.4114 89.1516
10.0615 31.4822 106.939
9.39459 21.6221 79.6485
9.36755 23.1412 81.2574
8.11906 22.1447 80.4301
8.84661 30.8505 110.251
10.886 25.4691 96.9341
9.67356 23.107 86.2034
8.57346 24.1499 87.5999
9.22022 24.8964 90.0935
9.67731 25.0427 93.3191
9.65881 25.3145 79.2752
7.70256 27.1232 100.926
10.791 26.1784 96.2811
8.97593 23.7 92.5301
10.0991 23.9541 84.4648
9.12153 25.6532 110.191
11.0389 26.0647 86.1707
8.33562 23.5977 88.1904
9.53362 28.7026 95.097
8.81059 22.6782 93.2486
9.44895 28.1473 88.6823
8.44355 22.8206 86.8983
8.65073 23.6776 85.9419
9.21969 29.8971 97.1822
8.71563 28.1081 105.726
10.0235 31.1428 95.0039
8.66459 19.8123 91.2949
10.0042 24.3554 85.8506
7.96275 20.7303 85.2711
8.37084 26.2158 96.2441
10.4426 21.9725 101.459
10.1645 27.2514 79.9744
8.9353 23.1335 92.7361
9.88596 24.9873 95.2574
10.6174 25.8707 95.755
10.0727 26.9817 84.6458
8.31006 26.6019 119.093
11.2136 28.454 99.3292
8.93218 25.7537 97.5283
9.27569 28.2011 100.772
8.54615 21.0007 78.8682
8.35897 23.6746 82.7072
9.29909 25.6168 93.1919
9.21422 22.8637 86.8124
8.62331 23.1232 90.855
9.53249 25.1841 81.402
9.58857 29.0286 105.289
9.71375 27.3011 99.8347
9.0216 23.0688 93.5193
9.31661 26.1487 100.086
9.3768 26.549 95.2463
8.03736 23.2006 92.6084
9.20669 23.7946 81.6978
7.93749 25.9804 99.2808
9.62147 21.2047 72.5543
8.07503 23.344 94.3613
8.33129 23.4944 83.2722
8.97165 23.8365 83.3538
8.51012 24.4131 109.806
10.7913 25.9198 86.9175
7.95233 24.0069 100.676
8.86737 25.7929 85.176
8.28402 23.8503 83.7004
7.94095 24.7264 104.068
9.71202 24.0509 89.6899
9.03182 26.2985 86.9485
7.42948 23.3987 95.8455
9.31039 25.4742 95.7783
8.93532 21.6834 72.5356
7.74141 23.4462 91.2344
8.82505 22.8552 98.7443
9.09283 28.4253 90.8567
7.75456 22.5731 91.3607
8.94089 22.788 93.9003
9.34264 25.3177 80.5911
7.24709 20.3331 95.99
10.0775 27.2074 93.519
8.7199 26.7131 110.649
9.63386 24.6931 89.3892
8.8167 27.7433 102.862
9.32761 27.4035 98.1931
9.01264 27.089 93.6001
8.41243 21.7364 105.082
9.32584 28.6202 94.9057
8.92069 23.01 90.6623
8.78819 23.5096 80.4822
9.23433 26.7546 93.6787
8.71382 24.4041 95.89
7.83097 20.942 82.9245
8.46598 24.8916 97.9438
9.35118 25.3938 83.6197
8.46459 24.421 101.184
9.53551 26.0321 91.7121
7.83727 21.8992 85.7375
7.7932 22.2064 92.8893
8.52411 26.9341 97.2696
8.78038 23.3552 96.9911
9.1323 24.0054 97.6847
8.52582 26.4279 94.5683
8.50547 25.4992 93.615
8.84575 23.2978 80.1611
7.12482 20.2558 81.214
6.54934 23.2288 78.3412
6.80472 19.3991 87.2794
7.76816 23.8318 95.1273
9.43391 26.3787 90.278
8.15836 23.9393 92.0678
8.54674 26.5239 99.8321
8.70489 20.5638 83.6936
8.05178 24.4564 99.2057
9.33255 23.1227 85.8956
7.12447 24.6335 103.294
8.46486 27.3556 99.2219
8.21424 23.9674 94.5681
8.28944 24.4915 99.333
8.59341 25.6121 92.2154
7.00941 24.8411 101.529
8.94953 25.3622 85.9822
7.31822 23.9712 89.931
8.36502 24.4068 105.01
9.25236 24.7667 92.0399
8.63423 20.3603 88.6716
7.65174 26.076 81.9312
7.45632 22.8295 91.4211
8.46328 21.2681 103.959
9.74679 23.5396 85.9429
8.94324 23.4902 81.6529
7.69908 23.8049 95.6368
8.16547 21.7748 80.6281
7.68106 23.2099 81.8516
8.41581 22.3376 94.0343
8.40775 22.446 94.6175
9.22006 24.4422 80.0148
7.46531 22.7219 94.9665
8.76045 22.1993 82.853
7.24025 24.6344 102.079
9.68202 24.0357 92.1682
8.52844 24.413 89.4671
8.06015 21.1027 84.7431
8.26062 23.6332 79.6786
6.93629 17.0889 80.3347
7.47238 22.8831 95.1216
9.12775 29.0303 99.8271
8.52422 21.4997 104.808
9.54396 22.8894 92.7858
7.79831 26.7423 88.8385
8.08083 25.8831 99.0492
8.29598 26.6784 82.5634
8.17964 20.3025 85.4072
8.41123 20.5729 81.7374
7.63869 18.9803 84.0691
7.39808 23.2815 94.2536
8.76745 25.5534 94.4057
7.33005 24.057 78.8347
8.04229 24.2765 108.253
9.09096 25.118 107.617
8.9714 27.2797 89.4222
7.96443 20.4759 87.2798
8.76994 29.9554 109.991
9.95277 21.0644 76.5975
6.99596 23.6805 96.7822
8.298 19.6644 75.9924
6.9312 23.0723 97.0447
7.68005 20.1815 89.6014
8.33333 26.4669 84.1524
6.99999 21.7919 85.3941
7.32069 24.4751 90.0571
6.90042 23.6043 99.0022
8.44366 22.1918 88.9989
7.62847 22.733 93.0586
8.49736 19.4306 99.1382
9.19616 27.9754 89.3347
8.72483 21.2341 83.9109
7.6006 25.5048 105.519
9.88842 22.1778 74.0604
7.70021 25.0029 105.363
8.60718 22.8199 75.8202
6.66333 16.6278 75.937
6.96155 21.6555 82.4028
7.69421 24.6921 112.128
8.89272 24.8035 91.8777
8.98762 25.523 84.2866
7.45751 17.988 90.7116
9.53775 25.3095 87.8256
7.52817 21.9088 75.0694
7.16884 21.1112 105.977
8.83903 27.4066 99.7311
9.15763 23.6259 103.423
8.50753 24.0748 93.3485
7.8216 23.5053 95.0545
8.68089 21.9695 77.9964
7.02591 20.9632 75.1653
6.91335 19.0232 84.6141
8.71205 21.4361 96.7122
8.42073 26.0287 86.6191
7.88139 23.8012 91.6178
7.95166 25.1819 101.702
8.41045 24.3519 95.23
8.63633 18.8875 79.9054
6.89948 21.6953 84.574
8.32673 21.8392 80.2263
6.77269 19.8329 79.96
7.93056 21.7832 103.392
8.22068 23.3306 88.3927
8.57375 22.0174 86.4405
7.65611 24.3571 84.0203
7.33621 18.5919 87.7697
7.91406 23.1252 97.7726
8.36414 21.437 85.5408
7.79772 20.4473 87.7203
7.89247 22.6168 83.5653
7.51044 24.1421 99.2142
8.10878 25.3726 96.8884
8.21307 25.4746 107.254
9.10149 26.8569 92.5255
8.4043 22.3136 83.1461
7.58037 24.6194 98.5406
8.26615 22.9227 86.9802
7.28198 23.3778 99.1602
7.70085 24.3146 96.7323
8.24916 23.5785 89.9854
7.64963 22.9201 95.5788
8.27267 22.8151 83.8029
6.85028 19.9121 77.374
7.3986 21.3502 100.184
7.91597 23.5415 92.8713
8.52662 23.6322 90.5596
7.97311 23.7108 91.9354
8.50287 25.5876 96.714
9.10264 21.1246 81.2864
7.20353 19.726 86.0819
8.14589 22.8373 98.7344
9.19762 24.0932 92.6492
7.93557 24.702 105.947
8.74173 26.201 81.7262
7.19223 17.9698 85.2421
7.82085 23.9605 88.6304
8.27449 22.9862 89.5446
7.85664 20.5337 85.7144
8.53778 23.6666 101.006
8.62829 24.0829 90.3332
8.12329 24.4077 104.724
9.09633 27.2591 99.6447
8.27818 23.7351 83.7769
7.31527 20.0452 98.643
8.51911 23.6999 86.0966
7.86104 23.9237 87.0677
7.23503 19.0397 78.9535
5.89252 23.8202 98.9048
9.00051 23.3942 114.371
9.13674 29.3701 100.84
8.28268 26.6575 117.2
9.40723 26.8031 96.2661
7.66155 26.0215 100.632
8.37124 23.5713 108.182
9.25525 25.7023 96.7175
8.31161 23.4208 98.0948
7.8814 25.0554 98.6782
8.75341 23.2182 79.2559
7.73492 20.4135 82.9357
6.70461 21.0267 102.518
7.99569 25.5602 87.599
7.58223 23.2059 84.8237
7.4747 20.7185 91.1613
7.63804 25.2005 106.02
8.96024 25.0487 79.6494
7.31492 18.7739 95.9361
7.87414 22.6037 81.4199
7.00432 21.0845 101.761
8.14473 24.9845 86.4109
6.44738 22.6898 96.797
8.8892 24.6253 86.5898
7.18102 22.5887 86.1956
7.35521 20.2923 100.292
8.0605 22.696 70.5041
6.62124 20.9581 86.8132
8.01802 19.1898 80.6754
7.11398 22.869 92.8887
8.10721 19.2282 87.6056
8.05782 25.0608 84.846
7.55722 21.6128 90.4341
7.29286 19.9452 81.9547
7.88812 25.9842 99.2613
8.77413 21.806 82.3643
6.60579 19.0062 92.5674
7.90095 28.7603 101.739
8.24773 22.2114 86.6828
7.10509 21.2587 90.4669
7.99757 21.3702 91.4679
7.1859 24.8795 83.6138
7.29951 22.4001 89.3238
7.16506 21.5107 84.6641
7.25385 25.3037 102.611
8.57211 22.5252 93.5471
8.17386 0 0