# pn-170911/CsIIA-24-PTBB-1280-1959.psd
# Power spectrum* (dif=0,1,2) (really just |FT|^2)
# NOTE: only the first half! (symmetric)
# weeks: 1280-1959
# 3 clock-days, 1 excluded
# PSD: 1441
76152.8 1.83304 0.0169719
2.27412e+06 31.029 0.00998667
1.69494e+07 332.376 0.0252694
1.1488e+06 41.21 0.0193648
330535 37.369 0.0109421
286452 44.922 0.0153227
220428 13.7568 0.0175748
609197 94.7648 0.0556178
174206 65.628 0.0210138
73914.1 16.1185 0.0158484
130873 26.4252 0.0175392
45815 33.4163 0.0291992
25131.6 27.9528 0.0411827
22138.3 26.7099 0.0190821
15289.1 6.91619 0.0100963
97902.8 109.243 0.12164
21414.8 31.3894 0.0772712
25788 53.5652 0.10273
13517.9 17.4317 0.0375978
37150 40.2797 0.0579539
30915.7 59.4658 0.179661
11451.3 26.4108 0.0743364
57560.5 78.8812 0.185807
13623.4 33.9022 0.138715
51080.9 100.782 0.345441
20498.5 71.8662 0.209551
41739.1 89.3796 0.292743
14843.6 27.8879 0.0956781
19632.5 35.3024 0.1149
17602.2 29.196 0.103564
10131.3 21.6187 0.0759128
9494.95 82.817 0.443851
14596.8 40.5602 0.174598
12006.5 38.4763 0.200171
17527 68.3417 0.398882
4893.73 28.21 0.241989
11415 59.5408 0.429045
16230.6 87.0668 0.492845
18021.2 100.24 0.669457
14754.4 79.6126 0.5875
8857.4 27.3806 0.234976
2249.52 14.7096 0.126397
10204.6 133.115 1.02923
8273.82 50.7933 0.381923
5266.35 21.2774 0.242375
5977.23 41.3621 0.373768
1645.92 13.7246 0.137479
8610.7 57.2147 0.638804
3970.21 57.4333 0.695908
9641.05 100.189 1.19266
9768.99 96.0022 1.36407
2737.37 8.44389 0.16147
7280.91 84.1775 0.977181
3158.97 69.5705 0.874648
3851.98 39.8363 0.61214
4342.54 67.9892 0.948782
1668.68 49.6659 0.717607
2980.55 57.5423 0.974141
1970.48 10.9094 0.119422
1492.7 16.7473 0.293352
4668.95 50.0497 0.854289
840.911 13.5723 0.235606
3714.48 37.0585 0.746293
3639.55 45.9553 0.898944
2872.54 30.3536 0.696544
1056.01 8.89309 0.117469
1118.36 23.1941 0.477838
3598.87 75.9559 1.91115
3644.09 45.6472 0.873495
1862.58 21.1908 0.560878
1780.79 22.1439 0.537177
1900.04 29.7947 0.845855
1518.5 49.0448 1.19005
655.031 7.11697 0.186473
2302.99 45.3849 1.26675
1202.86 23.7156 0.68072
2599.23 32.0861 0.973555
2473.98 50.4247 1.35902
1855.62 37.9197 0.913368
868.862 24.9881 0.669876
4249.02 69.7555 2.04161
2490.86 38.0303 1.09629
1575.86 21.8989 0.811205
1169.36 49.8338 1.34532
831.031 27.5998 0.955717
2241.88 59.7814 1.7361
2163.85 85.7778 2.81667
840.55 17.0145 0.674264
1366.92 35.9342 1.28333
1613.38 53.3104 2.17146
383.296 21.0109 0.814687
1577.65 28.7701 1.09119
1080.88 31.7601 1.10433
2419.48 128.407 5.29861
2423.19 66.1774 2.84332
1616.36 27.5241 1.07553
884.031 50.4433 2.0328
1732.89 89.4225 4.10551
1953.54 79.443 3.48142
1093.54 47.8036 2.40677
1547.21 34.7876 1.65554
1349.94 51.6934 2.24952
759.565 33.7479 1.49254
1406.1 97.1811 5.13733
1577.94 27.8189 1.34004
1714.24 93.6119 4.64713
684.994 54.7011 2.88893
2380.35 135.253 7.43243
1656.4 75.8451 4.29009
378.086 16.8187 0.925671
818.618 19.9398 1.13737
839.51 19.156 1.06074
678.953 19.4369 1.16957
718.964 46.8228 2.78982
270.287 50.3294 3.12281
727.961 71.1737 4.6256
3147.69 143.465 9.36373
220.328 32.1023 2.38867
693.069 33.0457 2.18294
340.234 14.0073 1.23417
538.083 19.8406 1.06448
563.395 51.1231 3.46455
625.958 10.3927 0.661243
1544.24 70.9541 5.11998
284.733 15.8534 0.941374
322.255 17.3034 1.31191
963.99 54.1609 3.85808
690.105 35.7447 2.75854
1259.58 50.3347 4.04652
516.921 49.0502 4.1632
861.651 76.6108 6.18392
1369.14 106.595 9.27913
1355.06 76.5299 6.41155
688.916 46.0411 3.80051
527.013 13.6805 0.894582
1063.51 51.3407 4.96468
642.389 73.5027 6.12442
551.807 63.8459 6.42488
1233.42 91.4873 8.03003
540.516 23.1109 1.86784
1214.26 54.0946 4.85849
724.429 36.402 3.33817
273.099 9.78071 0.708174
748.086 38.6022 3.71375
176.099 17.3041 2.07174
1022.37 50.6755 4.76098
753.162 42.9916 4.76918
615.795 36.1745 3.51123
385.06 21.739 2.60031
519.998 41.5142 5.0511
196.454 12.0072 0.85474
371.112 44.8957 4.1619
111.449 38.221 4.27786
504.597 48.9103 5.3238
412.508 37.2189 4.95403
183.819 45.2971 5.68283
697.509 73.5661 8.14111
850.393 83.2944 10.7758
788.148 64.155 7.39849
868.313 68.4261 6.90706
275.164 30.3028 4.33407
497.58 31.1154 4.28578
1303.14 95.2344 11.4276
327.547 40.2505 4.63633
464.349 14.8287 1.93759
1034.18 87.2202 11.0974
709.897 72.9404 8.57895
393.448 28.1601 3.83375
544.295 46.4449 5.56643
398.111 32.2625 4.28852
829.56 52.1311 6.43879
574.436 46.2912 6.54681
533.033 38.4037 6.38674
168.015 6.78702 1.34981
317.118 50.3093 6.91443
438.056 35.1875 5.70897
362.411 66.5045 8.34234
341.768 60.7052 9.98625
691.824 58.3802 8.07026
503.562 38.6112 6.23564
71.5412 27.8082 3.55439
176.35 13.4365 2.22208
522.152 57.0687 8.66346
480.98 31.5489 4.95338
274.584 39.8511 6.57486
561.653 63.6136 10.3596
118.362 15.058 1.89653
480.582 54.6134 9.27486
307.464 41.5253 8.0649
334.699 28.6895 4.01975
58.9786 10.9389 1.82263
538.861 93.7897 18.673
694.499 77.823 11.085
450.841 58.2619 12.434
435.868 57.9221 8.3963
442.384 64.295 10.7681
578.089 121.011 19.5026
302.229 49.1179 9.83936
427.727 34.0975 6.29649
204.907 48.5639 8.56065
519.261 56.3907 10.3649
212.256 48.3733 9.1579
122.661 16.7793 3.39815
378.296 44.8213 8.04179
615.33 93.2712 18.8511
84.8613 8.99194 2.21508
206.449 51.8262 10.0893
252.769 16.8735 3.60412
355.279 91.1338 19.2556
179.871 18.913 3.80413
214.132 34.7675 6.96544
251.909 56.782 10.3105
203.183 45.2215 9.41108
90.6664 20.4859 4.69111
491.284 66.4275 15.1816
204.247 19.1854 3.26422
141.215 11.4388 2.79931
85.914 14.7583 2.65109
72.1159 8.34037 1.2781
490.322 107.844 25.0198
134.006 19.7665 4.5853
493.463 64.802 16.4471
120.946 6.93366 1.12375
218.742 27.8462 6.15884
294.935 59.5242 12.664
291.823 44.8986 11.4077
308.63 45.9581 11.7777
131.592 54.3678 13.8374
150.327 23.303 5.40738
204.898 58.9899 16.9581
168.255 24.8214 3.55303
178.94 25.6328 5.86034
77.1782 20.8249 5.51244
228.479 29.2019 7.0777
141.506 12.7656 4.20637
218.502 86.5871 21.1702
286.737 44.2757 11.2233
123.054 32.0973 8.60951
535.676 113.664 29.028
177.341 36.282 9.46998
123.051 40.8606 11.5223
197.176 49.717 14.7096
266.673 41.8862 11.7174
168.679 74.3254 19.3365
165.629 50.1394 13.8744
169.94 29.1739 8.83094
133.312 19.7953 5.26459
338.323 86.9676 30.083
279.31 72.7488 20.071
107.105 41.9422 13.8282
258.238 64.1498 16.0373
159.49 40.6716 9.80588
73.8316 40.0859 12.0278
268.276 70.1191 25.1275
230.456 62.3838 17.071
115.819 16.111 4.37123
320.794 70.7056 20.6541
152.883 27.0261 7.66192
111.723 22.4569 8.59501
468.472 72.7912 17.3879
434.712 127.98 42.5094
214.685 75.5546 24.8404
243.216 60.6762 17.3352
78.2009 21.5371 8.2034
161.015 28.9651 8.41889
103.944 31.5448 9.35948
55.0658 16.0888 5.84269
9.10478 23.9909 7.72744
175.297 61.5645 19.0002
48.892 39.0981 15.4798
79.203 16.7097 6.23009
199.68 54.8901 19.5133
267.523 62.5148 21.6458
125.52 22.6992 8.87197
238.485 80.8261 26.703
284.166 33.8713 9.72788
91.4108 20.7819 7.05382
178.378 34.5624 12.3928
86.007 22.7191 9.91279
196.511 29.5159 8.64886
215.44 43.3734 16.9754
46.7686 18.4326 5.80462
106.77 41.0405 17.9841
506.327 115.019 43.4467
194.519 70.048 23.9857
128.574 78.0805 31.2258
243.374 46.0285 14.1895
96.4243 41.0852 18.2653
127.993 11.3557 2.55812
109.42 23.7324 8.94851
129.79 35.9901 13.2331
192.461 50.7533 21.8419
39.4819 13.7021 8.30004
118.356 55.4596 25.3254
223.223 38.7181 15.4024
166.322 50.3675 17.6853
137.04 37.1548 13.8785
85.8836 20.7757 8.7653
127.317 20.845 6.0537
60.3716 28.007 11.026
126.92 34.3472 13.5039
201.849 75.7017 35.5759
215.069 61.1891 20.8073
217.233 48.5593 14.6766
251.219 65.5926 28.9128
121.401 45.5118 21.4008
33.1896 30.8775 12.9818
90.1818 10.8167 6.79352
72.3114 52.3666 19.2712
93.1147 55.0756 27.3858
240.34 51.3026 22.0381
124.054 23.2247 8.59309
163.374 94.7308 40.1949
97.334 56.5584 24.1081
35.0502 19.8086 12.2309
126 22.5021 10.8991
93.4212 41.6539 18.1921
52.3286 4.21731 1.93767
124.04 38.3353 20.1422
177.932 59.4758 25.5554
34.7949 19.1872 9.76192
63.332 33.2706 14.1597
19.7507 3.29046 2.99227
20.6593 17.6608 13.0307
137.957 22.4699 8.7078
105.808 13.9164 7.41388
215.603 57.3875 24.3621
103.974 25.7419 14.0535
119.381 23.5197 13.8815
117.44 37.5232 12.0814
153.927 80.9351 40.5255
124.624 74.6343 40.15
108.703 40.0569 22.9193
165.627 31.853 12.1792
64.656 14.8133 6.53178
237.732 64.6541 32.0237
158.732 76.2141 47.2819
191.625 82.2955 36.5411
139.78 62.1418 29.5123
17.6268 15.5763 6.00079
23.5315 39.9261 25.0831
59.8358 9.68053 7.19974
154.81 44.9608 20.8918
193.519 64.5936 33.8307
166.888 43.4977 25.8593
72.1184 38.5496 23.0232
125.138 45.5514 16.818
207.305 100.169 62.9776
46.2632 23.2362 22.1183
64.9377 33.0937 13.8632
91.843 38.537 12.644
95.4622 27.6526 12.8512
101.41 46.0117 21.7832
161.209 91.6116 47.6195
76.9801 21.0796 11.7671
42.6721 27.9416 18.1477
61.0102 19.0077 9.91868
147.654 43.4835 20.2428
110.515 46.8617 30.7227
113.77 35.6768 27.8958
44.948 45.4175 27.121
103.405 41.2597 28.2888
27.9047 13.3155 9.20566
64.3644 16.0849 12.6456
75.0266 26.7764 13.9119
42.0413 12.7394 9.35456
70.4293 27.3732 17.9567
78.1921 22.4933 9.10586
68.4986 24.2693 14.3616
35.5578 11.2255 10.2377
59.3355 26.0359 13.282
44.1737 8.0723 5.42513
150.353 69.9941 42.6069
134.175 67.7039 57.3833
92.0372 32.7976 11.9277
68.3459 21.4729 18.2657
32.0918 13.5125 14.6134
63.2398 35.0636 15.6347
31.0327 23.0743 20.0592
66.4763 21.2272 17.6364
143.059 43.8226 16.6087
124.77 46.8882 31.1519
41.6172 49.9319 30.888
215.133 122.354 76.6822
68.5625 35.7708 27.5965
123.81 33.2971 19.2813
12.9306 13.8386 12.0039
75.4364 11.5102 6.30492
110.119 33.4128 23.7253
38.3837 21.8009 12.899
50.4633 25.8935 20.0012
65.7051 24.964 17.1571
95.0042 34.7994 20.9516
60.3741 37.7384 30.0024
102.872 62.4121 35.0235
82.0119 42.0475 27.6312
47.2467 20.6833 15.1245
64.418 28.915 22.312
50.9473 17.2279 7.95716
102.122 49.1456 34.1391
27.9647 46.4209 44.3946
135.873 53.714 38.5958
73.3393 36.2882 23.7823
74.6377 22.7958 15.5424
73.4427 26.8491 17.0418
80.5875 39.884 36.7123
42.1418 9.23953 7.82362
67.2809 22.7386 16.6117
92.919 48.1895 27.4177
39.6492 16.3181 11.8616
87.6835 35.0466 26.4222
67.7454 29.2854 26.0768
55.5065 23.5473 28.803
20.6464 14.4297 14.9416
69.2805 46.4287 32.5224
36.0123 19.5473 10.5529
48.3143 43.6835 32.1004
47.6966 34.5659 24.8673
38.1912 24.8585 23.7347
32.4459 15.0744 5.67425
52.0962 72.9741 57.8686
59.6294 22.1443 20.4625
86.1845 55.2764 46.1895
100.606 39.3646 23.9287
10.0476 18.627 14.9165
55.8523 30.6542 23.1235
24.9681 14.8819 13.4262
102.006 61.9605 47.0591
31.4946 33.1509 24.0182
39.8974 12.5113 10.6086
65.0143 37.4053 32.3204
21.3933 9.83065 13.7011
47.993 45.3698 39.2591
21.8587 33.3084 23.4365
25.3826 24.7605 29.226
93.5823 82.56 64.0891
64.4493 11.9765 10.3338
57.7562 25.6814 14.2296
24.1145 15.0665 13.5073
25.0976 55.7776 45.6212
51.1028 25.0128 15.7253
29.8893 68.5502 59.2623
50.2317 21.0164 20.3172
33.9081 45.1514 45.9515
58.9185 24.3323 20.8883
63.0732 31.0777 28.4856
90.6118 69.4564 60.9519
109.389 83.6952 78.7894
106.159 28.709 20.9794
19.14 9.06233 13.6285
60.4312 24.3488 25.6758
103.989 71.4219 50.5552
53.116 23.1271 19.8258
28.8145 22.3588 27.5239
44.621 36.7 19.5976
11.147 48.9068 65.7586
130.612 41.2379 23.4332
84.3663 33.6845 26.7199
25.859 22.4692 23.5202
92.4079 49.0258 40.7372
27.3493 21.4785 32.1231
47.0158 12.1908 6.0931
48.4854 28.706 36.3622
79.5203 34.5497 19.7033
31.7283 28.5583 27.468
23.033 24.0203 26.1083
67.6607 29.4973 23.1774
11.2767 8.39749 9.46373
63.9172 27.0314 25.9868
24.9192 21.8231 27.3655
71.0816 44.4056 37.4228
13.6568 3.37836 2.94917
27.8162 11.4672 13.886
54.2281 39.6102 38.0428
50.6563 14.6037 6.80152
58.8872 23.3538 14.2016
52.5028 24.3811 20.5124
10.7997 8.72301 7.34707
42.8277 24.8642 31.3783
62.6073 38.6967 30.3103
31.65 24.8097 23.2099
25.3772 36.033 34.1815
49.9748 28.2701 42.2088
44.3329 41.1014 32.0321
34.097 25.6825 20.5671
22.2819 6.94221 5.2242
36.6674 53.1797 61.3959
34.8781 25.3454 45.333
91.5941 51.2375 34.8943
29.78 28.847 26.931
46.1336 28.0044 34.1127
43.5356 37.4106 38.3578
26.0128 25.4727 35.1735
59.8833 26.9228 31.1955
39.4216 31.9703 25.4047
17.4759 31.5837 33.509
39.4769 20.0004 24.389
68.73 55.4044 45.4806
11.1376 10.5535 17.3508
71.6566 45.8997 64.4394
49.8081 35.2274 26.4147
5.72438 13.0494 17.3561
38.8732 23.3849 29.3099
29.87 15.1421 11.1491
30.7462 8.96515 7.15209
47.446 28.3408 30.6386
22.3621 15.9131 21.2715
27.5043 39.0505 43.2057
49.5059 14.8152 11.2255
47.071 30.679 31.7871
23.5164 10.1666 17.06
31.9691 35.534 31.5521
16.0795 10.5032 7.83811
5.2316 23.4495 32.811
39.4948 30.4429 39.049
33.7861 22.9555 22.3546
33.8523 8.98668 10.5009
20.3538 16.1709 19.4159
36.6721 15.689 19.0173
18.2665 14.2602 24.5048
37.9176 12.8091 19.4904
49.1103 14.1496 14.4344
38.2834 27.103 29.6196
85.8165 53.0968 43.9433
41.7772 25.1841 35.5904
6.98451 3.61955 8.44823
45.5119 19.3471 16.5034
19.8959 14.4025 19.2492
41.4175 22.8718 28.7274
21.8176 16.3015 15.8477
49.5873 23.5694 31.3748
85.3536 48.8965 49.438
24.2607 18.7423 24.7473
14.6947 6.36346 15.4948
10.7022 5.55419 17.48
18.2909 26.3251 16.5224
13.5864 54.7092 67.4777
27.3606 11.7772 24.1848
48.8413 15.7032 17.3495
28.6017 22.3769 39.7196
57.1932 28.3651 22.5132
25.3831 17.6838 15.5203
54.3797 29.247 36.188
34.8462 31.9678 26.0756
45.1155 65.4555 100.243
32.8665 18.7284 24.7229
18.4895 33.0633 38.5347
47.9619 24.9984 31.7253
25.9076 23.6495 34.0911
28.3812 17.7981 19.2142
28.5075 16.956 28.5414
29.7958 7.67038 15.8501
51.4017 24.4169 25.7183
19.6228 24.585 28.5313
19.9278 15.9269 18.2893
30.3902 19.1488 21.1974
15.9466 10.3114 29.997
65.5564 25.0302 18.8822
45.5956 49.8755 59.2188
44.1564 22.4717 19.3857
29.7068 15.2306 21.1124
43.0897 14.4121 15.8794
33.9191 18.426 25.849
18.2972 3.566 11.4344
31.8828 24.7815 37.0892
48.0604 25.905 25.2077
22.4887 12.2457 7.63429
55.8079 63.4396 81.107
60.7733 34.8435 43.5024
28.4356 31.0104 37.9928
54.4765 38.3717 48.0159
42.1168 40.8693 91.4553
25.3255 36.8911 35.265
31.372 13.6266 16.5774
35.3905 25.9745 39.8787
31.4975 47.1213 90.6345
23.0234 34.9427 49.9617
58.8892 28.2429 25.9558
46.9629 61.405 85.9135
3.44495 12.129 19.1176
23.8338 15.1592 15.6949
9.60526 2.21826 8.11635
26.9599 44.3239 53.6082
55.1893 30.7679 32.7206
35.6254 33.485 53.0247
18.2309 27.1558 43.373
25.7455 15.1435 35.3304
29.2576 22.8889 33.0987
28.9894 47.7305 86.6067
23.2173 44.8701 36.9072
6.63747 16.7273 30.3598
34.5482 13.6931 21.5709
24.5959 19.2434 30.8305
11.462 23.9601 22.898
12.3629 14.2426 22.6993
23.1189 3.26416 4.19211
28.0345 19.7803 35.2977
18.8811 34.1832 61.2289
28.087 35.7743 48.3056
31.3054 21.2083 41.5991
38.4997 40.4774 34.888
10.9439 36.7859 58.7697
12.2434 6.16383 9.38226
20.2328 8.40581 7.39928
12.2938 8.41624 7.28768
12.9871 12.4475 24.666
11.7177 6.44125 27.2999
62.0161 44.8507 39.6035
42.7863 41.3479 81.0498
41.7866 41.5895 65.4865
12.3034 8.3791 9.73016
25.8225 25.629 29.1059
20.9724 11.1326 13.7453
28.7394 22.5119 32.5686
7.63356 7.10785 29.9001
33.7373 24.1451 40.8045
7.3099 35.6891 49.0178
48.7856 46.0352 79.3339
26.3135 16.8968 16.7206
22.7475 28.114 36.2008
11.1686 7.31118 24.3206
36.7177 30.3289 44.1869
22.3634 21.887 46.7387
13.0175 18.6389 29.4062
37.2734 36.4882 60.5266
6.93886 10.6748 13.8525
5.82867 19.4661 38.2791
8.08258 17.6048 21.1022
25.9521 17.1671 12.8962
8.15064 3.77823 3.58027
30.1778 41.0299 61.9283
6.77341 7.79089 28.38
7.39496 21.2622 33.3962
18.8921 8.51958 15.834
11.8554 15.2293 29.1671
16.0107 21.3207 13.7857
10.8847 42.1805 65.9658
23.7879 35.0915 64.1921
30.5473 15.4955 18.4471
13.0172 24.1252 48.1093
15.3949 13.3198 23.0229
16.7998 7.96018 9.54442
16.6678 10.3535 9.42362
8.85787 15.3191 27.1357
17.4133 9.27547 14.9427
27.7126 40.6035 73.2373
11.7756 16.6234 25.6532
34.3093 41.1242 66.9154
6.2172 8.74336 26.305
27.9966 24.251 45.8141
22.0779 39.7786 60.1993
16.6826 15.1644 30.821
31.909 17.9078 25.4242
14.6697 16.9266 24.1621
26.4195 32.7029 60.4411
16.0491 14.3676 32.9979
59.8286 70.0614 109.939
9.3189 9.88978 10.8564
8.69553 6.0084 22.4371
23.3187 14.5607 21.8426
11.5435 17.5513 31.7379
10.037 11.9371 20.9968
33.6396 17.7809 27.818
10.1123 8.19077 16.4625
6.59166 14.5692 23.7786
24.4846 20.9975 26.545
5.98711 21.8792 42.9628
16.1982 9.36574 13.9426
22.4049 15.4289 31.2158
17.0037 19.6528 33.5645
14.243 25.2887 32.8137
27.6726 26.4044 49.1126
17.7477 21.2515 65.2193
5.1266 3.00094 27.2489
15.9822 24.6392 19.8675
3.94112 31.7281 81.4944
35.6909 40.904 60.6409
17.457 8.0474 37.8351
60.0759 44.2732 33.4966
21.3492 30.6726 59.041
6.93765 17.019 35.9066
18.4605 11.4742 22.7423
8.24417 10.5918 15.9982
8.17771 6.35889 15.3354
26.0394 20.0537 35.3121
6.54694 6.72666 8.34197
4.85925 20.4341 41.7662
17.5153 19.9885 30.6915
22.2724 13.078 21.6906
8.30598 9.77599 37.8806
17.1627 27.0692 37.7899
16.7171 4.04954 8.00899
28.6832 24.9164 48.0142
10.1999 3.36096 5.94382
16.3186 7.57805 19.1209
3.83454 2.48509 3.1211
3.70796 8.84239 15.4239
11.4546 4.76329 8.98493
19.4386 11.4464 20.1168
7.408 9.13292 21.2212
14.4131 23.214 51.6568
30.4535 29.3534 54.1371
26.618 10.4596 8.29289
19.8007 18.3757 37.7693
26.7235 27.0537 40.0879
10.937 3.66514 7.46714
9.88328 17.1019 62.4976
27.1911 18.2389 23.6115
25.1375 28.5901 43.3686
27.928 26.8021 40.916
20.339 20.8851 40.7645
10.9415 4.86818 20.3466
12.8736 17.2823 32.8149
7.55719 3.69974 19.8055
6.10949 33.3042 61.6966
5.88944 6.27592 29.0077
26.1912 9.1302 18.3849
19.5698 20.7653 31.1864
3.26803 15.6188 39.33
31.4404 28.7745 47.2395
10.8117 11.6197 26.2033
11.1321 4.55902 10.839
11.8199 5.70711 14.6265
8.60757 12.3411 14.2352
23.2818 40.0938 108.604
9.25986 3.4076 9.98127
8.93391 26.5 38.1378
9.98635 9.91084 10.2737
9.49311 10.6144 38.6225
6.89691 20.4703 22.2525
6.91211 10.4979 28.7976
14.7663 5.07839 16.5195
15.3832 11.855 14.6816
24.8951 24.4883 52.4479
13.6706 10.8184 8.93532
12.2986 12.9409 31.5093
5.9467 5.29385 16.8028
12.1733 12.2935 18.0307
12.2667 7.48066 25.6363
14.9705 18.49 33.0924
10.672 19.6173 29.4497
12.6671 20.7661 76.7986
14.2015 19.5759 17.5491
9.69342 7.68311 12.183
3.63011 17.6791 35.1932
10.0908 5.26555 7.763
5.42943 4.68895 14.5067
12.2097 9.27215 30.7284
11.7549 17.649 22.64
5.39044 10.4025 55.2663
36.2906 19.52 17.9646
12.4938 6.05711 18.0972
6.55815 7.61355 13.5033
14.0661 12.5061 29.1263
13.5599 7.07709 17.6948
19.5359 18.6028 35.2455
15.5395 18.8092 50.2214
18.9751 11.1132 12.0208
6.38579 10.8086 39.7306
26.0485 9.27472 6.4583
13.4591 9.76732 14.4109
12.5702 5.89038 18.3873
18.6644 30.7555 59.56
4.23504 6.9737 14.8938
11.3481 7.15725 13.3318
4.97153 13.2372 38.4791
12.7963 4.84054 7.10219
4.22284 6.32946 31.4357
23.5759 26.2661 43.6886
14.5269 18.4502 35.4949
10.0022 13.7462 22.9561
15.5548 16.3969 54.2852
18.4767 26.3384 34.9724
13.5459 13.595 31.8656
14.1902 8.22704 21.1254
7.68409 8.16521 42.356
8.37032 10.7149 12.7533
6.07129 28.8674 96.0489
35.3006 38.5882 57.169
7.62569 12.1907 26.2849
12.2036 1.68922 9.08383
9.41732 7.41701 5.67548
8.34571 12.5727 29.9565
11.3423 9.35956 18.1117
9.28079 11.2195 38.2298
6.3861 29.1093 58.9541
10.1372 5.5335 23.5603
17.456 11.0877 36.6799
9.48868 6.93104 18.615
18.484 10.7126 10.1155
8.31925 4.89778 8.275
7.96559 14.8375 52.6358
8.66251 14.3873 21.1757
4.53943 18.3148 64.1461
11.2595 10.2846 16.8228
12.0081 13.4186 20.3941
21.7056 21.5107 27.4931
13.828 26.3118 66.7363
16.9274 18.7978 24.264
8.1431 7.11875 11.2103
10.73 19.457 70.3509
15.3824 6.52084 11.9023
14.6508 7.3733 15.5366
10.6289 20.4815 31.2509
13.6298 25.168 67.5596
14.6537 7.73262 27.6248
22.3383 24.3416 44.0986
9.55107 9.84387 28.3642
1.85442 4.71715 22.8581
12.1286 7.03574 11.4985
7.91369 7.1138 11.5356
5.57433 8.84498 38.2321
26.2757 23.0976 27.9827
6.67585 9.7072 24.4944
12.2783 11.6529 41.1114
5.82574 7.65334 15.6382
8.99871 4.25279 12.4785
6.7742 13.2357 44.7372
6.26959 8.02609 11.677
8.5287 9.60707 29.3493
15.7303 9.80637 20.3875
4.8152 3.00841 9.71366
5.03023 13.2534 35.977
10.1722 28.9381 79.1118
9.87777 5.15231 9.83782
6.94136 6.21577 28.4435
10.9461 20.9057 38.9084
10.8052 10.0019 22.7281
7.28181 3.36823 16.4995
2.53798 7.63173 45.253
20.0057 16.809 8.33933
5.93002 17.0262 37.7822
20.1043 17.7666 36.9863
7.09194 21.6863 75.6185
13.9772 21.3009 45.8183
7.12204 11.7386 30.6739
5.4358 20.3595 33.6188
6.57889 10.3049 45.5848
20.9077 24.6089 63.2708
14.4706 16.2718 25.6201
8.76558 2.22615 17.9458
16.3346 9.5362 13.3447
8.29396 8.38864 19.7854
10.9027 5.08294 13.0445
4.37151 4.24982 10.9468
11.5684 6.70973 8.08714
10.8304 7.74378 25.6584
4.31228 3.0937 10.554
0.808437 23.2815 70.2157
25.5854 13.2338 14.0973
6.31704 4.71202 9.72004
8.53545 6.6393 30.049
10.845 7.06496 14.5628
8.5789 1.48297 7.65208
6.78122 1.81083 9.23668
14.8154 14.2471 32.1406
1.58094 8.62017 26.068
5.91642 2.43238 20.6987
6.87747 23.999 40.3438
8.84028 4.63507 13.2644
9.30798 8.91564 35.4761
17.7565 7.67693 8.25529
7.94063 13.5756 44.4096
10.0265 10.2684 20.3193
10.6942 14.0295 39.9848
5.64114 11.3259 44.7302
13.9708 13.7493 29.0918
3.55942 9.65971 11.2459
5.05125 2.36673 17.3859
4.06501 24.857 41.2394
7.0722 10.8121 38.2288
8.75383 11.7477 26.1685
5.41432 12.592 42.0528
13.4288 11.0643 30.0812
14.1937 10.3463 39.2009
5.70601 18.5618 51.9579
16.6522 7.94852 23.4534
16.9682 8.76272 15.0641
12.5308 11.4241 26.6832
7.92569 5.85803 20.052
5.23736 6.98764 20.9819
7.25399 14.5619 40.6679
13.0626 7.80594 18.121
3.86038 8.4168 22.8576
8.20534 5.39316 24.116
19.4814 23.9866 45.2878
5.77376 7.59717 11.7825
6.73905 4.23089 23.3716
7.4639 14.3657 47.8138
14.5476 10.3284 44.7393
15.9218 13.6101 21.2474
11.6873 17.2989 37.465
9.88935 6.15993 12.6613
9.26425 7.59878 20.9691
8.16992 4.29587 5.94344
6.38684 7.2822 23.7306
9.23219 3.54534 15.0141
11.5983 17.5022 32.3502
6.54278 14.8602 53.2933
7.97996 19.8203 65.5829
12.1138 6.24121 12.0052
5.29204 6.32803 31.7798
11.2241 9.57356 10.8642
10.2967 8.62996 22.1211
4.51214 4.51221 10.0068
7.94392 6.28054 38.365
2.76491 11.5862 12.6949
5.33503 5.96147 37.3109
7.07061 15.2072 29.0284
10.735 4.27025 13.9514
9.46412 10.8351 31.1665
3.88713 3.67642 12.6198
10.2255 7.615 17.7758
8.53582 16.9324 49.1689
5.08682 12.3919 28.9333
11.1815 8.92781 24.8519
4.74292 2.02428 7.33595
7.41987 7.60841 27.5308
4.86517 3.13137 4.90946
4.05098 13.0228 24.7791
7.13271 3.02358 8.72828
7.35731 12.1488 26.1017
3.34003 6.84704 21.9685
7.9356 6.55404 26.7975
6.21282 28.413 98.4417
19.8534 6.38023 14.1285
13.7577 13.0111 57.0249
18.9705 9.00902 3.86556
14.6835 24.8381 68.9435
2.36576 6.17247 19.453
5.19398 3.71134 15.7659
5.59303 8.40527 12.1507
2.29237 4.35486 10.7527
4.00557 8.67168 36.3242
16.6696 7.74596 15.9438
3.47761 8.79102 33.3097
11.1044 9.96667 35.7584
5.38437 9.57577 19.3244
11.3171 11.5254 21.7529
6.17233 3.6893 21.593
9.68933 18.6262 46.327
5.53986 8.56486 27.3078
3.8435 7.78499 23.1153
9.66863 8.62906 33.4955
5.22844 7.36384 34.7094
8.25307 12.0225 28.1584
11.139 6.90285 15.1449
8.22502 7.18746 22.163
13.6017 20.9187 43.9348
8.75058 2.94013 16.0263
11.9232 10.125 47.1893
8.06272 8.11485 14.8416
7.08621 13.0765 51.0453
9.30284 3.63696 12.1842
9.31116 10.3085 14.1741
6.92362 4.9173 21.6639
5.45931 7.77668 15.334
8.38862 6.33664 21.9652
0.657091 10.7867 28.2377
11.4185 6.54058 12.992
8.05249 5.4899 14.1522
8.87082 6.42592 20.9144
6.31268 1.85295 7.14325
9.36704 3.62418 7.73591
7.8513 7.4742 19.6963
7.25652 11.002 36.8602
4.25107 10.0159 34.53
5.99688 8.18176 18.5985
10.1782 11.004 43.9132
2.57792 4.49931 24.1796
7.36706 6.09257 6.22753
5.66651 2.01047 11.4375
6.2964 5.95913 20.9721
6.62777 11.5925 44.6454
12.9686 9.2487 17.7456
11.7863 13.5693 35.9817
4.83791 4.78394 6.3683
5.54663 5.1584 26.7891
10.0827 7.09418 6.82573
6.07787 5.88066 15.3221
8.52452 20.3591 58.0188
9.33279 5.63685 48.9973
9.65278 15.2307 42.8525
12.5909 12.6569 28.7127
5.20108 4.86106 42.6519
2.26267 6.17027 8.11793
4.44526 12.736 32.5298
9.97008 15.132 45.3663
9.46399 5.60999 9.65596
7.86804 17.8572 68.728
10.0034 16.8135 33.5546
2.69915 4.53118 19.63
6.19878 5.8662 43.5987
3.85358 15.4272 15.981
8.23105 9.84248 38.346
5.39109 9.43862 31.3104
5.27201 7.0755 27.475
7.30817 6.82856 18.2907
8.71822 7.13239 11.7899
4.92806 3.11594 11.3414
7.11606 6.39958 24.0473
4.34923 14.864 30.7146
6.38883 8.39639 30.9633
10.4705 8.89979 46.9307
10.2881 16.9575 41.3891
3.25305 9.72001 30.4488
5.51477 5.00817 30.9016
6.98561 3.20491 4.75942
3.20146 4.33431 20.7879
9.82237 8.12117 15.9049
7.72817 6.18206 33.7633
8.22078 15.3267 34.9603
2.60966 3.60504 8.27268
5.95671 11.7889 39.0433
9.80223 6.0127 20.0154
7.09709 5.23445 28.7592
4.09169 10.3958 36.9571
5.16755 14.7777 45.799
10.0749 6.11122 11.97
3.4778 4.71139 31.415
4.11683 9.50014 24.7626
4.35984 8.05652 20.0789
6.36504 2.57756 6.68463
4.52815 1.56843 15.5866
7.06862 12.6521 33.3559
5.49819 4.25951 25.8879
11.8428 5.76583 11.745
6.72839 4.74827 15.4375
3.09105 13.9813 52.8962
8.74705 6.60097 16.5272
6.99591 3.3394 11.3146
2.5096 2.49421 9.90789
5.9318 8.33786 25.0884
9.99616 10.0423 27.2328
5.71752 7.59258 27.4606
5.20672 17.4468 62.2826
10.8102 7.05522 11.579
4.56867 5.22971 27.5842
8.02891 5.81389 20.2952
3.3356 7.21775 19.2453
9.81631 9.9095 44.4076
7.28266 6.41516 56.2954
7.25885 15.3949 33.7306
5.78163 22.9081 52.8149
8.91135 9.01151 11.4689
2.75207 13.4067 52.9352
8.23432 7.16579 10.1029
5.55859 3.18671 23.8916
5.95866 11.5479 20.0124
6.37933 4.30042 22.694
7.47853 7.92548 40.9794
14.9261 9.07828 22.7132
3.58487 13.2037 25.3587
6.07441 3.26222 26.4758
12.3911 3.42374 15.4045
12.5562 11.6492 28.3324
9.56381 10.9763 47.2467
3.16129 8.54667 10.2565
4.42672 3.64235 10.3531
4.92602 4.68801 15.9065
5.811 16.0064 38.0067
3.91913 4.40446 15.261
7.43666 7.46767 42.9007
10.5104 7.33747 20.7459
9.26543 6.54331 12.6369
4.84179 8.23908 26.5783
4.23855 7.58732 38.5752
9.52861 8.09085 17.7942
6.42169 2.78173 13.3537
3.89004 5.92831 57.4139
16.5101 18.2148 38.3102
5.74787 8.32012 48.3488
4.15643 5.7315 29.7512
7.58794 1.76345 9.29728
9.67348 5.99975 14.011
4.42554 3.15054 26.3561
6.55046 6.94048 43.4393
5.68958 9.5369 26.3595
9.76973 12.9726 24.5594
2.97066 5.22933 6.92627
2.09751 8.97403 21.6672
7.82818 3.55748 26.7215
8.77859 5.22316 26.4569
12.1596 6.77123 10.4524
3.77707 7.27801 22.5941
7.79492 1.30467 20.8575
11.0332 11.0567 24.4096
2.23229 3.30371 5.29263
6.5516 2.90327 14.3814
10.9974 5.72212 21.7302
10.1908 22.1031 53.9024
6.96121 8.82273 27.869
5.49719 11.295 32.8593
3.08043 2.9125 5.9468
2.73846 4.12976 22.1142
4.82828 11.1747 32.4199
7.00253 7.19962 45.5476
3.38414 9.96897 12.8451
2.06637 5.00703 17.3133
7.01502 7.85451 27.16
6.87068 4.43585 11.6428
7.67484 8.0213 34.0315
2.60779 8.16639 13.2823
4.9547 4.39598 19.1677
3.52198 7.52642 18.9607
2.55057 8.6549 43.3058
9.93148 7.16105 20.6133
2.69554 8.05862 22.2086
4.53688 6.41536 37.8679
10.5267 5.15544 8.22482
8.31069 9.66531 30.0492
6.00824 5.69634 9.26112
3.28195 11.4077 25.8002
4.21573 3.92977 18.3168
5.19007 0.538141 6.03679
2.83003 5.964 27.7197
7.10037 2.92168 30.728
2.1317 8.26851 15.7083
4.27335 10.6185 25.8762
5.38245 3.13695 9.55459
6.71144 13.5136 47.2223
8.18779 1.16409 34.5223
12.5002 15.7325 36.3054
5.7572 5.31467 24.3559
4.72373 2.49634 17.0862
5.76742 6.4287 11.3379
2.88313 3.34491 18.9721
4.67494 2.90657 20.0802
5.541 5.13205 6.78983
6.78158 12.2287 33.8183
5.90965 12.7822 29.9231
5.01297 7.6978 42.5202
5.69532 8.94758 35.0664
9.48141 11.7354 41.507
10.3071 7.36659 14.7973
7.11448 10.2318 30.1181
3.91932 7.30627 51.693
3.05037 9.32458 20.8019
4.13619 3.7878 19.436
2.3474 6.76795 14.2112
5.11307 2.03707 5.49122
4.31158 9.15837 46.2144
6.07003 7.43028 17.432
3.09255 2.56819 6.86966
5.56942 5.38285 18.1531
6.195 10.0359 21.5627
2.71615 11.7334 48.5173
10.4308 11.8742 67.4508
12.3671 12.5597 51.32
3.38626 6.59451 48.1916
2.09403 5.54209 19.7012
5.55436 5.67898 34.5588
5.19523 8.78611 18.3217
5.36583 12.3649 33.6732
5.70538 5.54923 23.2456
2.15759 11.5346 24.1703
5.17639 3.06343 19.9426
3.96148 19.7041 49.5827
5.49797 4.57792 22.0129
5.89744 9.5364 44.6956
5.58307 7.3688 18.2772
3.22136 1.92441 11.3594
3.13762 8.70874 35.3844
7.44714 4.96644 22.3114
8.14421 9.51904 13.267
4.09254 2.71347 16.9183
3.14266 5.56329 20.9764
6.17916 6.39838 15.8148
4.48976 5.71582 15.7287
4.41447 4.15743 22.4584
2.45684 9.20127 44.9343
10.0243 15.9806 34.2887
7.24281 10.1633 36.2013
7.07196 1.47816 5.53876
3.40363 5.35614 26.3221
8.02743 7.01312 31.6201
8.55092 10.0654 28.8529
3.62476 7.77609 18.7169
4.50441 7.58791 34.5242
5.64525 6.26766 40.1803
7.97981 7.21277 52.8729
9.65742 5.29018 30.4653
8.26285 7.45317 2.2612
6.1404 9.02441 25.1015
3.63376 3.59251 62.7437
9.20712 18.7029 19.221
5.37688 2.21891 17.6036
5.72403 9.29803 47.0062
12.8805 7.23505 26.2893
7.42516 1.96979 24.4185
6.26978 11.4137 14.9768
8.07689 8.48011 17.5873
6.40211 1.97896 8.39953
7.12066 6.973 42.6693
10.1217 5.31099 4.97879
6.72042 10.0356 34.7457
3.50657 5.97112 18.082
3.85789 0.407871 14.5913
7.42823 10.5674 21.1942
4.3842 6.16956 16.6796
2.62207 7.47091 35.9289
5.85833 4.13017 38.3759
7.92907 8.87207 31.5665
3.76312 7.06906 30.904
10.935 13.9885 57.1972
4.82341 14.5017 34.6354
9.51378 6.60321 17.7681
2.23734 3.97423 21.4387
7.72518 5.14493 17.4106
4.31229 5.63437 21.1176
2.65075 3.12238 17.0013
4.88858 2.8726 23.0762
6.76597 6.25868 10.2395
5.18308 3.98691 12.386
1.41024 2.52114 13.0271
3.57539 7.14361 35.0995
6.86026 0.874575 21.6284
4.88386 3.66421 9.58266
5.07847 3.812 13.0434
6.03688 9.83604 13.8608
3.51707 7.36221 26.7086
7.96192 6.42072 16.7441
2.07978 4.61989 20.573
5.04062 3.75078 12.9177
4.3813 8.28658 39.0277
8.91422 10.3081 19.6763
3.91078 2.16651 12.8156
4.51934 3.37069 14.5419
3.6448 6.19658 36.9128
3.46985 5.54698 8.25653
5.95954 4.14325 32.1833
4.83112 7.64928 15.1913
5.88867 4.00948 25.3927
4.13717 6.25263 32.3223
1.71989 4.5653 20.2069
2.59399 7.31555 15.9639
7.54693 6.62334 19.4788
5.8989 1.82711 10.3004
4.17901 6.82692 35.7453
1.69434 7.40739 28.3146
7.33986 3.8865 10.9145
4.17872 3.25512 11.8256
4.07795 2.51848 7.82562
3.93563 1.31446 10.8872
3.50287 3.29045 23.2353
3.34965 5.14684 3.47191
4.71582 6.32266 11.8069
2.95057 6.9821 29.4492
7.17912 1.88789 12.1517
4.3391 3.68184 6.97154
5.16114 7.21393 62.7442
11.2978 9.51362 32.2989
7.76668 12.6112 15.9262
2.76716 2.28728 22.1133
0.83149 4.12911 4.99691
3.68292 3.09703 27.4572
1.1876 8.03763 33.7282
9.06258 8.27592 24.6389
1.68918 6.95881 23.508
5.80246 12.734 50.2353
6.17206 6.18671 23.9765
4.08782 3.73809 22.8241
5.18362 10.2348 31.8821
3.91052 2.40459 21.8653
6.55819 9.36687 10.6363
2.82212 8.31518 24.722
4.58115 6.10583 31.2946
10.1402 2.49191 13.6571
6.30483 7.47747 26.6861
5.71813 4.34531 32.9452
5.45946 2.17607 32.1624
4.24209 7.66146 11.9392
3.77002 3.66608 8.96199
3.18034 6.20373 31.4721
6.79678 4.16148 5.84693
4.78216 3.13939 26.7344
5.5273 3.23777 9.1357
6.64774 6.45047 31.3302
7.01038 2.80629 19.0642
4.3309 7.17664 9.60549
4.84796 10.3401 61.3518
10.9339 6.34564 14.5534
7.83866 7.87095 10.5327
4.02184 5.45789 15.9889
2.78761 3.06696 31.7147
3.53536 9.78102 40.1779
5.8751 7.23238 10.084
2.72503 1.31265 8.57669
2.21087 3.36138 25.1187
6.66776 7.44549 9.78318
5.53076 4.09163 17.8803
4.82536 3.86752 22.8183
5.23466 3.26998 15.6976
3.8022 4.21214 20.8801
3.64765 8.02883 22.1691
4.72776 3.97423 35.4216
9.31678 3.20233 25.8222
8.90645 13.3102 22.8761
4.99672 3.26051 13.5441
4.63066 10.434 74.7809
9.87352 6.79191 19.5694
7.69239 4.69092 30.788
6.47262 7.26465 13.7839
2.35205 4.77252 11.7055
5.91715 2.06199 28.2833
6.89683 16.5549 29.2882
2.68097 1.68094 10.6806
6.48605 9.11234 57.9648
7.07568 6.99894 35.8251
1.17054 7.45731 33.1803
5.23023 6.2442 16.7399
5.81702 11.3543 32.0911
5.72822 1.24729 21.9955
6.68925 4.62673 14.5049
6.92349 10.6885 11.2495
5.57456 4.58065 16.6627
6.83084 9.03081 30.7231
3.54137 7.5838 29.6678
5.95463 4.94246 14.062
2.45242 1.97082 13.5247
1.37854 1.28995 12.0388
2.41229 1.67328 33.4474
2.05271 9.35429 17.2535
3.1881 2.34659 14.5161
2.69847 9.88084 41.8819
9.02097 6.5463 8.53818
3.44503 4.79464 7.09547
3.1701 4.61771 30.8156
7.37071 3.01274 10.549
3.29467 12.4365 33.0262
7.1665 1.13278 3.46204
4.18536 2.48722 13.4824
6.86634 4.19091 16.3773
4.79957 4.35218 41.7263
10.0302 8.31583 22.7695
6.49922 1.97411 6.76029
6.18996 7.0186 22.5484
3.88981 3.8891 13.5115
2.32457 1.92637 7.91644
5.27423 1.7187 5.93609
4.94549 1.73981 20.4207
3.72379 4.14738 9.45812
6.65056 4.2408 7.63606
2.31012 3.4723 16.6172
3.15812 1.73682 32.2356
4.61934 8.20147 8.33155
3.69664 8.51613 34.293
5.4999 4.22628 22.3691
4.06813 5.69865 9.7787
5.2465 2.07923 15.3649
2.1573 4.10889 5.24497
2.87959 4.22358 32.4789
6.92726 7.07742 36.4076
4.6802 7.79715 25.0077
6.35521 4.02924 7.84256
5.1436 3.89373 17.5182
2.24906 3.76274 21.3654
4.3934 2.83341 12.236
2.46637 1.57987 5.58798
2.62433 3.84342 19.29
7.21644 2.51046 19.1846
2.90979 5.94473 29.1751
6.07964 8.30773 26.9713
3.42411 3.28605 11.6339
2.1788 6.16295 8.44214
4.6015 7.92379 27.2327
7.61151 7.2626 55.4013
10.6049 7.43602 14.6547
7.45059 5.58405 20.0862
1.70569 6.5307 21.4784
8.84876 4.91379 10.559
4.29925 2.63734 21.4196
5.257 6.05011 12.4766
2.25185 9.32245 28.0083
7.6969 6.7343 37.289
3.94076 1.51522 10.0803
3.28667 2.03557 6.85411
4.56594 7.16516 33.3675
7.77652 6.28123 9.98639
2.53235 3.44745 11.7537
3.40322 7.96547 42.6767
6.96611 1.28788 11.7754
4.8296 1.66358 15.7769
6.7762 9.50275 14.3458
3.40746 1.35177 14.3522
4.27225 1.32456 7.3699
4.38934 7.60167 48.9563
2.99996 7.528 16.6909
4.04962 2.44437 16.2936
3.53764 5.80561 12.1439
5.07909 3.17759 4.51132
3.10586 2.95077 17.887
2.3298 3.65231 11.1767
1.78074 4.54719 16.3168
4.27761 1.54303 11.7388
2.55308 3.07003 40.5389
6.81952 6.91689 15.879
2.03499 2.67312 13.9911
4.02028 7.37112 33.2161
9.18898 10.198 22.1561
3.98662 6.43962 38.4987
3.3977 7.20151 23.4916
4.89655 8.46017 49.0342
1.98708 9.88777 42.3291
5.82345 11.5726 33.0714
6.38136 8.33477 25.1288
6.16611 5.81691 14.2532
3.53831 7.71057 33.1665
6.32768 2.00002 22.617
6.70699 6.43448 9.92441
2.89093 1.991 14.5401
2.63878 4.08862 14.3691
6.78655 3.55866 29.1271
3.84089 8.53738 14.0465
6.08257 2.40837 3.8467
3.3883 5.50655 26.6093
7.2804 2.36657 13.4223
5.49545 4.20521 40.1287
3.5972 12.3687 20.1163
6.69098 0.623923 12.9154
4.56976 1.55008 20.3973
4.04699 8.77019 22.864
6.44711 2.99752 8.37716
5.88599 5.53765 7.43982
4.77829 4.37389 38.0086
4.98805 3.45658 7.11587
5.28771 3.11096 12.4475
4.39291 6.09542 30.7111
8.96494 13.4379 28.2598
1.91314 5.57394 38.5607
4.10448 4.90232 14.697
1.6196 1.88252 30.188
5.00715 4.44179 14.3522
2.044 4.17105 7.10669
5.11002 1.50194 12.4737
5.38055 4.47374 8.14395
5.60201 8.27107 33.6246
1.47176 3.58679 10.8508
3.33317 3.77687 9.72185
5.62777 2.94234 9.60373
6.51752 0 0