# pn-170911/CsIIA-25-KOKB-1280-1959.psd
# Power spectrum* (dif=0,1,2) (really just |FT|^2)
# NOTE: only the first half! (symmetric)
# weeks: 1280-1959
# 3 clock-days, 0 excluded
# PSD: 1441
12838.7 0.337107 0.00985384
1.5771e+06 39.0948 0.0124735
4.87941e+06 83.9038 0.0121946
1.22609e+06 69.4208 0.0106157
1.11321e+06 53.5726 0.0225493
498277 28.6333 0.0165389
773998 71.6851 0.0174563
270765 20.3284 0.0216531
160463 34.6072 0.0310189
173967 38.162 0.0431931
95216.5 32.9407 0.0278108
102859 44.3237 0.024388
107862 36.2555 0.0411639
61043.2 42.4945 0.0464282
140501 99.0177 0.0743311
89993.4 55.0626 0.0612419
57475.6 42.8416 0.0537789
95666.6 109.241 0.125905
13997.7 33.8331 0.0606154
74136.4 80.0634 0.121243
55949.5 84.7905 0.207316
26192.4 44.6853 0.128233
30008.1 54.594 0.169308
16296 16.349 0.0763168
27613.5 37.9219 0.106818
17809.9 60.3633 0.23257
24807.6 53.5255 0.207111
15353.6 67.2825 0.279064
5992.73 6.67581 0.0401087
20474.1 51.0921 0.257583
6099.02 38.4188 0.22829
18867.9 55.9395 0.163532
8070.45 42.2181 0.139797
19147.1 68.1005 0.354627
14338.6 38.3402 0.225955
2256.87 36.1108 0.191485
23049.1 116.434 0.682896
11445.3 78.7764 0.517491
6608.3 17.7665 0.154282
7189.07 21.8842 0.129303
13543.5 56.6519 0.519552
6448.99 74.992 0.636485
13282.3 86.5113 0.686853
8708.46 52.3572 0.475357
4125.02 41.9075 0.414845
6722.88 24.3907 0.304713
3466.32 18.9142 0.242171
12078.4 94.474 1.09989
3495.08 26.5541 0.283366
6795.9 51.5044 0.536608
4997.18 104.458 1.2196
8922.88 58.1822 0.710298
4050.52 70.1299 1.06213
7018.72 103.095 1.54981
8842.64 95.6965 1.37314
5860.76 45.0294 0.789349
5451.61 75.2673 1.03715
13930.6 141.971 2.31803
3628.77 39.2359 0.48633
2094.96 14.0621 0.328699
5876.62 92.3089 1.44697
5485.63 63.6931 1.16312
10938.7 143.118 2.72046
7203.96 135.904 2.56747
9569.31 129.082 2.43333
3448.88 41.1663 0.968792
8697.84 99.8107 2.12038
3701.6 63.0484 1.27952
2559.85 29.6506 0.740389
1709.82 35.106 0.66276
2265.58 70.6258 1.54868
4645.12 49.8652 1.23701
2896.28 47.8868 1.21657
2324.6 48.8078 1.07583
2515.63 63.782 1.93419
1306.7 25.9062 0.754232
1770.54 47.8427 1.03476
3205.22 97.0927 2.94336
3783.44 102.991 2.78466
5098.8 74.492 2.15721
3391.44 89.5038 2.71991
2503.79 66.9598 1.86617
2407.12 100.857 2.95615
859.232 33.2776 1.07181
1658.62 51.1389 1.96807
2410.23 60.1348 1.90357
2896.2 75.2043 2.52465
1555.59 41.6291 1.63828
1533.13 32.9611 1.1678
1700.93 60.781 2.3535
1684.94 38.946 1.60042
1989.27 56.7911 2.07276
1132.33 48.1957 1.81635
1597.31 62.9187 2.57153
1510.99 55.3312 2.29259
931.528 34.8801 1.81625
2660.44 104.135 4.22227
855.947 13.2538 0.665837
1225.06 33.6192 1.34186
1275.85 31.5753 1.35542
1359.29 64.1484 3.04317
1716.6 29.1861 1.32366
239.438 12.2769 0.752712
1063.41 27.3631 1.72224
4876.64 184.004 8.37174
1503.14 60.4512 3.14569
2984.67 106.051 5.73597
1252.78 47.473 2.61089
1085.88 47.7026 2.67292
733.493 39.479 2.47107
1139.9 62.9399 4.12069
1693.81 52.9201 3.44676
701.603 26.5763 1.40578
1003.36 27.2586 1.37864
1343.4 66.2627 3.91169
3226.59 137.819 9.18353
635.218 64.3804 3.63063
641.743 48.8238 3.04507
1619.79 81.7336 5.88606
924.616 70.4067 4.80993
102.366 36.9771 2.58392
1135.12 84.4004 5.64618
892.486 48.2322 3.17492
1251.81 60.9931 4.51872
869.705 95.817 7.15172
935.883 61.5385 4.65279
642.552 20.606 1.95767
1531.68 84.147 6.27885
475.506 42.7379 3.01849
542.191 34.7684 3.12393
955.365 70.4946 6.31294
563.507 17.7486 1.87362
1199.91 88.9345 6.20116
1245.15 92.4905 7.20429
719.574 66.0275 5.71206
1269.77 62.0713 5.09411
1168.04 88.0562 8.23074
896.144 50.1669 4.084
865.573 83.1045 7.47705
266.348 26.4183 2.83817
1103.12 77.8453 6.29519
1496.68 136.893 13.5946
204.666 25.9289 2.81331
745.735 75.1309 7.16953
1654.65 76.3767 6.34113
1276.42 77.1698 7.59011
1475.71 125.322 12.8817
446.912 28.9226 3.0436
508.647 67.9947 6.5879
310.952 24.4013 2.19186
509.557 43.2787 4.7664
359.896 38.1166 3.7991
221.098 14.1881 1.52337
297.333 47.5641 5.95729
960.09 74.2282 7.50413
390.144 27.7403 3.31399
476.209 44.5443 4.88408
826.87 45.3876 4.73162
1433.72 149.83 17.4588
268.677 24.3655 3.1374
521.951 39.0265 5.88827
844.817 89.2912 10.2463
665.384 48.3205 6.73685
72.5265 19.1964 2.55428
312.759 62.3091 8.18099
760.158 54.3126 6.49534
436.822 78.1459 9.12063
737.432 72.5059 9.81438
728.568 110.761 13.7129
510.309 61.4135 8.97076
948.516 82.7919 9.35788
663.035 105.443 14.9699
447.511 37.6114 4.52445
685.603 60.1096 9.02211
307.85 20.5727 2.4842
314.658 39.7682 5.47983
540.149 94.7824 14.6392
561.551 74.926 10.3422
250.705 20.2225 2.86497
229.058 29.4933 3.6648
828.397 118.583 17.889
468.972 64.7699 12.2143
675.76 49.9688 6.26905
109.863 6.45241 0.9009
397.684 43.6757 7.38583
94.0668 11.6553 1.88394
526.331 43.3149 6.9824
505.551 48.9985 8.46858
89.9676 11.2767 1.72079
160.917 43.957 7.48792
217.823 18.9756 2.88729
468.151 83.4122 15.3983
262.15 18.6527 3.11732
526.599 58.2442 9.54368
79.7849 33.4164 5.61763
350.121 58.3507 9.71914
717.71 88.1933 17.6959
891.872 119.446 20.5056
95.5644 15.3316 2.64986
188.649 25.5158 4.41396
307.701 46.8138 9.00193
137.126 21.429 5.16358
357.395 65.9423 10.9884
326.305 40.229 9.13377
110.326 32.1157 5.0353
169.919 30.2483 5.84561
222.345 27.9783 5.6676
360.447 73.0492 13.7362
274.918 42.3608 8.00161
176.885 74.9323 15.8861
60.6607 18.6064 5.86398
215.129 23.2416 3.94373
337.318 60.7058 11.8677
133.525 50.419 11.0403
154.332 59.2668 14.2341
439.487 59.0758 14.1133
505.616 121.823 26.2886
190.441 33.4482 9.3342
529.625 44.2286 6.91861
715.544 112.87 22.3173
361.165 61.892 15.3593
447.236 48.576 10.4955
135.23 15.4808 4.71038
210.236 39.0206 8.35242
120.784 31.6402 8.30178
213.519 40.0819 10.4976
451.466 62.9173 13.1769
434.829 53.1854 12.7876
146.522 33.0956 8.07655
357.914 35.4246 7.40336
223.061 43.8654 11.7502
247.706 41.7635 9.85633
414.841 98.4584 28.0692
790.111 119.842 27.6187
195.724 24.3836 8.45376
56.4575 17.9565 3.67672
433.895 61.6666 14.7336
53.3387 1.0509 0.404292
241.082 44.5789 11.496
288.802 32.4792 8.89299
74.7773 5.49504 2.46859
48.8486 16.309 3.95091
87.586 21.2944 6.52235
346.548 86.6125 22.291
156.712 10.3376 2.6084
407.432 82.3535 24.9344
59.1934 16.857 4.40792
73.8772 9.71766 3.10691
83.8848 16.4796 5.4702
145.114 19.6485 7.74897
126.258 51.43 13.9232
243.047 49.6643 15.198
303.399 60.7841 17.0673
273.39 31.7695 9.80643
221.327 46.833 15.2442
89.0734 5.22508 2.23197
129.882 26.9532 8.03769
83.2408 66.525 19.4646
223.673 59.1066 18.7734
142.227 13.0809 3.61
376.649 72.3594 19.105
354.928 89.5559 27.7533
196.135 50.6253 20.8879
336.297 87.1252 29.7231
176.812 31.5647 7.06366
72.3454 23.2266 4.96503
165.016 47.1272 15.8987
160.546 30.5907 9.4136
232.537 52.8295 17.5205
200.4 62.3877 23.5975
113.692 16.8755 3.95665
161.298 72.8148 30.2638
262.761 38.2196 10.4168
74.5441 8.98752 4.92813
198.961 107.171 36.2473
222.052 52.7957 17.413
165.309 32.2816 10.2027
316.077 89.459 33.4134
268.827 77.368 26.8516
114.859 13.8442 4.7072
141.533 25.3484 9.01552
184.425 63.7911 21.3811
149.846 36.3529 16.0635
168.617 51.2856 17.7591
154 25.4797 8.59408
200.212 28.6778 11.4431
103.087 24.2518 9.72023
62.938 14.4228 5.90388
30.2549 19.0514 5.65346
129.971 32.1111 14.508
121.047 64.8737 24.6909
158.47 30.1347 9.65833
227.257 54.0281 19.1408
283.39 78.8303 29.1942
56.1977 19.7599 8.69029
53.2449 28.5891 12.1356
109.787 69.0393 29.5045
160.408 27.4939 10.7494
65.9144 22.9844 10.5526
38.0055 14.8655 10.277
159.67 39.2019 11.1443
119.501 32.0784 12.7913
99.4833 24.0524 8.90838
207.357 50.8395 22.7238
82.0964 29.3427 10.6082
149.506 60.5957 24.0987
52.1867 36.3031 15.2177
159.456 87.8297 46.4118
172.98 24.1748 8.63841
50.6087 23.5937 8.64942
94.6069 14.6522 4.35846
61.6195 22.2999 9.49825
145.74 48.4421 19.0706
202.013 55.9678 32.1286
125.359 75.6475 29.8897
172.525 89.7489 41.6773
239.712 63.4277 28.4389
88.0729 73.0316 39.805
378.474 102.072 38.3277
152.011 42.3425 21.3226
97.9795 25.3628 11.4859
113.051 21.1967 9.31203
108.753 47.0239 28.263
207.96 72.3749 28.6207
211.817 78.1366 40.3662
93.9481 54.7507 23.832
75.0716 21.815 12.9736
318.645 95.0205 41.2058
133.243 44.7897 29.0823
110.822 31.3163 16.7898
177.087 54.7394 27.5697
59.6968 36.7682 21.5409
108.336 26.8965 7.64368
179.587 83.6619 44.3084
64.2021 31.4156 12.0697
13.1087 6.15154 2.017
60.7576 40.641 19.2712
128.556 56.9512 37.9086
88.3379 24.0702 11.9121
115.266 28.7643 12.7837
144.527 31.264 15.4915
67.2886 19.1853 16.3992
112.609 71.3812 29.6451
56.4444 17.3076 8.79729
73.0211 43.1744 23.2703
55.9826 18.5912 12.7292
55.1148 13.2509 9.16291
89.8567 58.2685 34.0912
25.1324 6.16204 4.4984
76.8395 43.2425 20.8437
61.4915 20.1896 12.2469
59.0108 21.3353 12.5797
166.521 52.7744 25.8336
128.225 44.4263 19.6997
156.955 74.1032 46.9656
64.1973 8.87702 5.33763
210.784 60.9391 33.9728
71.6867 29.5893 18.0866
85.1057 36.9902 27.0036
77.8691 21.5136 12.3688
82.3208 31.4018 10.4462
171.173 103.538 65.1053
68.0287 15.6592 10.3017
69.4309 40.1028 31.0531
126.413 68.5168 37.3477
55.1114 26.6054 14.8318
56.3075 27.9891 18.4058
99.4543 36.1628 18.6872
11.4065 25.9788 19.5079
64.7038 9.89562 5.16999
67.3461 18.0281 13.2345
70.858 49.1 29.0476
28.6055 7.86514 4.92683
71.2588 36.5564 19.2874
19.4566 18.6932 11.3249
37.2156 15.8756 13.0467
81.6523 69.6837 39.708
42.3856 42.5466 36.734
112.918 45.3936 21.8044
28.8513 19.7889 17.4441
110.811 47.0657 33.4531
121.523 57.0045 32.7019
30.2502 4.15113 5.41862
154.509 66.7165 43.3518
60.6877 17.2518 9.80071
105.537 22.46 13.5915
77.3109 41.5129 23.8235
95.8434 39.3432 29.7774
45.5957 28.2734 25.6234
112.699 40.6785 30.8726
74.3304 52.8494 29.9945
69.0191 35.7302 21.6956
76.1454 29.8754 22.8453
16.882 12.3641 9.80396
38.5129 12.5897 10.9673
42.2163 10.2557 8.87659
109.524 33.2617 22.3376
61.5454 23.2275 17.1458
162.177 79.4442 48.4497
18.471 5.21585 6.44106
83.5413 38.4427 27.0695
66.9061 32.6248 15.8424
43.0755 30.0619 25.4621
119.01 57.1808 48.3034
40.4224 42.0789 36.1642
110.138 74.1911 44.1584
33.5572 33.4016 28.1303
19.0636 10.524 13.1224
89.3321 30.6844 22.9981
23.5811 12.2771 10.6149
28.8823 10.2777 10.3951
74.915 27.0122 15.8557
77.5164 45.3573 35.6126
146.767 58.3722 50.0428
93.2702 61.6369 34.9318
65.589 36.2347 32.9042
73.5563 62.2052 49.7924
182.261 85.6136 62.9556
68.3808 31.3681 23.8617
85.2298 45.9903 30.0907
33.2154 13.4905 11.5191
10.3834 7.18744 7.56249
58.0842 20.648 19.0232
34.933 13.7818 10.411
42.9669 36.069 36.3592
48.2851 55.8418 37.569
26.923 9.9326 12.2251
43.3946 26.3174 19.9884
39.1866 20.4896 19.6487
121.997 74.7776 65.7293
25.3948 37.6326 25.916
52.6008 15.136 14.0437
51.6157 31.6295 19.3109
80.4529 54.2138 56.4989
85.0934 32.049 16.7185
37.6327 18.1368 11.3056
61.7712 30.1336 32.7828
8.53544 2.73059 7.99195
32.2405 47.0597 30.6066
23.0676 40.4693 31.248
31.4353 17.8 16.6465
21.2905 13.6667 12.696
59.0353 44.7115 39.7285
31.8849 31.3368 20.649
44.4524 42.7498 43.9856
71.4527 35.7833 26.8803
18.2751 37.8803 30.2151
20.5093 17.9322 20.6375
31.5023 37.2802 34.3538
61.41 14.8164 15.5139
61.6524 29.7651 26.1164
67.5475 48.3156 37.5791
16.8943 11.9918 17.4271
58.5596 27.0842 22.2
73.9914 39.7059 27.8662
29.9319 20.6705 13.5166
28.8244 42.715 51.9144
89.2044 50.9807 42.5217
79.3378 42.0442 43.6883
47.805 31.9919 25.7501
44.6975 17.7444 22.1705
23.8717 19.6174 16.9652
53.1376 55.2271 52.1837
109.667 43.9538 33.6747
25.0217 43.414 32.4304
28.1444 19.5009 19.5317
85.7121 62.6701 53.8046
32.2031 14.4007 13.3359
52.3898 53.474 63.1945
78.8317 34.7234 25.7394
18.1669 27.3712 29.2729
43.6082 29.1742 27.4479
37.3038 9.68346 11.7326
90.1627 53.207 46.7899
47.5341 13.9178 17.237
48.5337 22.8534 23.0524
24.2498 25.5105 26.6538
32.841 7.47457 3.58695
28.2148 6.85174 8.71747
96.2028 88.2164 84.8883
15.1964 14.0543 22.8235
102.397 69.7554 59.8834
61.3099 26.982 31.4447
36.2845 22.4196 17.3015
47.7379 34.937 54.2261
20.0865 27.498 16.6289
20.0502 10.6259 9.61114
22.6204 22.8426 31.2028
51.4501 28.553 24.7727
74.896 38.9462 42.2242
33.9142 28.7152 33.5805
54.9626 35.4964 37.2689
28.2656 8.51666 7.44962
28.2128 16.3677 21.6718
46.0748 51.6328 39.5429
33.2301 23.7078 37.6617
68.8271 83.3405 66.3076
9.24236 16.6045 32.6395
48.1693 22.0949 18.172
87.0212 54.4398 60.7247
6.88213 6.43703 8.81342
11.4867 9.41809 13.9252
20.118 13.0631 17.1762
46.7997 33.7186 20.0047
62.0949 72.3103 74.6646
39.3862 16.5311 19.0405
24.3793 23.796 33.6105
41.0547 32.7029 49.6141
29.0452 22.8381 25.5295
37.809 24.6893 16.1645
22.9762 20.1448 22.3459
58.236 41.1183 46.1254
5.549 20.5261 19.9303
22.4607 50.2225 62.0909
58.59 27.576 25.5673
33.2848 30.5297 29.9615
45.6618 30.0293 32.9652
17.7426 19.3134 33.9689
39.445 20.6137 36.4686
41.6952 58.4902 65.6262
39.7428 22.3608 34.6589
69.101 71.7849 69.666
25.215 6.68969 7.73223
15.7464 43.6919 65.2912
62.2648 24.2217 10.8442
72.4515 43.2304 37.7727
34.8808 31.1594 48.0443
37.1965 23.3648 21.7537
7.5554 8.4727 19.226
46.6263 29.1557 34.3081
25.1474 12.945 8.73907
23.3116 13.5796 26.8288
11.0334 17.0601 13.0969
29.7441 22.7933 19.5238
12.6056 24.0722 40.3818
28.2513 21.2575 23.1559
22.5925 6.95088 13.8752
13.8879 11.8052 24.3376
54.5022 46.5844 61.0696
9.11155 14.741 15.2972
11.2881 8.64956 16.6459
32.2346 26.0935 24.0187
36.3073 34.3838 37.9641
69.0403 36.0799 33.961
21.5701 29.4541 36.9208
21.9519 12.4371 17.0568
47.4209 21.4967 28.3363
18.5769 11.1652 15.5356
36.9731 11.0208 14.1699
31.5451 30.3175 40.5944
41.5597 17.6687 21.9127
39.8349 31.0897 38.2455
24.106 14.6881 24.7208
6.05845 15.6372 15.3421
39.6244 39.5227 44.5282
20.6784 18.254 24.8762
36.7827 33.0013 40.0983
37.3729 27.6428 36.1024
14.3692 31.8942 46.6332
21.9846 11.3513 7.44733
19.3268 12.7864 16.5749
30.5598 20.9568 22.0476
27.9838 35.4127 55.9378
27.6154 24.6728 53.5443
29.1503 14.4423 11.3281
38.4817 35.5675 49.6079
40.2779 34.2702 42.3084
18.4144 10.6033 27.7967
61.5172 50.2866 53.7098
39.9405 28.3888 36.2975
33.2156 29.862 40.271
28.2197 32.7879 44.4748
43.1799 73.409 92.4507
20.9088 5.46682 17.1556
26.1377 47.0137 51.0592
7.91467 20.2543 29.2624
37.5928 47.2578 84.1759
15.5621 26.1143 24.3554
18.5638 20.2046 35.3877
28.7918 9.68196 17.5316
12.5304 21.934 36.1927
34.7455 22.0912 20.9682
29.2094 14.0714 29.198
10.5708 23.2214 38.3422
43.963 14.7759 6.56593
23.8359 18.5152 20.863
11.6325 28.365 45.7761
20.3838 8.50639 16.3752
16.1962 15.0925 19.344
69.898 77.8245 91.6673
13.5833 19.3015 25.7487
18.1239 12.2582 31.6862
17.0682 25.5924 30.782
9.14427 14.6166 16.8418
11.2953 26.5924 53.4855
37.9731 33.6933 60.0413
68.2928 29.9336 26.2042
13.8308 5.66258 7.97607
20.066 23.6407 56.5792
43.5034 38.3768 45.4362
10.4349 29.9575 36.4686
17.3839 16.2551 21.3447
12.0376 10.2026 15.8734
26.3549 32.8801 46.9776
17.0887 8.78427 8.93614
19.4164 10.3222 13.263
7.91488 11.1775 13.8335
13.031 32.0465 56.1982
20.959 29.8794 43.3667
23.5668 9.34402 18.941
36.7979 17.1528 30.4518
18.1489 27.9806 33.2584
12.018 10.8691 18.3369
7.77906 18.7099 40.0259
33.3376 38.1265 55.3117
33.1621 38.9252 48.9532
5.30863 8.93491 22.8505
27.4354 11.5908 20.9004
20.3512 24.6038 45.525
34.207 15.8282 24.5655
41.8926 57.2234 90.9661
29.5644 19.5096 24.9687
37.4984 21.2859 27.135
34.8379 31.7699 65.4294
24.552 17.2423 25.4544
42.9512 27.278 38.6741
41.358 36.5961 49.8762
8.56948 15.8169 19.7309
23.5641 13.6458 25.9191
2.46199 5.6123 13.0619
20.1108 17.5756 31.026
15.1693 14.537 19.4077
14.7259 7.45317 8.79987
5.43292 10.8888 27.0431
40.7458 22.5193 19.4576
5.56907 8.16513 14.7049
18.4211 6.86336 18.0863
42.8952 31.444 48.2382
14.3988 16.1709 38.1124
32.5503 35.4274 68.0915
41.1583 24.3027 17.5607
19.1275 13.622 11.2555
45.7536 55.2739 91.5625
21.0238 7.97725 11.0925
13.3117 20.7602 40.8073
7.90764 16.8688 46.3954
28.8214 22.8385 21.9053
34.3167 36.2287 50.8982
18.1351 19.103 38.7782
16.2721 25.4531 33.4689
14.3316 7.23255 16.8803
24.1733 10.829 19.0545
38.7889 25.8745 35.8028
17.6095 14.4671 37.592
9.80016 13.0805 19.3258
23.295 33.3958 62.2745
8.19028 15.1351 35.2195
18.4701 22.7875 35.9299
28.6417 18.3423 28.9277
8.26222 24.827 36.7601
13.2059 8.31753 15.6791
13.6657 12.8545 34.8932
20.7225 12.3306 17.927
12.6254 9.02662 19.3116
22.5092 13.883 33.1488
12.755 17.7494 20.4908
14.5661 7.12858 24.2993
2.01279 18.0614 35.8501
23.753 19.9198 23.2154
9.48725 13.45 25.2546
19.6951 14.9863 44.6749
18.4616 7.86154 12.3111
23.1409 24.2945 27.7478
13.4055 5.63863 10.286
9.13256 5.13186 8.08723
21.5936 15.4541 24.5436
15.3461 20.322 44.8137
26.7542 11.7817 28.6743
14.2312 14.7902 33.0165
17.4703 13.8284 14.7851
7.51777 8.621 19.1645
12.1918 11.2517 13.9385
15.3485 16.8373 41.0941
21.5956 25.7405 31.4831
9.09657 12.9567 19.6822
5.97042 6.17985 14.1205
12.9631 25.938 61.782
21.81 39.0533 64.1783
15.5527 10.3233 12.4693
6.79263 5.37461 13.6928
9.67491 29.3123 43.9064
16.3502 17.0017 58.3458
27.744 28.002 44.1081
32.3297 17.6416 35.5089
20.1909 16.9403 26.2291
17.6969 26.0184 41.3796
27.1171 24.4547 43.2533
13.4709 7.93124 22.8314
14.9449 29.2319 47.3289
24.7551 24.7592 48.1804
12.108 20.9745 57.9508
8.747 9.3809 20.663
6.63283 6.4338 12.0282
6.22212 13.02 21.5409
12.268 13.0269 15.8358
15.294 12.5426 13.0634
13.586 23.3135 67.5305
22.3373 33.0142 57.8976
34.2262 21.5443 28.5584
13.1425 6.55448 20.4622
21.2787 35.4408 66.7452
12.8786 29.4503 46.7301
12.6079 7.42587 13.1179
16.3474 14.8108 38.2517
4.17973 22.4565 42.9739
30.291 20.4734 26.0809
12.6153 11.365 20.077
4.28813 14.3195 43.5491
22.4583 33.2166 59.8948
20.9228 11.4854 23.1037
25.3523 22.9739 62.3361
7.54482 8.04172 7.2989
7.73568 7.51706 14.496
10.608 3.01735 18.0846
13.7613 11.0466 6.47222
5.58341 28.741 71.5374
26.5372 10.2565 19.4639
20.7148 7.71542 6.11291
25.3956 24.7818 44.0049
20.6585 25.763 45.9709
19.7563 24.8364 63.6237
21.4749 22.6317 39.8789
3.51138 20.5445 47.7637
16.1763 18.855 67.3252
9.9908 9.65612 16.4136
27.5423 29.4259 33.7421
10.4883 10.6076 30.0238
3.18833 0.924284 15.329
14.1765 31.092 48.8037
12.3241 14.0132 62.7886
24.7694 40.6288 54.9064
6.62246 18.2228 27.4065
6.61145 11.3438 25.5231
21.638 15.2184 37.679
13.4707 22.5404 55.0231
18.3117 18.8919 34.758
5.11442 5.77369 10.4115
5.21865 9.46911 15.9808
14.3727 27.0394 61.6054
18.5552 8.60773 12.4597
12.902 23.2669 47.6477
9.86711 11.2379 20.6338
10.5997 5.89863 11.2863
6.53244 4.89323 8.96895
8.09838 17.0777 59.0254
14.9314 22.6573 50.8395
12.2117 13.312 23.4738
8.20513 25.2776 36.7326
10.6166 13.0607 38.6624
16.9374 10.2998 54.3526
19.2316 25.6257 36.9798
22.6865 19.6072 21.8476
13.1959 17.8633 45.4164
5.90211 9.10001 18.7042
6.80047 4.80425 11.9371
9.91192 15.9537 33.8301
14.3237 8.34367 38.1062
25.896 14.142 22.1762
11.3219 22.3491 55.7987
13.9259 24.1137 43.108
9.4218 22.9266 46.1076
13.4411 4.65864 26.836
26.0106 11.0233 13.1352
18.2707 9.6517 11.3378
12.1318 8.57896 36.6839
12.8478 25.367 39.2468
9.22968 8.34044 26.6505
11.6118 7.286 13.478
11.1564 15.0705 23.8682
13.2427 24.9363 97.8128
23.8873 17.4856 10.6202
19.2407 14.97 32.2037
16.0336 19.0965 78.0449
13.7827 41.5282 57.9059
8.96107 2.88804 22.4447
20.5978 23.2104 34.1129
9.39738 13.7163 41.0807
8.54056 20.8287 28.5017
13.7629 14.5922 38.0568
9.02875 23.7989 67.0311
17.5558 7.81588 19.2081
11.2902 11.3828 20.8831
3.79639 3.0054 28.8441
11.0344 25.1047 37.0127
9.4772 5.73363 13.632
2.93606 16.967 50.2828
18.6099 29.624 59.5338
5.88289 28.05 58.6307
10.5443 14.1508 48.1522
23.7424 26.3627 62.1166
20.3767 20.7571 23.8443
9.44286 5.37381 13.9693
6.19001 23.0804 65.6137
7.27407 20.7159 51.0861
24.2898 9.2396 15.4728
10.5095 8.8622 22.0242
5.49269 17.197 36.6182
5.97045 8.61423 26.1507
11.1715 4.37161 20.6539
15.3836 8.94121 15.6871
14.0003 8.42266 19.4701
4.49092 4.50771 11.9833
11.5023 9.86187 47.2374
8.30921 6.81833 20.0235
9.0904 23.0573 39.5627
10.6937 6.79218 6.39974
9.5124 19.5025 60.0983
9.72475 10.2001 10.5861
4.80367 6.67257 17.7985
11.2719 4.63129 19.4184
18.0868 19.0118 33.9193
14.3791 17.3661 49.8257
9.92421 19.8214 50.3832
13.1447 9.4976 3.23108
7.7125 21.3741 58.8992
13.9826 8.8659 14.8859
5.65615 10.1657 42.8808
11.2491 14.0527 16.2328
5.94788 2.74883 22.0972
3.62192 12.2354 21.084
4.99837 6.96799 7.55101
4.10286 16.1419 70.6689
14.1818 19.3235 24.9294
12.5301 6.66824 12.0913
8.22626 7.4332 19.0265
16.7756 12.3872 27.9729
5.54819 8.16025 21.5573
10.7603 5.41414 29.9697
19.7846 27.1465 53.1948
7.57195 11.8257 18.3368
10.2428 27.3158 62.7471
11.9706 13.4919 43.8382
11.391 4.39542 7.57392
9.80283 10.8275 64.8916
27.5445 44.6606 80.3108
10.0535 10.4933 29.855
4.87782 3.81028 27.7949
7.72188 8.87358 8.53333
4.71991 8.97796 35.3725
6.64039 19.4242 31.7736
7.60153 15.8503 55.581
12.6145 8.89261 19.4337
20.0476 28.7778 71.5874
8.79996 8.743 21.0837
9.71895 4.31203 6.65982
4.82712 3.98059 11.8773
5.59382 14.2999 37.1964
11.6484 4.79977 14.3081
5.30731 3.28048 29.5798
9.91021 11.5236 20.8339
9.56254 7.50691 22.2633
10.6173 16.9785 28.2588
6.99056 11.2849 27.4818
9.67883 13.9655 39.3513
3.80096 16.5127 75.2388
30.7012 18.6607 14.813
11.4275 17.7488 50.556
2.10787 7.13836 15.3243
7.98692 8.92794 16.6555
3.31908 8.12138 23.6724
8.31554 3.48251 10.4178
2.29928 16.2786 45.7339
12.3628 6.58642 10.4902
5.69818 1.62172 13.0399
2.36084 13.3881 46.959
17.0499 20.1167 42.6589
9.506 5.30243 27.2378
5.59747 14.4407 25.8979
12.8085 17.6573 43.826
10.1918 10.2927 20.6874
7.35016 11.2034 35.7112
7.63198 9.57927 26.6145
8.41086 8.27028 28.4231
8.24786 8.44844 16.1566
9.24949 15.9724 28.1419
3.25844 12.2626 37.489
11.9483 7.61859 20.0367
13.0784 8.66494 28.3786
7.6723 5.31578 14.3245
7.32159 7.53449 25.3687
3.02015 11.0314 26.2393
14.7401 15.5553 67.1418
9.88616 12.2238 16.3038
6.54018 9.28423 30.0883
12.3372 24.4228 51.4032
4.6384 5.5997 32.8818
9.02657 6.29798 13.8897
3.68274 23.022 56.028
13.2204 8.00023 35.1004
10.5631 10.7394 16.3252
14.178 17.3282 47.0314
3.76697 11.6627 42.8333
6.47408 12.4152 20.121
9.18346 1.03772 6.38973
7.43232 14.1918 43.4386
13.8403 3.1873 2.98933
6.84603 4.55682 13.213
5.47993 3.36526 9.68647
4.10076 5.89757 24.7046
9.45646 8.2119 33.712
7.30642 21.2329 50.2741
11.2371 4.96663 13.6037
5.34389 10.0156 25.4941
7.6393 8.44174 14.7711
4.65692 7.06128 32.9053
14.5936 5.50107 16.2235
10.5279 7.2899 15.4659
6.37438 3.20676 13.9643
7.09112 4.21861 24.9303
11.0409 11.7989 42.1666
14.3179 24.6633 59.0565
11.3923 2.84682 3.50365
5.10217 15.381 42.126
16.213 8.61614 19.6484
7.63493 2.77717 23.019
12.3842 13.4592 50.4277
10.4222 13.7781 42.4665
5.74492 11.1567 14.8928
6.50417 13.8542 33.0989
11.8331 10.1866 36.4586
13.4415 9.51471 27.3687
11.0196 21.5797 57.1792
9.47695 10.5249 28.427
9.40384 3.52097 9.74685
9.55918 6.60718 30.9169
8.67717 14.8401 30.672
2.412 6.46499 26.3878
5.64833 9.15719 29.0057
5.45525 14.3615 58.4223
8.0982 14.2353 26.1114
8.05916 6.54801 14.8369
10.1187 12.4006 23.6998
3.77102 1.28467 1.51467
4.49947 7.9233 47.2938
12.4709 9.92915 22.21
2.34114 14.3128 21.4973
7.75813 14.2282 34.7459
8.10941 4.82915 18.5938
3.30791 5.13245 8.1514
5.89998 6.59504 37.6684
8.68542 15.9638 37.3267
12.1337 7.28794 12.6791
5.22389 2.68686 19.2107
9.04595 0.923383 1.44327
5.31419 3.60849 11.7665
6.29813 9.32535 47.9017
14.3332 8.62128 27.0778
7.56739 0.963072 18.6189
10.9047 7.64082 17.3601
11.8004 7.38354 14.6158
10.51 8.08221 26.6993
5.15214 10.705 41.1832
14.7552 10.5102 27.207
8.71572 7.97787 25.3011
5.92584 7.99278 47.1712
15.6312 8.9845 20.4756
8.49612 9.47547 21.7301
15.6857 14.0582 21.4933
8.48962 8.38074 39.6651
3.34115 11.1292 15.0411
7.08771 8.54185 45.1519
12.2175 6.3483 24.6807
6.77304 11.2413 26.9815
11.755 14.6118 36.6103
4.66491 7.88817 28.0007
11.1034 6.87659 25.0403
12.983 10.6511 43.9964
9.9694 9.00505 21.1939
5.57889 3.53775 9.53023
6.48436 13.0487 45.6608
13.488 15.6888 21.4704
7.40099 5.76333 6.0962
5.17067 10.315 33.4762
7.27349 3.42765 23.4914
11.4647 11.4679 40.7208
10.4533 9.27494 22.3733
6.88123 1.12584 14.8579
8.07862 18.9397 51.7938
9.13411 2.77381 13.1079
13.8926 10.1432 33.5441
8.79486 17.5255 49.7691
11.2764 15.0532 44.5152
7.06567 6.49333 44.3693
11.8936 11.244 8.58216
3.97236 12.6973 27.7259
6.73123 3.57456 36.037
13.1974 19.9371 60.056
11.6723 10.3455 28.2
8.01194 10.163 48.6219
21.9331 32.9612 70.2828
8.20397 7.15348 14.0404
6.68812 15.0092 26.191
5.99221 7.62199 27.9963
5.8989 9.04582 28.4233
11.133 16.8462 43.0919
3.61019 10.5365 47.8974
4.35204 1.29955 16.0345
9.11148 13.0655 33.1697
2.0475 11.8725 53.2913
10.4051 16.8853 57.5397
4.69404 2.49836 10.8908
3.68153 6.67325 5.31512
5.59725 2.00159 10.0801
4.25088 17.0863 53.5395
10.7336 5.58274 4.51717
2.85881 12.488 55.0265
11.3372 2.72749 10.7175
5.24107 3.50125 11.1571
5.04641 10.1592 33.988
10.4332 5.77121 42.6709
19.0495 16.29 35.8951
5.01682 17.1223 23.8411
8.10423 10.0276 52.2232
9.83694 7.49577 16.3923
6.16938 9.32056 34.7105
4.4855 3.89075 28.8418
5.38946 4.33814 6.64539
6.92166 6.60324 40.5771
4.25211 7.49744 17.6433
4.48844 7.34632 26.4313
9.76625 8.3519 45.3397
8.50014 15.1337 47.4274
14.0749 18.1795 39.1493
5.49773 1.55059 21.5254
7.45577 2.66334 22.4456
10.7126 23.2374 48.2371
9.45121 6.19713 16.3237
8.14475 6.57538 23.0646
6.40914 12.7078 60.9734
11.2417 5.48757 16.8928
9.75208 16.8688 34.3598
3.88345 5.79183 25.7948
7.72372 19.9004 50.8692
10.9882 6.70908 28.5421
5.26715 5.4903 25.4498
6.34192 7.21411 7.81689
5.92707 0.958047 9.49166
8.69024 10.0089 28.9121
7.44114 7.81821 32.9612
10.0831 10.4506 44.9362
6.20559 5.43582 3.30202
6.86771 7.01465 10.2719
5.82956 3.23925 10.5422
6.96534 3.90775 21.286
12.6518 23.5641 73.1962
5.95042 9.61083 27.6621
3.80305 2.9165 12.75
1.71472 4.70098 16.2687
2.5381 8.20251 63.0998
12.659 16.5957 27.546
0.729385 3.9233 9.6189
5.95446 13.1891 37.4444
10.5712 11.6232 44.8972
3.56758 5.73447 18.1597
6.14575 3.66357 16.7194
3.86951 6.96871 35.7858
6.28299 7.34589 9.20096
5.70797 6.23135 17.7751
3.96124 2.88196 4.36683
3.50018 1.81125 7.74032
4.61946 2.31636 8.87024
5.72064 0.92736 10.995
5.85969 9.64501 23.5337
2.64001 4.30479 17.6865
4.94186 7.44632 20.0483
8.97399 2.42226 18.0293
7.70592 6.28205 12.4469
5.96449 7.90983 21.7801
4.00184 8.14105 43.3133
13.1396 5.02372 21.9669
10.3881 7.14868 36.9438
8.6261 17.8904 30.199
4.1707 7.6583 83.8593
18.2154 21.5497 45.4003
10.811 13.3659 37.3858
4.8808 4.58726 9.16819
6.69731 5.83428 18.7513
9.59814 10.8326 27.9224
7.57388 13.1378 50.6447
1.79529 4.64685 23.7569
2.77513 9.51892 12.8011
3.64508 5.67364 40.702
5.66254 12.6304 60.5595
9.01995 9.6175 25.2156
5.84329 7.67291 17.0834
3.72315 9.15721 37.5814
10.9528 6.88129 19.0908
7.67291 7.10522 21.0056
2.48232 11.2075 14.6882
4.3636 7.16771 42.4846
8.76508 4.09661 30.8774
12.6033 10.1692 25.459
4.33717 1.85227 4.31741
5.47319 4.37388 26.9023
5.20479 6.95667 35.6925
12.8938 10.3459 17.5452
10.5882 27.0846 89.3451
2.61845 7.27667 30.6987
7.89273 4.24035 22.9276
7.69801 4.53554 23.8062
5.84008 5.96041 8.38507
6.53398 13.4923 28.161
5.48365 5.30847 25.2302
4.47627 4.71497 24.5013
2.65773 9.05246 15.4534
4.60334 5.15571 16.6871
5.9124 10.5227 36.8689
5.00274 5.49163 12.2008
4.65679 2.9942 27.0666
11.0894 4.43186 40.3127
10.1131 16.3139 30.7184
4.31819 4.65608 15.4534
3.15448 1.82727 21.6766
6.83568 10.0796 17.3439
2.86369 6.52561 20.6084
7.83414 6.61608 56.9039
11.47 8.34992 14.6028
5.19027 7.28822 20.2638
6.65362 1.76383 3.39637
5.08845 6.78694 37.0521
7.19805 12.8775 36.8775
3.93691 1.33794 9.39469
5.84084 5.62928 13.8369
1.87745 2.85489 26.8343
8.56328 9.17891 31.4337
1.74091 4.52302 11.5055
4.18145 7.96251 29.4404
8.85647 2.61724 11.7145
3.75108 4.23566 12.0906
5.23921 3.45371 11.971
7.25228 6.33412 27.9288
3.05813 11.225 14.1919
4.47465 5.21853 16.9758
6.19036 1.58488 5.46267
4.74304 2.80922 23.2922
8.13044 11.6848 30.0435
2.89819 6.1524 22.4399
3.61793 7.15507 30.9261
11.5663 8.22722 36.4698
4.99914 6.85495 12.1686
5.73185 7.79245 31.0329
7.99399 3.60891 8.70153
3.54602 1.65561 18.4058
4.41085 5.32969 28.9152
10.0097 6.6205 15.8681
4.79779 2.75145 17.166
1.84887 6.09665 28.634
7.87669 5.91679 27.3051
4.5255 8.88348 46.4296
7.35097 9.98998 25.2362
9.06284 2.30171 16.666
4.72683 7.49133 20.2961
8.55773 6.06926 11.2549
4.47872 2.74053 14.8738
3.38368 4.68471 13.1293
3.66819 1.46697 14.5723
2.34578 10.4427 58.543
10.5011 4.84775 33.0274
12.5482 18.9702 56.4075
4.08737 10.4751 16.3061
5.92956 2.9395 12.5119
7.83852 3.26841 14.6312
8.76688 19.0549 52.6403
3.5377 3.16838 7.14236
5.4149 5.36474 25.4889
3.6148 4.73332 10.5655
2.28208 3.85041 14.772
8.22107 4.79861 25.8988
4.3068 3.70953 6.68002
4.80759 18.3961 65.8909
4.26611 11.0598 23.5122
5.87131 8.26506 72.1067
13.497 11.1141 18.0284
7.95117 10.8694 50.5487
7.42791 12.5213 57.1356
11.0404 2.37621 20.6808
10.3722 8.2786 9.4444
5.83287 4.27368 18.5108
7.16186 4.55655 27.9003
10.6886 9.66872 4.40537
7.04437 15.1765 34.623
6.43946 13.0545 53.8822
4.118 1.23189 14.6911
8.01683 6.45768 6.74971
6.14723 12.0017 38.3152
1.10094 1.14587 2.31408
4.80291 3.57522 39.5803
2.08656 15.8141 25.9495
4.28834 4.85896 24.7294
6.32275 4.21274 25.3047
4.47423 4.63126 14.1582
5.7588 13.3502 37.4459
7.0112 1.9001 40.4531
9.37351 6.43102 41.1159
12.552 13.3875 26.6263
7.91479 7.38553 20.2438
7.31678 7.01377 24.9585
5.80223 9.33977 28.0306
7.38626 3.56092 9.58546
6.30401 9.22895 44.427
1.68718 3.30739 4.8022
6.62578 4.45338 14.9604
4.35656 7.54713 37.6044
4.45266 6.79939 13.1902
5.94494 4.84688 24.7465
6.86474 4.68581 15.7705
2.37247 6.74587 37.3771
10.3415 8.44368 8.06613
3.67877 4.76962 24.3483
3.47414 5.99382 38.9258
0.687117 7.49422 13.5459
5.26262 0.643284 10.1409
6.27114 9.21398 39.3004
2.69005 5.78742 34.7435
0.822662 8.55338 20.7704
6.88589 12.7299 37.0169
5.30908 2.9682 17.5995
3.70368 5.99298 14.0554
6.21623 2.32571 20.3962
8.65821 16.024 44.9096
1.87129 6.12291 34.1801
7.8826 6.50382 42.8131
4.93339 5.56617 22.4745
4.18402 9.36034 20.4595
3.99031 6.1298 23.8901
2.55304 2.89487 15.1264
3.02165 1.62168 15.0801
3.24105 17.3702 53.7862
7.44124 2.33685 38.4196
8.08969 11.8961 32.7671
3.37834 6.38982 15.047
5.68678 5.06841 43.0909
9.60863 10.2999 17.8315
6.96808 7.69949 36.9021
8.75484 9.3983 19.1091
5.53751 9.1991 59.872
4.557 7.03651 15.1297
4.09424 2.4591 4.69989
2.65026 2.94982 20.4274
7.45648 3.91234 16.8923
4.33012 5.39313 19.3911
9.02735 15.2582 27.3026
2.87668 5.94172 26.6521
5.96161 5.86443 15.0417
2.50952 3.50594 29.249
4.2483 11.4084 49.4473
2.89394 5.14488 25.0858
4.02932 12.7779 49.559
12.0023 7.48018 25.8616
5.52688 3.33417 22.7279
3.01669 3.78694 6.89274
3.57051 1.89613 24.288
7.19794 3.15165 20.7635
9.22597 5.97935 12.5875
5.85943 4.08422 12.4022
4.92284 1.14787 22.7584
8.0895 6.67093 8.70521
5.38613 10.8041 51.196
3.19132 12.5405 14.4098
3.8421 8.16756 63.5609
6.72944 6.46687 7.92925
3.09941 7.65762 13.5241
3.73926 5.19985 27.8968
6.35325 4.88911 27.4718
5.47517 6.83711 25.2885
1.98909 3.72333 27.1594
0.87751 3.82047 7.10801
5.44001 6.59773 25.3277
2.79095 2.35137 33.4878
3.20344 6.69318 31.3728
2.42804 10.4949 26.0005
4.55764 9.76988 24.7922
4.81271 15.137 53.5675
11.3915 11.0767 22.6304
3.61454 4.86782 24.5529
3.87376 1.95585 13.8771
5.73649 6.97994 25.6382
4.15978 4.53437 20.2613
3.64464 9.1255 38.0207
6.16347 3.03773 12.0052
5.1178 5.89905 37.0441
5.98995 7.3991 18.671
1.82033 5.93934 25.4626
4.43946 5.46526 16.7197
3.57896 3.51775 20.7504
3.73015 4.00663 59.5939
3.0781 10.2506 28.0633
5.80537 7.03499 6.74622
4.04902 1.24472 18.8768
4.87545 9.10946 19.0433
4.64543 5.19319 12.1394
5.41729 2.37761 22.3115
1.0471 6.91017 33.9426
8.02033 5.7373 27.0469
2.11433 11.9701 27.823
2.97092 9.56985 25.1457
5.68323 1.99522 6.16564
5.11669 10.0511 47.4689
8.62416 4.25404 16.4286
4.63806 2.92963 40.1158
6.05309 12.3624 28.9699
9.01192 18.3033 41.3949
3.5647 3.17328 37.4612
5.96009 3.06164 38.2305
2.40527 8.07387 24.9672
5.89567 9.26375 19.3565
2.52359 2.11386 35.8966
3.25989 10.1213 7.56912
4.80625 7.49331 35.4762
6.34364 10.7254 21.1768
4.23083 0.658093 4.24824
4.4835 3.03743 23.6335
4.40994 4.46762 22.7772
7.47708 7.34695 17.4008
3.45174 1.63139 8.23961
5.68084 2.94976 16.6986
6.74136 10.9209 56.3707
7.25838 6.9426 15.318
1.70361 2.73855 6.91364
5.35868 0.734707 13.7127
6.47115 3.05214 23.7152
3.91114 7.80269 28.5927
2.9727 3.562 37.3788
4.37696 9.05589 9.75341
2.56663 6.29773 26.2347
5.84146 4.09619 10.6008
4.25327 2.71956 9.07489
5.31907 4.2906 15.8269
4.99637 6.29642 22.8104
3.81975 4.13384 23.6171
4.27699 5.07378 9.84929
3.8091 6.08147 30.2292
6.79941 2.25302 13.8123
3.18972 3.43585 18.309
4.86666 3.68555 16.0951
6.35053 5.96564 18.1695
2.31718 2.76161 24.3153
0.62389 16.7228 17.9442
6.552 5.66249 37.5176
9.81059 5.7807 8.49421
4.75142 3.59737 19.4931
6.22163 5.22273 19.7256
6.78193 4.02041 20.6324
4.76597 11.9287 18.6869
3.54688 5.06629 32.4929
1.9145 9.96108 40.2727
10.5333 6.53958 62.019
9.54077 9.07096 21.2892
3.47567 5.59395 18.0089
3.84295 7.31463 48.2235
7.69696 4.87851 15.0227
2.82754 9.17484 35.6817
8.69294 6.72017 24.6623
2.78894 7.16007 13.1331
3.89109 3.89913 10.502
5.51372 4.07605 33.8101
2.53617 5.15877 20.7334
2.83629 6.98307 65.8181
6.0463 15.3695 25.0397
8.28758 0.623201 6.87623
5.16422 1.64475 21.2031
6.10027 4.90903 26.2585
5.10171 6.90423 22.3997
1.67133 7.3959 17.2596
5.83519 5.99993 17.8508
5.47124 2.35469 8.0929
3.38423 6.71799 32.5029
7.97313 4.39704 31.0709
2.72912 6.84531 22.9711
4.03152 9.90078 42.1329
9.94406 5.22138 13.2639
5.21076 5.06103 26.8437
7.21554 12.2527 31.8487
4.33432 4.30465 11.6458
3.31988 1.21869 20.1351
5.88638 12.0027 42.0258
7.34189 9.85956 27.162
3.76956 5.29547 34.2102
4.1386 5.46825 24.658
2.79862 2.39419 18.8371
3.68129 5.64503 8.93023
4.0685 2.39557 8.33543
3.91163 1.21033 4.10747
2.76487 4.68901 19.1174
6.41038 2.43171 16.7554
5.66746 4.83257 42.1697
11.4579 9.80735 11.323
3.96651 3.06617 14.2049
3.21972 3.66394 26.4277
3.93795 4.29089 11.0272
5.90786 1.47349 15.2146
4.23394 9.86677 45.5272
7.77478 7.52948 12.0449
2.19128 2.45518 15.2684
2.93999 8.07831 26.3368
4.0026 7.51096 22.7364
4.20241 2.07292 18.6594
3.59453 5.18656 7.24348
2.43737 2.9204 11.6389
4.63921 4.81 23.6494
6.07824 3.6987 24.6933
4.1272 4.10517 21.5485
2.93372 10.6212 21.1365
7.0183 5.67181 18.4621
4.27941 1.14088 11.7168
4.35378 6.2474 22.1596
3.28336 10.3439 58.7339
9.80175 5.67505 10.842
6.35028 8.2964 20.5451
6.38879 3.58341 4.4439
2.45707 3.23528 23.5966
4.31978 1.51198 8.25549
2.2902 2.55327 10.1816
3.57825 4.42114 25.8901
6.64056 4.68417 10.6841
5.80223 3.65307 24.0651
4.21341 6.12258 20.7954
2.21779 4.89795 11.2801
3.31334 3.0566 25.3354
6.24927 8.93722 15.3266
6.95191 2.31079 15.1679
6.34192 6.50941 45.9912
4.40952 14.0137 39.501
7.68887 2.66949 28.9129
4.77206 11.5863 45.6799
5.78205 9.10116 53.5319
10.7416 18.3626 41.907
5.0629 3.69015 10.9584
4.4221 1.70839 23.746
7.99038 11.2778 44.6475
3.58739 0 0