# pn-170911/CsIIA-27-CsIIF-1280-1959.psd
# Power spectrum* (dif=0,1,2) (really just |FT|^2)
# NOTE: only the first half! (symmetric)
# weeks: 1280-1959
# 25 clock-days, 37 excluded
# PSD: 1441
185416 5.02399 0.105499
8.8747e+06 81.9192 0.231984
6.6955e+07 1515.71 0.230764
2.6292e+06 102.019 0.322844
9.80473e+06 538.896 0.163902
1.42685e+06 88.8857 0.175998
1.13079e+06 100.078 0.181514
766928 121.896 0.278716
444636 78.1198 0.232541
390746 74.6099 0.133127
274301 76.4271 0.164838
273752 80.9803 0.207448
266642 115.881 0.296898
218523 98.2663 0.231172
185307 113.826 0.204569
139864 94.4363 0.30699
141687 91.4456 0.252377
186030 135.537 0.263237
130518 90.6273 0.292516
92420.7 73.1634 0.322865
94975.4 79.2373 0.647567
121310 62.4456 0.255136
77568.4 81.0953 0.413652
94653.6 63.4628 0.289056
70408.8 79.272 0.455509
78418.2 90.3056 0.466608
90562.6 85.7048 0.355175
62762.8 75.4646 0.392149
50149 85.797 0.531707
91066.2 84.5202 0.534511
53060.7 74.0112 0.464204
60048.5 116.945 0.714188
74176.9 79.7016 0.618361
62978.5 93.9807 0.60005
42903.9 61.6003 0.343055
50994.8 71.3991 0.58373
43773 82.7921 0.73166
43359.2 64.4186 0.689529
57629.5 99.8837 0.661518
54616.9 106.158 1.01772
36742.1 83.7992 0.924782
49491.6 81.8253 0.663532
39826.2 97.0482 1.02278
28650.4 92.7314 0.904046
32909.1 96.5694 1.04468
30750.7 78.9831 0.953182
37422.4 64.1568 0.749624
35050.5 96.5449 1.11964
29120.7 78.3378 1.02249
37035.8 81.6874 0.933592
29020.3 78.3537 1.09066
27408.8 83.1181 1.17777
22127.5 79.9698 1.24413
16178.7 100.248 1.60189
22759.9 61.1414 0.86533
22302.6 72.4134 1.14398
24012.3 79.4296 1.20252
25625.4 104.398 1.83108
22391.7 69.7845 1.25891
18743.2 91.8729 1.67262
16740.2 91.729 1.70762
16746.4 87.0353 1.70831
21083.8 81.241 1.88714
16516.8 87.7796 1.49404
23844 93.9028 1.80546
25145.4 93.826 2.12685
20217.8 82.374 1.91697
15648 102.118 2.19734
16600.8 83.0333 2.00001
17431.6 57.6983 1.58323
21279.1 107.494 2.42198
16144.4 114.533 2.45785
16165.4 99.8188 2.67068
19828.4 58.2173 1.49094
9686.72 67.8601 2.01341
16440.5 91.1669 2.32393
19680.6 82.7342 2.29221
9801.59 109.707 3.33441
17726 102.301 2.8197
14406 111.862 3.49545
17486.1 93.0296 3.46364
12605.6 112.167 3.52358
13369.6 61.4188 2.13737
18081.9 90.9273 3.03083
9363.44 84.0275 3.1326
10030.8 65.2305 2.42948
9569.23 68.8101 2.60881
9642.55 79.0161 3.00496
11046.5 90.2068 3.64699
12326.9 68.555 2.52802
10453.4 124.294 4.70651
12056.5 70.5492 3.21809
15671.3 82.5396 3.62002
8526.91 66.5957 2.59824
10618.8 100.529 4.19768
8142.51 73.3783 3.28317
8098.71 85.5606 3.82969
5299.8 57.1628 2.93586
9436.17 84.6851 3.92013
7049.44 77.2587 3.73788
9911.9 79.213 3.86462
12417.2 78.8164 4.04233
8535.91 79.8051 4.13767
7110.19 68.8401 3.6015
5423.31 76.1387 4.16936
6407.11 62.2477 3.25166
6287.4 70.8049 4.00751
4650.11 116.562 6.20198
8352.91 82.0066 4.7771
6328.73 72.5609 4.41674
5722.97 77.3382 4.03129
6276.12 61.2254 3.91823
5352.65 66.3627 4.1926
7311.08 69.961 4.38332
5224.19 49.4072 2.99618
3466.97 59.4412 3.8925
5692.4 96.3078 6.25587
4375.43 76.6061 5.26783
4628.66 92.618 6.74898
3923.63 53.3659 3.71862
3781.6 74.5216 4.62135
2869.08 61.62 4.26773
4029.34 58.6959 4.2631
2640.01 68.6823 5.04166
3382.16 70.13 5.50752
4117.03 75.1387 5.83296
2725.89 65.0654 4.83653
3673.5 56.1536 4.86775
2378.87 55.4011 4.78984
2610.01 54.9201 4.63579
2160.9 51.3548 4.19534
3464.53 90.2938 6.90773
2644.79 56.1741 4.61462
1613.13 40.4654 3.15984
2521.01 84.7952 7.52434
2675.18 48.4664 4.17401
1795.41 74.3561 6.41962
2407.39 55.9673 5.39955
2784.1 60.0761 5.21014
2415.09 73.37 6.89241
2666.83 82.9626 7.53491
1792.92 41.8614 3.91429
2372.14 60.2653 5.80438
1843.7 53.1049 5.47974
1923.09 71.2574 6.85869
2999.51 77.2712 8.32335
1702.88 59.9272 6.40203
1692.15 52.5936 5.54373
1770.14 48.2398 5.23785
1507.87 64.451 6.63767
2154.24 54.8637 6.26827
1882.62 63.8437 6.78555
1336.76 51.3867 5.48294
1790.97 48.7858 5.39356
2012.32 77.845 8.32728
1267.66 45.1445 5.55552
1850.23 80.2545 8.7988
1830.05 59.6982 7.06343
1474.13 54.6504 6.64536
1323.24 47.1142 5.47632
2363.31 84.7108 10.0823
1593.74 72.4351 8.76875
1678.4 72.2383 9.354
1851.25 60.1769 6.72008
1094.13 80.7509 9.99814
1249.72 52.4169 7.0393
1497.59 62.8341 8.14729
1386.88 50.8287 6.83924
1755.87 57.1942 7.91446
1553.9 45.2421 6.05356
2168.12 55.1581 7.48614
1791.88 43.4324 5.61037
2127.44 44.1494 6.03697
1691.12 49.8382 7.68673
2394.02 61.9893 9.07928
2054.91 57.222 7.95776
1314.52 51.9747 8.05878
2201.21 50.6091 7.75197
1847.62 64.5212 9.12914
1555.45 60.0373 9.19613
2290.31 81.074 12.2266
1250.11 33.6958 5.35497
1553.54 51.8934 7.90249
1443.12 66.5092 10.1388
1145.07 77.3831 13.0931
1358.37 70.8048 12.2754
2289.65 66.098 10.959
2485.3 63.239 10.871
2112.02 49.156 8.00811
1126.03 50.4769 8.88402
1488.98 57.0439 10.1344
1412.12 62.2302 10.4883
1524.13 36.1696 6.14517
1484.94 56.2972 9.78418
1789.71 68.3306 11.3825
1773.03 38.4919 6.93954
2831.74 59.0427 11.1683
2301.07 63.2748 11.6312
1382.69 49.3858 9.18614
1956.64 45.7349 8.28236
1963.93 60.5946 11.7745
1662.03 57.1337 10.3149
1812.57 50.3826 9.56914
1878.81 42.0735 8.32106
1118.59 28.7865 5.74981
2631.52 55.9058 12.3582
2305.41 39.1258 8.59385
1649.94 46.7004 9.41046
2105.06 55.1022 11.2952
1680.71 59.1798 12.0491
1848.54 46.0638 9.45704
1359.29 46.6053 10.0628
2265.53 41.9835 7.81867
1647.34 56.9546 11.8669
1217.11 61.5979 12.2486
2649.4 61.9021 13.4664
1581.01 53.5025 11.3825
1573.78 63.033 13.3995
1932.93 38.8827 10.0222
1895.07 45.0805 10.4196
1405.02 57.0651 13.7056
1694.08 46.5574 10.4308
1426.36 51.3594 11.6951
1737.96 45.2981 10.536
2175.28 51.3169 11.7853
1315 60.2947 13.4628
1731.73 33.8476 7.35365
964.63 50.2049 11.4568
989.627 50.327 12.7259
994.36 48.5109 12.9147
1695.56 51.4925 13.0528
1433.91 51.234 11.343
911.617 57.7339 15.154
1331.48 69.8667 17.9206
1464.83 47.6402 12.2376
890.809 48.4979 12.6652
1332.13 45.1522 10.8749
1105.06 41.7842 10.5776
1148.59 42.4522 11.2532
1591.71 59.0156 14.7103
1533.99 57.4814 14.7399
1813.41 63.8813 16.741
1600.59 44.5911 13.9012
1123.88 45.5429 12.0271
1033.79 43.905 11.9583
1032.05 60.8067 17.755
1333.95 53.5473 14.4797
1353.26 41.0043 10.4789
1467.93 29.5856 9.21239
1970.38 53.2717 14.4182
1334.37 28.6629 8.9248
1928.67 57.9537 15.7969
997.798 38.131 10.9811
1373.87 38.4344 11.3255
1221.54 52.1552 16.1834
836.256 38.3314 10.5949
1248.38 59.024 18.2469
963.216 43.4442 13.7182
839.646 52.2184 16.5291
1031.34 44.1726 14.2768
895.055 51.1272 16.7961
700.319 45.9373 15.2993
1084.91 50.2716 15.5075
647.218 48.4776 14.8788
765.32 30.6013 9.2654
1009.05 44.4656 14.6327
498.77 40.4935 14.484
666.989 29.5618 11.4153
586.604 34.8474 12.1212
601.262 40.7057 13.2038
465.52 29.9111 10.0427
565.177 34.4145 11.8907
534.654 38.3447 14.1267
535.845 46.4232 14.9507
567.001 32.5556 12.1664
579.064 48.6553 16.3482
764.904 64.485 22.249
542.809 43.9919 16.2685
361.455 44.5662 15.9976
548.547 39.4505 13.4861
484.583 35.6177 15.3178
395.689 38.4797 14.0394
449.91 45.4562 15.84
877.62 51.8548 20.0825
592.26 47.0778 17.599
453.659 32.1835 11.4221
656.835 30.9261 11.9317
702.51 34.2441 12.5617
301.726 45.3762 18.6902
519.647 43.9186 15.5263
607.536 33.2216 12.7675
467.983 48.0619 19.6562
403.815 36.9771 14.0909
300.933 23.2747 9.54475
500.46 47.0076 19.8885
274.581 31.1438 11.7074
230.195 37.7554 14.2063
390.333 39.828 15.6292
301.878 54.9745 23.1101
340.469 38.8629 15.2941
312.818 38.2917 17.44
408.755 29.2279 12.6337
340.775 38.7826 15.8217
294.842 39.0539 16.1797
292.329 47.3904 19.4357
345.73 45.424 18.918
370.667 36.4137 15.7937
325.622 43.0129 18.1464
337.972 28.8055 14.3216
502.106 45.7131 18.3081
181.001 30.4315 11.8119
376.391 32.0552 13.8288
485.013 36.7496 16.6831
229.044 33.2727 16.371
502.254 61.4969 26.2434
479.089 44.8091 20.1573
262.522 44.5616 23.7477
480.178 26.5814 10.5414
411.655 31.1423 13.8888
245.937 24.068 11.7239
400.472 35.0029 16.9973
518.393 25.0653 10.8121
338.936 33.8614 16.0635
466.013 23.1885 11.4592
560.492 44.2546 21.9392
406.38 30.714 13.2732
562.648 43.8002 21.1012
492.021 35.9953 18.8698
465.069 33.1326 15.4124
408.54 25.208 13.1772
368.324 29.7624 13.7868
304.088 43.5913 22.104
297.145 25.9802 11.0195
399.21 37.6885 18.6578
461.33 30.5498 17.3483
639.049 26.5555 13.4514
489.491 58.6141 29.4379
576.414 46.6482 25.997
535.007 30.1244 14.7709
517.628 40.4582 18.9794
533.674 31.0087 16.4197
361.844 30.837 15.4871
565.937 41.3991 20.6339
444.556 31.7602 18.3497
494.825 31.3129 16.4152
500.132 33.2351 17.7865
454.597 34.9256 20.4818
515.142 34.2993 18.2157
474.149 31.7923 16.7379
317.279 32.7128 18.9562
645.373 29.2376 16.0457
495.059 33.2835 20.0104
792.486 35.9882 19.0267
613.905 30.5211 18.0971
546.161 33.9876 19.9618
542.725 31.6432 18.0652
527.365 23.2349 13.5
498.207 38.4352 20.6951
670.676 29.4622 19.0716
751.31 41.4103 20.6344
378.742 32.248 19.645
658.086 33.5439 22.5894
366.35 35.223 19.2195
539.467 31.2913 22.2191
691.83 36.9044 18.8729
437.405 31.976 22.506
660.751 30.6815 17.5999
395.6 27.3425 16.8768
654.809 34.9645 22.6388
513.926 34.297 20.7887
555.112 47.687 29.0462
761.589 19.7805 11.1103
572.365 31.1609 18.8345
548.251 27.3245 17.1469
396.174 22.7741 15.5198
561.205 55.4064 32.6913
533.114 30.4766 21.1562
744.387 33.4519 18.2885
504.516 35.2329 22.2221
815.665 55.2781 32.8205
899.229 34.2247 22.6965
488.112 19.1958 12.4144
922.373 42.9731 26.1718
546.341 37.046 24.4262
483.816 58.1925 40.1145
493.618 35.0012 21.631
520.912 29.2172 23.0899
498.471 34.48 22.7118
591.836 28.2712 20.7301
1005.29 29.6013 18.3181
699.754 35.5478 21.9277
459.544 29.9873 20.2913
463.937 26.4177 19.3539
606.311 24.9275 18.9808
479.438 23.0014 14.776
435.757 32.4573 21.951
823.715 20.1174 15.7227
476.693 45.5105 28.7352
398.788 31.3144 23.1637
783.501 29.4548 22.3686
346.523 40.5007 31.2035
628.822 21.89 14.2253
550.151 36.6949 21.6648
387.083 50.3694 37.3175
500.222 25.1822 17.658
453.171 35.8749 25.485
396.458 36.2249 23.9823
469.357 36.0459 28.9375
425.38 30.2218 23.2038
241.77 38.9012 26.304
233.113 24.34 17.5186
407.154 30.217 21.7897
182.111 21.5196 17.2622
316.381 35.1824 26.9153
372.02 34.7838 26.1057
346.147 36.0292 26.0756
183.001 39.2602 34.5862
346.681 25.2902 19.6907
257.565 39.725 29.7179
292.795 26.9187 19.4687
368.058 26.5571 20.2572
238.187 30.9836 25.1271
271.94 27.6753 23.8201
362.705 26.9851 19.0345
206.496 27.1687 23.5258
250.656 39.5745 33.8543
268.833 31.2116 24.4215
194.461 35.0015 25.3482
196.371 26.0472 19.5526
153.196 33.4638 26.456
178.107 33.3509 24.7225
311.498 38.2156 34.7608
268.368 38.8526 32.8341
243.126 28.7903 29.0365
270.304 22.7423 16.6386
170.922 29.9357 23.7761
161.299 29.5439 27.5902
270.27 28.3374 24.9661
298.155 30.279 28.7594
236.406 19.5045 17.2776
249.347 40.0559 28.1172
323.958 26.461 23.4964
184.034 29.0245 22.3159
167.924 23.5723 25.9709
297.433 24.9432 20.8589
198.792 27.9246 20.8937
189.006 38.6441 28.2675
229.158 29.0357 26.2724
268.098 27.7406 23.7521
149.693 29.2668 24.9861
171.158 26.1119 24.8926
239.228 18.1352 16.8046
125.761 29.2403 26.868
179.709 22.6406 21.9083
229.101 30.5639 25.9917
174.607 33.2629 27.7635
198.438 17.5477 18.7828
177.786 22.8253 22.7904
197.538 30.5664 32.2405
189.669 32.0759 26.8617
206.403 39.4578 31.0705
161.091 21.4855 17.7741
108.097 23.52 25.3087
239.794 53.0712 44.9271
140.516 35.5051 34.306
224.683 23.3122 20.0833
161.214 30.8026 32.0663
139.681 31.3586 30.7224
201.436 21.5362 19.3292
143.121 30.2405 28.7877
134.76 24.5524 19.6381
193.709 41.4589 41.5265
108.419 26.2697 26.4068
176.504 29.7175 28.459
229.853 14.0882 13.3128
269.338 32.2328 29.4738
292.967 34.1002 32.2065
171.513 28.2554 31.3963
171.643 35.7794 33.8874
169.115 22.2676 24.3922
223.414 36.1624 29.2092
185.092 32.2517 35.2535
252.74 32.7355 32.0195
244.166 20.9052 22.3333
317.965 26.8301 27.7933
331.221 22.408 24.5809
198.161 37.0453 32.1851
317.335 27.8432 30.4002
251.095 24.3606 21.6439
203.864 27.5919 35.5507
255.854 24.1448 27.1384
298.732 19.8135 19.5988
234.4 28.5012 24.9679
361.724 26.8145 25.1673
393.894 27.8376 27.9803
189.862 29.2606 30.0194
249.843 32.0205 39.3853
396.725 28.9095 26.0614
331.678 31.9829 34.9042
194.958 22.3203 26.5345
352.573 27.1019 27.1663
349.39 19.7212 22.1769
163.451 14.8473 16.5139
305.265 26.86 26.2617
207.826 28.0384 31.2939
209.375 26.3957 27.2058
260.163 29.6517 32.7391
268.636 25.3387 31.056
230.135 32.9304 32.8903
267.389 40.6197 45.2453
228.505 23.4686 24.8363
275.237 28.219 38.505
396.241 22.1734 24.0548
161.533 22.6846 24.8968
272.718 27.3295 27.0028
209.327 21.1236 19.9051
179.612 28.3836 30.5824
178.437 19.821 26.6556
342.183 27.1193 29.4964
332.071 39.5133 44.0844
213.384 19.6723 27.068
128.031 20.0461 26.3677
259.21 16.7619 23.0495
200.772 32.5929 34.4101
249.499 31.3103 33.4009
214.002 23.0606 26.8857
247.885 21.3493 24.359
287.868 16.1992 19.8462
321.608 16.7984 25.4451
403.209 34.1905 38.3304
351.104 27.228 33.4163
268.763 28.0595 28.9753
189.447 20.1655 22.5633
198.284 33.8454 35.0803
324.845 33.9605 38.0096
368.392 25.1732 30.6231
341.794 28.0678 32.842
489.202 16.3013 21.3447
319.249 23.625 30.6739
358.174 27.1987 36.9542
377.293 25.6284 27.387
280.674 22.1705 29.8025
252.736 30.9302 40.3284
310.263 16.4988 23.9085
317.073 24.3708 32.2053
200.622 20.3931 25.2022
238.556 27.1865 32.674
275.348 17.2998 25.664
148.591 15.9077 23.7125
190.747 30.1186 33.1298
265.93 23.4405 33.546
144.854 14.98 27.1282
202.854 26.0966 26.2759
363.381 23.8586 34.388
125.184 19.9558 21.1362
273.912 14.6794 18.9383
197.471 21.6715 33.3763
122.26 31.9754 39.3471
197.678 19.5506 31.9574
177.742 20.9546 21.674
144.412 19.5576 24.782
187.445 25.2225 26.4421
131.237 18.4972 28.9976
118.096 23.1525 31.5201
182.51 23.1223 29.8437
143.264 21.6693 39.3603
133.716 31.1244 38.8104
152.567 21.9772 32.5912
120.676 28.6476 35.2347
189.163 17.5856 25.5067
111.931 30.3722 42.1036
282.001 28.1559 37.3545
230.535 28.9598 39.8188
193.244 23.0695 33.7501
369.265 19.9003 20.8587
237.955 33.973 49.655
180.89 23.4977 36.7223
251.571 33.3641 40.0318
287.833 16.9475 25.9083
249.896 20.2454 27.5906
242.012 24.4272 37.5276
179.877 19.3277 21.474
147.732 20.2872 31.7689
140.537 16.8703 25.9296
97.5418 22.2129 28.6172
122.393 28.5765 47.2494
115.56 23.6924 32.1119
76.6302 22.4148 30.4963
94.0677 20.834 30.8499
102.126 18.5853 28.8093
114.5 16.022 20.1735
64.2794 17.2326 25.7047
71.5098 24.3531 35.4424
76.0689 20.1196 29.9436
66.6513 23.1655 31.8087
61.8383 23.6275 34.5469
120.821 25.1467 30.3464
86.7229 38.1895 58.2963
69.3722 20.7693 30.191
100.381 24.9195 32.8406
123.849 21.2703 29.2526
44.6308 21.8193 34.2055
133.354 25.8848 38.7776
162.007 20.1535 31.6184
74.1282 23.8676 33.1785
142.121 16.1901 26.362
114.324 29.063 47.7666
73.0781 25.6563 31.6032
121.715 22.7968 39.5183
102.662 22.1519 31.3679
88.7072 22.1935 38.772
117.398 19.9805 27.8937
121.287 31.6007 42.2311
79.6778 14.2664 26.2967
106.295 21.307 37.8524
99.7365 25.9093 40.1753
91.8201 22.5632 33.4465
129.044 27.3784 38.3776
88.5571 20.8948 35.2743
81.7291 24.6209 39.1678
106.691 21.5654 31.685
86.0132 21.3481 38.2455
123.944 18.3 35.3712
110.29 27.9396 37.9468
113.413 25.1061 40.886
106.688 28.3974 40.5756
125.384 23.1289 43.779
201.355 30.0385 39.9406
133.225 25.714 45.4437
133.884 15.4859 22.3869
150.171 18.0126 40.683
155.349 24.902 36.8616
151.376 21.5705 33.2536
194.736 18.1454 27.4409
143.181 24.6276 46.0147
158.716 23.5968 31.8138
191.921 28.5314 37.3201
103.515 22.2573 36.5882
138.338 18.6048 36.7764
187.105 25.7584 42.157
203.279 24.4532 42.8677
199.579 34.6961 50.3799
149.328 23.7812 41.1784
116.3 22.451 39.3872
176.986 19.8823 28.9259
131.586 23.8988 40.019
166.492 22.9635 35.5454
221.035 20.673 38.7631
130.269 18.3466 29.253
193.135 24.0256 38.9465
124.405 14.5634 29.1071
195.61 19.685 34.4998
182.889 24.4737 32.103
111.786 24.3331 46.5647
216.245 25.2761 42.7806
119.391 22.6976 35.8705
154.389 28.3084 47.3333
150.281 22.0521 49.931
191.214 22.8253 48.7039
191.054 28.4546 40.5169
210.3 19.278 35.9348
150.549 18.6873 25.1808
129.005 20.3056 33.584
124.408 22.8258 36.0375
183.295 22.8673 39.7827
262.378 29.7851 45.9946
173.79 22.5784 46.1221
204.546 13.9341 30.4735
326.814 29.3287 55.2412
158.498 28.1842 51.1547
252.253 25.167 40.8732
164.126 25.8036 53.0602
150.409 27.0527 47.2813
155.294 19.1016 40.7206
200.139 28.7506 42.007
205.789 28.5147 51.4737
220.104 32.6258 55.047
351.963 19.3242 34.8951
230.479 20.9665 38.7167
157.917 17.8534 37.0417
156.317 29.4691 47.4681
165.718 22.0166 43.8082
240.442 18.1918 38.7389
122.342 30.096 46.1755
312.705 11.5122 25.5265
239.512 22.6115 39.7857
153.84 12.0518 28.6169
270.134 17.489 42.8569
154.468 31.8898 58.2771
269.928 13.9763 25.0424
217.398 26.717 53.1353
122.499 16.9297 30.7209
228.472 22.3944 42.3988
133.169 19.9708 33.3612
173.447 13.4193 28.4886
155.955 20.7305 37.9239
180.05 26.8613 41.3531
82.2809 18.1817 35.1151
101.464 24.5503 46.5122
155.447 21.1474 38.4963
107.722 24.6186 43.8129
137.103 22.702 51.821
142.719 30.0214 49.3703
172.859 17.0386 31.1043
88.0603 22.2527 44.4425
157.58 26.9919 50.3882
148.832 19.4242 39.6128
171.005 36.6167 64.5689
162.281 20.9662 42.9681
105.901 20.5885 44.9297
162.8 29.7043 47.7169
171.536 15.6299 31.8961
145.757 23.4871 42.0496
123.335 19.9003 44.9921
151.056 13.8628 31.5324
102.601 16.8009 34.1469
78.4275 26.1833 54.1225
118.758 26.8868 52.0061
105.554 27.1369 49.8525
185.507 17.4751 39.1708
143.632 29.9198 42.4863
186.62 14.0403 38.2052
138.659 18.5025 39.8781
117.509 22.5842 47.6968
85.3329 20.9433 43.4565
188.32 23.6034 58.0343
109.484 27.5077 58.4185
138.928 27.6308 51.8166
191.651 19.7151 32.4747
132.967 17.8825 37.6395
94.5379 21.4699 38.6384
121.827 23.5182 43.0658
174.791 15.1126 34.2952
99.4483 30.0098 55.5879
101.812 19.3647 39.6414
158.315 17.21 45.3515
157.702 19.2246 45.1789
90.4653 18.3851 32.3741
122.824 17.8151 39.1921
185.361 21.5673 42.473
57.5328 17.1986 45.2065
96.9337 18.7043 34.4918
119.063 18.8922 34.0997
53.9881 13.781 32.0265
103.137 11.31 29.3712
103.745 24.4308 43.8506
115.643 22.3744 44.5122
65.8698 21.2514 42.333
97.8381 14.4889 41.6553
82.0635 23.82 47.2884
63.326 17.0922 39.379
100.403 14.6217 36.2847
68.6468 18.2481 36.3985
54.5028 23.0629 47.2634
72.3824 15.2443 32.8951
58.5713 15.5673 47.2564
73.6913 23.2425 39.2579
66.5702 15.4557 34.3072
55.8065 16.1177 42.4744
87.4044 27.2461 50.7496
62.02 22.9018 48.9871
58.4056 12.3826 28.6258
95.6464 12.8687 25.7554
78.7449 12.8142 29.493
58.1618 25.568 50.8382
97.7598 16.8943 30.6323
68.1811 20.6912 39.528
55.5342 15.5834 44.2423
115.58 21.1469 44.7423
70.5491 17.0618 43.5755
80.76 17.6962 33.281
98.0295 22.2309 41.6232
92.026 15.0804 33.7391
98.3974 15.9321 44.1157
74.6235 16.5648 34.7196
103.589 22.073 50.4056
84.0395 16.6091 28.8847
97.408 22.3232 56.9418
88.7958 22.1595 52.051
95.4412 24.3243 64.6009
88.8192 20.5802 50.211
123.21 23.1943 52.2571
111.178 16.8086 38.5624
95.4948 22.8584 36.9242
109.307 14.5562 34.0229
144.217 22.866 52.8361
119.419 17.948 37.3565
109.782 20.1827 39.6083
111.193 20.928 57.0186
90.676 15.6811 38.2625
70.2542 23.0756 52.6267
106.249 19.1114 43.6971
60.5833 19.7978 48.3401
93.5728 22.1474 53.6114
99.4584 24.5929 64.0882
97.2886 24.4443 57.9584
72.2712 17.6582 46.5463
137.019 19.1303 40.9271
108.445 16.3092 43.4953
129.179 23.8352 44.3144
137.686 19.0862 47.1428
89.2544 19.3943 48.8781
118.074 25.241 53.6653
63.8458 19.4109 60.9419
100.501 25.6603 48.4798
69.0558 22.4583 46.4207
126.838 18.014 37.3804
119.185 14.1983 31.8972
113.733 20.1745 50.1732
56.4581 16.0399 37.5853
106.935 20.813 50.5954
87.5606 14.706 44.221
93.4869 19.2945 44.5047
110.917 22.5314 45.9572
121.332 24.5075 51.9139
131.453 21.6091 73.3183
166.421 19.7579 43.2211
180.684 16.6032 34.87
163.595 13.3496 35.0616
125.828 22.6206 49.0519
122.872 23.2808 55.5592
124.177 21.58 44.2944
166.071 15.868 39.1962
167.456 18.7498 45.6716
163.642 14.1043 32.7436
274.786 15.5922 33.2552
135.588 16.1873 48.3977
179.859 22.5877 65.4742
189.765 23.0077 47.5472
140.092 16.5553 39.4747
131.809 15.4763 34.0781
190.527 17.6611 45.7537
172.302 17.5442 38.8889
95.676 31.5741 93.9726
126.96 24.5778 68.7961
133.516 14.6681 49.9516
93.6324 20.917 74.8024
99.6948 30.975 51.0306
112.028 26.1206 60.7413
85.9645 21.4394 44.8064
98.6919 16.9105 51.2115
190.622 18.2271 38.2753
98.4006 20.7651 58.1895
171.661 16.0377 55.0311
127.131 19.8032 35.3384
62.8729 16.5859 45.6669
182.737 21.4587 50.3791
109.598 16.8383 42.2633
93.9992 25.8106 74.9391
155.731 23.8605 53.1534
126.709 26.2735 45.9555
92.66 27.9888 55.6494
106.437 11.024 45.7217
138.021 21.8973 49.7302
142.481 15.5137 39.365
91.5786 20.76 56.3737
83.1017 17.5284 42.5068
217.364 23.7248 61.6108
112.208 18.6951 48.5073
145.866 18.17 45.4372
255.442 15.838 49.4087
235.774 24.0755 57.8732
262.876 15.2536 51.446
171.566 18.9944 35.4538
170.725 16.8623 43.8041
193.234 23.546 60.9702
236.04 11.6667 35.5295
233.037 20.0907 53.6206
206.437 15.2974 44.1849
124.117 19.127 55.4296
115.964 19.0309 42.5108
145.725 14.9597 49.7866
88.2409 17.8268 46.1981
52.1906 26.5125 53.9076
99.5279 13.2648 35.2043
92.6244 15.7198 32.4593
89.7462 17.5715 52.4458
63.7774 14.4511 36.4938
83.5593 18.2603 53.4369
86.51 20.9597 59.4576
52.0919 12.2397 48.0797
73.7029 15.327 42.3569
99.9244 25.7511 47.2579
55.904 15.1836 45.9478
76.8948 13.5399 42.5673
50.2241 16.6957 58.4531
89.9601 21.4403 47.5737
51.7569 19.438 49.6639
44.0835 22.8308 70.0694
70.7733 19.5756 50.5724
41.9362 27.8249 77.0794
55.6844 18.2422 54.1118
60.1985 19.9355 58.6163
92.6028 25.7486 65.6977
44.667 27.0767 63.4437
40.3367 17.6584 60.7617
89.3324 16.4686 32.7865
47.2602 16.3566 39.41
48.5278 24.1119 67.5448
77.7252 19.122 57.9618
90.8111 21.3668 48.7574
49.6269 17.4999 60.0468
53.8076 17.0617 44.1947
98.5302 15.1351 50.3179
63.1455 21.1774 41.5835
69.9487 20.7336 51.7161
76.3268 17.3309 56.1848
91.0271 18.1154 40.6176
71.8994 16.0534 51.681
69.0178 22.1641 53.9814
97.118 19.7455 63.0767
48.2902 20.4729 52.0844
93.815 19.9405 60.2619
66.5303 18.8432 48.6202
52.7329 16.0134 38.9491
121.76 16.5522 53.1698
74.7961 13.9096 33.4204
62.4327 16.3342 52.7258
74.6387 17.7496 53.0274
113.284 20.1672 52.9421
51.8853 29.3367 80.4625
59.3955 16.0208 40.2074
115.209 15.9784 54.791
57.0987 17.7166 46.6533
68.9718 14.7909 55.8567
45.0656 17.0491 45.4207
59.0141 21.0171 48.5785
84.1807 14.9647 54.5009
65.1233 13.8465 31.5671
69.4094 18.505 54.2025
79.2184 25.6259 73.0955
66.0925 21.5092 78.8587
74.7902 20.7576 80.7153
63.7208 17.2366 45.9157
52.4709 27.0402 44.4559
86.9317 19.552 56.194
60.3717 17.383 49.0413
89.6918 13.4264 39.9598
55.8079 22.4912 65.6129
67.5767 20.4597 57.1941
112.168 18.3095 57.1976
51.6064 11.3779 42.2689
97.0232 18.7693 42.7368
53.4178 17.7416 60.3805
69.3962 17.1179 51.2979
81.3893 19.3477 58.5031
100.592 19.1029 56.0271
86.0831 16.8713 41.5205
114.945 14.112 59.4767
72.4034 19.9652 52.5386
60.2119 16.2425 47.9852
74.5059 29.3785 79.0991
94.5348 19.4478 61.0761
128.274 32.8225 85.7535
108.851 19.9968 86.2278
79.3185 16.0901 45.4111
163.956 26.8867 56.5452
81.1851 19.8108 58.7849
97.9252 19.056 61.674
90.2108 17.4722 55.201
81.1255 18.9843 73.9349
76.3013 22.285 47.5128
74.5674 26.6016 73.0085
136.464 16.9571 70.1633
115.452 28.6853 69.909
162.501 18.6549 53.0065
126.892 18.7432 67.7937
93.7332 17.4066 54.8008
76.4755 21.0259 50.9635
79.9116 16.9284 47.3416
131.082 14.7831 47.5741
79.0786 16.5171 48.9827
163.371 17.7711 73.7739
160.265 14.2358 44.0432
95.0841 29.2208 63.6452
156.077 16.2 71.155
98.0559 22.4416 52.8581
150.953 19.7509 81.013
172.866 18.0763 45.2495
97.0772 16.2954 51.4786
147.175 16.6133 44.1973
79.9892 17.2959 48.6746
137.989 14.5122 56.3842
100.025 17.3307 53.6128
78.7367 15.1583 52.173
92.8465 12.6398 33.4306
76.1793 12.8382 42.931
67.9949 20.7703 49.8088
87.019 17.605 43.6199
161.635 14.9939 51.5615
62.9815 13.2645 48.0366
140.636 15.9976 53.3103
107.257 19.8954 60.2045
122.34 11.7756 51.6889
94.5696 14.9252 58.1391
74.1447 21.5893 77.8247
180.794 21.9399 58.2355
88.287 26.4839 70.5906
85.8067 17.8759 46.7445
116.025 13.514 42.3762
138.892 16.8018 46.923
89.8317 14.4295 32.9419
96.1886 14.3291 56.7077
171.626 17.7498 46.8999
59.5266 22.6947 74.8626
98.6048 19.518 50.6176
124.745 23.6178 78.8205
175.728 22.6386 74.68
134.484 16.0674 66.837
160.496 25.7969 66.5327
112.887 17.3394 86.3743
126.984 16.4139 41.1474
63.1713 21.8302 61.3336
90.1675 15.1572 54.4168
131.025 24.7116 80.9477
129.764 26.7342 90.8803
103.715 12.0434 53.6289
130.788 26.3943 62.9506
110.802 26.1736 92.7484
77.495 17.7387 57.097
102.353 17.5749 35.984
118.499 23.8447 56.0129
62.1855 19.7471 110.504
65.1231 18.2395 40.1017
96.7434 17.1543 64.909
55.1059 19.4152 53.2175
49.8381 23.1 83.6548
80.1452 14.2351 39.7243
44.8191 13.9599 41.7646
44.3904 14.4427 40.2904
44.5699 12.8715 64.6991
42.4565 17.8933 87.5395
65.1029 22.6013 79.8823
52.1122 29.3282 49.1382
44.3622 28.1633 72.5385
50.9602 19.6567 67.8274
45.3957 17.8024 48.182
41.9737 15.6826 58.062
46.1664 13.7599 71.9253
54.4614 15.3638 38.7657
31.6223 12.8465 56.7526
41.8234 15.3902 52.6347
42.9626 14.9797 53.4139
52.1029 17.5803 70.9769
57.7166 22.8855 62.7026
52.4669 14.9435 35.1565
52.8435 17.1024 47.2393
43.3652 13.1573 40.3665
28.3769 10.4114 47.9716
48.1489 21.1915 56.2477
52.3183 22.7668 68.6065
35.6645 22.779 70.635
46.009 13.482 59.6035
48.0219 20.1988 76.2828
40.7589 16.5418 60.1529
42.5627 24.108 64.8864
58.4625 14.0606 56.301
44.6093 26.8006 86.2271
34.9082 20.3879 56.4044
56.7434 18.1535 87.9532
39.0185 25.6221 59.2811
48.9852 18.9536 48.9549
42.5992 15.3404 38.1769
48.216 15.4979 51.1727
54.9627 14.8256 41.8822
50.0967 18.9199 56.5697
45.0583 16.8936 76.5622
64.4258 9.96692 52.3228
63.3113 17.779 47.3549
61.7201 13.638 75.0788
74.724 20.2781 50.1121
51.0785 11.9204 38.5029
54.0575 10.8059 37.3885
62.6892 12.1277 63.1259
61.9885 10.588 36.8216
49.4394 18.8131 49.551
66.6847 17.495 87.3647
40.0313 21.7591 47.4659
30.1966 18.2644 69.1113
56.3786 12.1365 47.0173
24.8853 13.8598 42.9216
33.7728 18.3436 62.7924
34.3873 13.3492 39.0701
48.2157 12.5319 50.6087
37.0368 20.5051 65.1676
61.8025 15.892 43.9761
39.3958 10.2364 42.0206
44.9603 23.1804 66.1252
71.6885 13.647 49.3781
51.3311 13.7683 52.5081
53.4689 11.9862 35.4081
51.7368 13.7527 60.1084
68.0195 18.4929 38.7647
35.0424 25.3481 97.2559
77.4448 18.2612 115.245
102.405 22.7418 79.1627
57.775 37.0329 72.4943
43.5599 26.802 89.2059
70.0132 15.6962 56.5679
62.5463 13.1628 52.8434
66.9403 18.242 54.2332
51.9991 15.9431 56.7531
65.9274 20.2139 70.906
79.6371 19.1863 60.1381
101.058 17.9445 58.8541
88.6757 11.6369 62.1693
97.9396 21.3538 48.5137
95.7534 18.1295 77.7154
81.9969 25.068 65.5532
64.8133 14.4303 63.7364
103.058 15.3639 56.6054
104.381 12.4869 41.8202
95.2704 17.0449 47.6403
150.47 11.1592 51.9549
89.806 12.2272 47.0096
103.14 21.6934 66.0937
86.7453 8.96298 46.7561
82.1246 16.6182 50.4328
80.1644 18.1373 47.8193
73.6491 12.049 43.7223
94.9412 13.6146 56.3191
72.8293 24.2333 78.7312
79.295 24.4606 90.9896
72.3301 17.8488 85.6367
74.8818 23.898 69.5981
73.064 14.4017 70.346
67.7784 16.4805 70.2995
54.5287 27.1646 56.075
47.535 9.00484 44.2509
118.601 15.4147 50.5817
41.5347 15.0045 45.0926
67.8882 19.4292 54.1405
109.154 10.753 51.9878
40.4927 14.4156 60.4647
81.9095 17.5095 54.1023
65.8674 14.4613 44.6292
75.5605 14.7314 68.4404
93.2673 17.1366 44.5984
77.7947 16.9363 66.5922
90.1943 26.7029 59.5256
103.572 23.383 69.829
82.5207 17.7925 88.033
73.5389 13.7008 83.8236
89.8606 24.0944 59.9442
61.4813 15.5146 55.6763
128.4 18.0734 60.3391
84.2757 14.3461 42.7518
167.47 19.0069 71.0298
190.088 23.976 74.7293
163.345 19.1082 80.6484
296.2 15.4996 100.992
199.782 22.8244 68.1923
122.299 24.029 64.9605
192.928 16.606 50.9624
256.531 15.7162 60.4483
168.251 21.0595 78.5396
172.807 16.9961 76.8537
150.298 16.6743 66.1854
84.314 18.1797 57.2579
109.865 21.1352 82.251
67.6832 21.2739 65.5033
55.2432 19.8885 77.3485
70.3894 23.4518 94.446
70.185 15.7409 76.0073
96.5165 15.3697 73.922
71.6506 18.7595 49.5546
50.4262 15.8557 42.0519
55.4827 20.7494 70.9666
68.0987 15.9075 67.8397
51.5507 15.4843 53.1848
60.3791 24.5881 76.5526
41.1326 15.7474 51.7693
68.6744 22.3338 92.5628
41.1606 22.9556 91.9448
29.7096 12.1649 48.6274
57.727 15.7719 47.5592
33.8403 15.0091 48.4196
32.0588 13.4749 72.3276
37.2722 18.6891 63.3256
47.4742 15.969 57.0182
35.347 21.2313 77.6402
44.774 20.0652 89.4449
52.9185 20.463 64.2613
42.2051 20.999 74.5926
55.6525 16.2506 59.0763
31.2928 14.6525 73.4424
45.9524 28.2972 95.3432
52.639 21.3914 70.1918
62.9149 12.8145 51.5095
43.6409 20.729 75.004
50.3601 15.8046 47.2042
81.7131 13.8013 43.8167
49.3702 10.2892 41.4239
57.138 13.5756 67.8439
67.6442 13.2056 57.3648
47.743 25.6178 71.3646
49.917 19.7217 52.3231
54.1022 12.6904 55.9381
70.4102 16.7789 53.5383
46.7508 12.3235 68.8474
72.476 13.4767 47.7193
46.6258 13.9533 61.0136
29.4881 20.7626 61.5263
87.3595 15.4995 69.6925
40.9057 17.2089 57.4191
42.8401 20.7595 51.7598
64.5574 19.4021 83.0314
52.9372 19.2099 74.681
36.5591 13.1249 48.0495
45.1624 17.5887 81.407
77.7465 16.9844 45.2919
32.7845 16.782 64.2201
38.1251 21.664 87.1992
47.9837 13.763 51.9327
37.4434 15.6819 59.835
51.0229 14.6356 73.4247
35.8567 20.6656 63.4583
46.4552 18.3839 54.3107
41.2011 22.6734 98.1092
35.8445 21.2543 72.9733
33.363 14.713 45.5442
33.1248 14.9788 60.176
23.1895 12.9077 50.9941
50.6581 15.4877 66.5244
47.5743 12.8646 50.464
41.645 12.0889 55.8349
29.5018 18.1073 52.7467
28.0433 17.2642 70.7728
62.0407 17.6542 74.4919
38.5739 12.7288 43.2064
47.5254 14.7237 41.9886
52.2159 14.1549 66.5361
34.807 15.7622 52.5297
41.3979 15.102 63.7654
59.7691 21.5179 78.6394
48.1572 19.8032 64.2841
77.06 12.1817 51.5398
36.9654 15.2751 46.4657
32.8317 15.985 71.1862
48.3308 16.111 84.7084
63.9152 22.6074 72.3756
42.247 18.6073 54.0228
68.299 19.1826 71.614
52.8742 18.4743 66.123
71.2909 13.073 40.6018
54.5464 14.2122 70.0736
66.8555 15.0945 75
56.0493 21.0375 67.1223
38.5255 17.8661 58.1921
71.0247 34.0894 145.84
54.0937 15.9499 53.7632
78.7897 21.327 74.8356
76.2451 13.5408 57.3866
95.1094 14.5562 45.8097
79.4996 20.4466 79.4622
54.6774 16.0437 71.0124
69.4497 14.8364 65.1417
56.4928 17.151 57.6758
87.0208 17.1483 58.5726
72.1324 15.7003 71.784
109.889 17.9687 67.4562
90.257 19.3529 79.6825
48.6921 17.3427 58.0712
82.6446 13.6029 54.511
63.2009 14.4095 66.0708
89.6736 16.2558 73.455
88.597 23.599 77.2237
62.5958 16.7182 45.3216
97.764 17.0166 70.1019
43.5256 20.7157 94.2761
63.2822 20.8494 53.2371
77.3544 10.1092 62.1428
52.0391 16.1172 81.2408
47.9177 27.0965 68.527
52.9229 17.7664 56.5627
61.8496 19.4824 72.9621
42.2808 14.7761 48.5619
98.336 8.89429 55.933
54.0291 19.2075 85.2796
95.0153 23.2487 62.0083
94.8879 10.2545 46.0855
82.4377 10.6535 65.0427
86.7192 14.7771 42.5076
64.2747 12.3925 34.5798
120.88 11.4742 56.851
78.1512 20.2052 88.0989
72.1182 19.9595 75.57
112.133 17.9622 78.5184
103.671 15.9026 63.2217
108.518 17.8607 71.6852
76.4834 16.3579 43.8677
118.064 11.2536 41.8693
47.9521 14.7726 74.8441
81.1484 16.8391 89.4321
94.1944 22.5785 69.2271
128.419 17.8716 73.5653
113.066 18.5667 68.5708
138.817 16.0123 42.0632
93.1895 12.9432 39.2869
82.8573 12.1778 55.7102
65.2759 16.202 64.7143
82.3704 16.8382 79.0835
107.115 22.5899 96.2455
91.7241 27.5788 83.1144
91.679 25.4601 86.137
131.326 14.6726 67.1709
76.5588 14.5298 67.9995
70.6918 15.9218 57.4497
92.7686 12.51 54.1526
105.085 16.4087 57.9538
70.0898 16.2226 62.5747
72.3158 16.9776 46.5228
107.084 15.6121 65.3834
56.242 14.2803 73.4188
53.3993 18.5901 57.4697
81.8789 12.25 89.409
41.5959 16.8881 61.5333
52.8098 15.5758 90.5874
46.7397 25.5104 77.1281
37.6315 24.3734 88.7402
51.7974 14.0723 55.7608
54.34 20.9529 69.9721
47.6792 19.3806 90.9494
49.7386 13.5052 72.3846
52.2834 19.4966 69.9938
51.0048 10.7652 44.9591
70.7871 15.7356 82.1899
37.8572 21.6865 77.4201
34.3525 19.162 42.4991
52.3974 10.7482 47.7917
41.1003 13.4494 50.9077
44.9271 12.9214 28.3108
63.0972 9.81723 46.0947
53.9825 13.9292 60.6798
56.9226 11.3416 83.0035
40.4117 23.4817 53.5578
42.316 20.6377 75.8924
56.2673 13.1829 59.2175
63.0162 14.8695 39.2404
52.8007 16.8589 85.8987
70.0508 21.5504 50.7497
61.2188 19.8598 60.9864
40.6848 15.87 68.5993
51.422 14.8666 47.6612
47.6132 18.6595 75.8919
59.6029 21.5153 79.4623
40.3336 17.0732 57.8351
41.6207 17.5829 100.898
70.3862 21.6339 77.9024
48.7064 19.1402 82.0469
42.8402 20.4209 67.9162
40.7501 15.5654 51.2086
64.2031 11.1847 78.7283
42.6156 18.7497 75.8922
37.7018 15.3234 66.3328
53.2551 22.9241 77.5663
48.7295 18.3216 65.6249
40.278 27.2107 99.5805
66.0356 15.5199 105.11
37.0683 22.9824 51.0981
44.0241 15.2976 67.4928
52.4692 17.2381 51.8747
35.8314 13.588 71.3782
50.8335 21.322 74.7264
59.6083 20.173 77.1165
23.3701 12.3808 50.5705
35.6073 18.9061 70.6429
52.1359 20.3971 103.598
21.3038 12.4654 92.3529
37.8756 21.7246 59.4855
38.6797 19.9048 62.8097
43.1892 18.6587 53.2952
27.5079 15.5933 66.3173
40.728 14.0452 64.1848
51.3481 15.6241 50.5709
34.932 9.52048 78.8461
36.1362 20.5238 58.8902
56.3135 20.7491 58.484
56.3671 13.5592 43.3712
30.798 10.1668 61.0255
49.5415 15.4338 73.6937
54.4481 24.4056 107.188
64.5201 16.9504 60.0359
47.9411 19.4362 61.0922
47.3168 10.7298 49.8381
34.3306 13.8081 41.0511
53.7484 13.9276 47.397
43.8217 17.8546 77.6478
46.2814 14.7039 56.9178
37.811 13.9964 51.6152
43.2553 12.6368 55.8386
42.2323 20.8888 84.2603
60.5612 19.0493 81.8564
53.9235 13.3682 52.1261
67.9933 14.4964 51.1934
54.4746 16.4266 50.1947
52.6075 8.18979 59.2242
53.4092 20.5385 54.1487
71.6157 16.7617 98.7199
76.922 18.6221 71.4334
70.5919 17.669 53.9585
97.8524 8.91422 56.7152
51.6929 21.5196 68.2774
76.782 16.4894 70.409
65.3524 22.9873 82.3339
58.0446 17.4524 53.4991
62.7395 12.1063 44.4397
55.2025 16.6521 85.2723
85.7112 15.7934 45.1908
51.948 10.8001 40.0712
61.9523 10.5858 39.2043
57.1525 16.0949 60.3027
47.243 15.7701 82.1476
50.9659 21.7786 75.0734
47.3253 14.0991 48.8013
40.5108 19.4887 93.4128
37.6236 14.0138 61.3596
78.0339 25.4248 96.7384
30.5888 13.4582 99.4134
48.0397 20.6452 53.8656
87.0327 21.9112 62.4043
36.065 14.7829 104.435
56.6933 24.1001 65.4697
51.983 12.4281 70.925
69.9231 22.8048 60.1612
77.027 17.4181 99.0338
62.7935 20.5128 60.6617
60.8984 18.8761 63.8777
108.297 12.9307 48.225
67.805 21.8451 94.4163
62.0517 21.2067 93.8156
77.3186 23.4378 78.3683
61.7294 20.8617 102.723
105.11 12.4916 69.9741
100.285 20.9233 77.1558
167.609 16.9828 55.8348
174.226 17.7613 109.708
184.975 22.1524 66.1326
288.767 18.644 72.2217
210.882 17.0246 51.2382
109.796 0 0