# pn-170911/CsIIF-av-CsIIF-1280-1959.psd
# Power spectrum* (dif=0,1,2) (really just |FT|^2)
# NOTE: only the first half! (symmetric)
# weeks: 1280-1959
# 83 clock-days, 625 excluded
# PSD: 1441
16912.3 0.639216 0.0939953
1.359e+06 29.3722 0.249477
3.61153e+06 63.2574 0.268448
1.42834e+06 51.4368 0.226868
701828 49.5737 0.253832
398669 44.0161 0.273653
312138 44.7755 0.229719
254327 48.9235 0.279505
182842 50.5626 0.276649
155898 48.0826 0.288272
131410 48.4005 0.291192
98516.6 48.0173 0.27439
77814.1 40.3825 0.28911
70020.7 50.5227 0.323631
63978.4 49.0635 0.273552
48730 41.9612 0.298377
49640.6 51.0061 0.300837
43951.7 49.151 0.288307
43263.7 54.4809 0.31433
35201.3 54.3318 0.381769
29906.6 51.1577 0.288933
27132.3 47.159 0.351437
20821.8 39.7842 0.361516
22340.2 47.4745 0.390118
18663.8 41.4249 0.364752
22701.9 52.7563 0.438651
18124.8 45.865 0.352481
19928.9 55.8508 0.444479
13602.6 40.4373 0.359561
13535.8 46.1588 0.48126
12901.8 47.3607 0.520323
15375.5 58.831 0.504874
12808.5 46.8251 0.505567
13205.9 57.4084 0.581905
9127.49 36.2251 0.463342
9191.16 42.9725 0.531542
7976.78 45.2588 0.581125
9367.68 47.2702 0.579186
8015.3 45.5125 0.640754
6647.03 44.8369 0.600071
8789.01 49.2184 0.618709
7883.71 49.7032 0.592491
7074.11 49.3289 0.669233
7558.83 56.303 0.796965
6466.09 43.5466 0.686687
5009.09 40.916 0.622055
5801.85 49.5063 0.727394
5960.24 52.2895 0.783557
4853.42 44.8553 0.789369
5523.54 55.2605 0.973169
5543.69 54.4053 0.836641
4680.15 43.5599 0.774854
5074.17 49.4053 0.863543
4377.9 50.5489 0.95277
3737.17 38.5958 0.698245
4316.16 51.3278 0.953342
4303.98 49.5992 1.01135
4221.55 47.5113 0.936564
3383.71 40.9853 0.942262
3723.17 54.9761 1.12586
3531.53 50.9751 1.03364
3440.58 44.8968 1.01213
2825.48 43.1336 1.09147
3323.11 50.6454 1.18224
3271.53 52.9213 1.32479
2203.65 38.7886 1.05008
2779.39 43.5345 1.08255
2207.72 37.5121 1.01728
3096.67 49.1322 1.36337
2279.6 36.8188 1.02331
2465.96 45.1315 1.29323
2392.62 42.2909 1.39385
2522.41 45.9254 1.40949
2307.67 46.4039 1.32735
2310.35 47.0809 1.49401
2312.67 51.2173 1.44883
2203.35 50.2685 1.49517
1893 42.9741 1.31771
2105.7 47.6383 1.71439
2214.11 53.3264 1.85337
1999.87 52.5886 1.78656
1733.53 43.3155 1.64533
1906.3 48.5745 1.78256
1606.8 38.988 1.61325
1597.11 46.2046 1.76876
1681.71 47.7479 1.84682
1739.52 47.7928 1.99427
1653.42 52.1943 2.2814
1718.09 44.8878 1.99638
1428.99 41.8906 1.74644
1744.8 54.1369 2.43518
1537.54 48.3097 2.12921
1287.85 42.0355 1.82973
1322.39 45.445 2.19678
1207.6 47.3643 2.11875
1451.3 44.4265 2.19006
1400.78 53.2381 2.54455
1319.32 51.1399 2.52779
1396.81 48.1642 2.41607
1172.65 44.0488 2.2687
1214.36 48.7113 2.5344
1176.75 45.5435 2.53595
1275.16 51.0138 2.63203
930.281 39.6616 2.09345
1261.5 53.4336 2.96243
1258.08 52.6606 2.86474
1231.21 48.6974 2.61994
1307.73 53.6721 3.10021
996.49 39.2449 2.52368
1120.02 46.8233 3.00613
1218.51 49.2548 3.08564
1049.39 49.5452 3.19919
921.498 45.7498 3.0177
871.822 46.4766 2.90671
907.379 48.7138 3.392
856.402 42.968 2.61492
947.127 45.8756 3.19244
1157.19 58.7465 3.70922
967.982 55.4081 3.84256
907.524 54.0596 3.91561
864.188 44.7032 3.22369
1002.29 59.5475 4.35827
965.705 57.4426 4.05659
852.109 48.3888 3.75085
726.209 42.2472 3.3044
794.466 48.821 3.82565
845.983 48.3893 3.89666
833.604 50.7026 3.75623
651.789 39.6329 2.83051
894.915 57.5765 4.94397
1002.86 58.6229 4.49752
656.33 43.5733 3.6427
688.71 45.2669 3.82425
781.635 49.3049 4.34209
810.133 55.4677 4.95644
856.399 52.8409 4.57361
781.331 55.403 4.86007
660.038 45.8441 4.0557
704.288 53.6227 4.9308
661.766 41.9871 4.01208
651.085 45.9066 4.61375
643.493 52.2628 5.18138
694.234 56.6847 5.28322
650.943 46.1635 4.56178
668.515 50.5584 5.26393
684.283 43.2818 4.0809
601.141 47.6175 4.72148
571.499 46.0593 4.85608
646.614 48.1229 5.05817
505.179 37.8888 4.10618
556.631 43.8177 4.4981
618.136 57.6358 6.07212
519.678 42.5792 4.21474
587.734 48.6019 5.45529
559.274 50.0077 5.55473
540 43.8316 5.12864
517.489 41.0432 4.87081
469.038 46.5121 5.6211
519.802 42.4855 5.15413
429.27 39.7176 4.66615
487.374 42.2639 5.00438
566.886 59.4248 7.58763
488.109 46.3575 5.3728
555.565 53.4441 6.50676
558.095 50.529 6.60843
444.349 44.3466 5.95125
430.743 44.5506 5.87697
406.045 41.3218 5.65024
375.643 44.9095 5.89872
407.761 43.5686 5.92745
470.213 52.5921 6.79891
491.909 49.6331 6.74532
415.781 45.437 5.75436
432.152 45.9904 6.79468
451.705 50.1578 6.76669
455.878 52.861 7.84517
392.067 46.7481 6.7705
362.32 46.8419 6.92209
408.568 45.7946 6.89984
342.13 46.8079 7.1478
355.694 41.4175 6.18443
386.203 44.1101 6.72032
389.532 45.8014 7.21688
348.38 41.7276 6.7493
338.622 45.5126 7.77853
372.766 43.0046 7.25696
314.787 42.9302 7.37543
313.386 41.2743 6.3725
314.453 43.2488 7.48824
349.809 43.9859 6.84561
400.739 46.7194 8.16371
344.84 41.2257 7.56084
368.658 42.2812 7.02046
331.408 46.6461 8.12728
319.261 43.7428 7.59368
339.544 50.4938 8.65366
320.856 43.2851 7.9103
341.218 48.9891 8.88777
346.587 49.6463 9.25751
292.502 50.4391 9.55956
280.941 43.4236 8.3057
278.292 39.0619 7.45182
325.526 48.729 8.96432
291.609 48.2723 9.50358
302.587 46.2726 9.4601
297.742 43.0301 8.24066
330.61 54.2851 11.0785
311.087 45.3501 9.8441
288.896 44.0799 8.6997
278.376 40.6953 8.2708
305.096 52.7341 10.2722
265.415 44.9165 9.18013
229.316 37.483 8.05492
249.589 41.2 8.41042
253.639 44.6695 9.35617
262.478 41.0515 8.76677
328.022 53.9023 11.7415
293.155 51.6471 11.1727
251.419 38.7578 8.14055
228.114 38.7455 8.74221
290.581 47.579 11.0105
253.759 46.4764 11.1953
272.371 45.1293 10.0172
264.727 44.537 10.2359
279.83 47.4362 10.9376
291.185 45.3617 10.7933
202.478 36.84 8.63599
234.27 45.3426 10.4135
265.752 44.7175 10.8379
225.663 43.8416 10.6391
231.851 43.8791 10.5962
217.169 43.0495 10.6591
236.869 43.9883 10.9157
241.051 47.7299 12.7476
222.112 40.7597 10.3571
210.84 40.7619 10.2754
206.201 47.1832 12.3774
249.867 44.1064 11.4234
230.15 49.5124 13.22
195.044 36.9419 10.029
231.862 48.0059 12.416
218.877 38.9813 10.6559
225.113 47.7197 13.1222
276.451 52.0882 13.5499
221.553 42.7173 12.0611
224.799 47.1485 13.1582
209.334 47.9737 13.9604
174.669 39.6882 11.2332
211.394 41.2745 11.9345
193.518 38.2577 10.623
208.494 47.8081 13.9963
233.099 55.3457 15.6383
206.622 45.4947 12.9019
178.281 45.5257 14.3228
191.184 40.4915 11.4987
184.159 45.9953 14.4077
216.105 45.3905 12.735
199.977 44.9537 14.1389
169.913 38.2378 11.4631
190.311 45.0522 14.3389
206.35 45.8889 14.0176
223.642 55.9036 16.7534
193.077 42.7172 14.1691
182.669 40.9272 13.2985
207.673 51.6176 16.0301
207.94 52.8769 16.9874
178.993 41.7633 13.715
208.93 49.1765 16.5665
167.936 38.9446 12.605
194.235 50.5778 17.6617
164.247 43.7815 13.6169
168.89 43.3373 15.6828
160.744 46.6827 15.2198
190.327 48.9538 16.8587
182.015 43.7852 15.3651
161.681 46.7018 15.563
164.872 39.7353 14.0513
173.856 48.6814 17.2616
208.648 54.1429 19.8079
208.401 54.539 19.7938
193.701 49.2578 16.9396
151.769 45.8308 16.5091
165.326 40.1764 14.2707
184.096 48.797 18.5952
179.9 55.3287 20.2733
176.068 44.5099 16.9939
202 51.8671 19.1264
164.008 43.114 16.9988
192.57 51.6526 19.8784
147.056 48.6747 18.7129
151.047 40.5541 14.7769
147.593 41.6547 15.9107
161.024 34.418 13.8765
159.476 43.5308 16.4257
218.312 57.6605 22.1878
164.355 50.4926 20.9629
169.976 48.7433 18.7263
156.677 45.9459 18.7886
201.446 62.9991 26.2048
130.569 38.8921 16.4987
158.418 52.5524 22.0532
124.985 39.057 16.1822
140.482 46.6433 19.3406
120.783 34.2436 14.7782
140.596 46.4504 20.9686
180.009 51.6091 19.1381
169.672 46.3189 20.1487
156.997 46.6781 20.7239
158.533 51.2575 21.3883
149.191 51.0892 21.4311
147.135 51.4497 23.0067
144.127 48.8299 21.643
125.367 44.6375 21.575
142.579 48.9153 21.9707
145.231 48.712 21.0571
137.213 43.4315 20.4983
123.716 41.5163 19.5381
135.007 45.9244 20.983
150.581 45.6382 20.4301
127.067 36.4297 17.5898
136.709 46.4202 21.0801
117.946 39.034 18.8337
121.451 39.796 19.6395
160.13 45.9051 20.2325
129.222 45.888 22.2197
119.574 43.4212 20.4965
108.968 37.9866 18.5687
118.075 43.4181 21.2133
130.453 47.8061 23.4493
107.709 38.5647 17.9365
129.957 52.7848 25.4505
134.351 49.488 23.9959
99.8555 43.3621 22.1153
103.987 44.5657 22.4486
111.715 40.7101 20.2967
128.062 34.8983 18.529
124.095 47.7584 23.9815
106.193 44.1846 23.358
112.685 42.7051 21.5903
123.901 49.3985 25.2079
110.628 39.8765 20.8469
112.199 45.9098 24.1616
131.841 53.454 29.9282
141.187 52.0069 27.2656
117.955 48.7504 26.7
114.335 45.7381 25.3784
151.452 52.681 26.6338
102.593 42.5076 22.3911
114.774 45.35 24.6117
116.678 55.3396 31.7326
109.799 40.6281 22.1538
105.849 45.561 26.6778
115.408 44.0495 23.506
101.508 46.7674 26.7123
100.743 41.9672 24.0562
137.839 55.9225 31.9233
101.808 45.2528 26.595
121.339 53.0633 30.2462
98.6475 35.8518 18.469
108.62 41.0365 23.8022
97.1422 41.3596 24.8808
92.3566 39.4585 24.0041
82.6362 33.3364 21.1221
108.37 42.9415 25.067
118.268 47.7864 27.4085
102.483 43.339 25.3251
112.947 45.4712 27.4567
110.454 43.9272 26.8639
110.868 49.7945 29.3825
96.8201 51.6707 32.4021
104.157 40.2211 24.7481
115.818 46.7716 29.9363
105.996 56.3607 34.4397
98.863 45.416 28.6502
96.0021 46.9462 31.258
106.99 44.44 27.7712
122.012 54.4969 31.893
113.546 53.927 34.5888
104.954 52.8074 35.0918
90.9363 44.5049 29.6289
109.539 45.7696 28.4654
94.9637 45.7379 32.1028
108.633 49.7866 32.8035
104.181 45.0951 29.8872
98.729 43.924 29.2791
98.9955 46.7045 31.5142
118.963 54.1325 34.6327
111.676 49.6014 33.8719
78.7228 45.5911 29.686
83.9295 45.3546 31.4407
105.269 49.1442 33.326
82.9354 36.0495 23.5886
110.687 53.0459 36.5291
96.7253 49.7069 33.4949
83.3287 43.384 31.7217
91.5937 41.5133 29.775
96.4976 42.3187 29.6247
89.6447 47.5605 31.0066
83.228 38.0255 26.9847
102.827 43.7645 30.5276
96.5424 51.4839 35.7224
97.702 50.7529 38.9044
103.668 48.9241 34.0076
83.4953 44.5829 34.3029
85.2776 46.1024 34.1188
83.2447 46.0349 36.3316
93.8276 46.0393 31.2927
98.9172 45.7628 35.0138
87.6892 42.703 32.5635
81.2501 41.8949 31.2656
90.7924 53.0301 38.9242
89.9096 44.2514 34.256
77.8917 41.5665 32.2824
88.2675 43.7309 30.734
85.5368 46.8541 35.4564
74.8133 39.6877 30.6107
75.288 43.631 32.4098
75.3538 39.1002 30.3217
91.1302 48.2249 38.242
87.8044 50.9584 42.3339
96.1116 50.38 36.8163
81.2841 42.4666 34.0081
80.1689 42.717 32.4028
96.7541 51.2283 39.0352
87.1689 50.2121 42.1613
79.0937 45.1214 35.5248
91.4457 48.3973 41.01
109.885 53.5684 41.5184
84.8945 43.287 34.9142
85.5557 45.3687 36.1822
76.7798 45.6307 34.9805
86.2411 43.2266 36.0921
80.5494 45.2059 36.627
62.3917 40.4648 34.8294
77.8266 39.0647 32.1559
73.8455 45.6406 37.8915
80.124 44.0649 35.3498
83.7459 53.4746 46.9803
93.7117 52.8151 44.7943
88.708 48.0416 38.8496
84.0779 45.0104 39.0989
74.2446 42.4724 34.0578
60.7022 38.9759 36.3884
84.0373 52.583 42.9493
80.0815 46.4978 44.3992
76.6653 44.801 38.3119
88.1746 53.0631 47.1436
72.4661 40.7743 34.6595
76.2133 43.5614 36.6125
77.1401 54.6992 49.8695
80.6755 52.1661 47.1084
83.0147 46.9205 39.6097
71.3453 40.255 36.3623
82.0162 39.038 36.1719
67.2194 38.5186 34.9954
76.5731 47.0621 43.7417
80.2229 44.6094 41.9245
93.7318 53.4857 46.9206
82.5716 50.3393 48.2412
68.7914 41.9368 40.039
95.4355 46.732 42.0111
79.6854 49.3759 46.3012
76.6681 44.4623 39.6105
77.0355 42.4194 39.9104
75.4501 49.1805 47.9967
73.8734 42.8072 37.2965
64.1884 43.9171 44.1623
75.5965 39.9716 36.9819
70.7722 43.3903 41.3874
76.482 49.7924 46.2132
75.0085 48.5939 50.2756
80.0581 50.5445 47.2186
62.631 48.1756 46.0598
69.3405 45.8053 45.1184
83.853 47.9121 45.9838
74.1441 47.1273 44.8907
72.0676 50.5801 48.4529
67.0636 44.8378 45.2827
63.7453 45.2808 46.3291
64.7527 46.0889 47.8155
82.6282 54.9859 48.5158
58.6018 47.8075 48.7309
76.5017 44.7049 43.6762
64.6611 48.5094 47.9603
54.6524 38.9463 41.3526
56.6685 35.377 33.7904
70.8107 40.7314 43.8094
53.0247 37.6066 40.2072
68.9179 52.8501 55.4905
76.0273 54.8072 55.4758
72.3785 40.5423 38.3646
55.3628 32.831 34.554
66.4523 48.9798 53.4426
64.4121 42.9476 47.1144
64.0831 46.7566 47.3163
59.0844 40.6591 38.2361
61.2442 44.2039 47.2447
55.1297 37.0711 41.8731
71.4462 42.8039 44.4865
60.413 48.844 54.5389
72.9867 52.6205 56.0487
64.1949 42.1247 47.0773
66.6691 47.766 48.4134
55.7893 39.3544 42.7501
67.3181 45.5022 50.2388
58.0687 44.7809 50.119
62.1515 41.3997 41.4615
60.5071 47.0962 53.9311
58.005 43.7533 50.1926
69.8132 47.2702 52.2295
75.8525 55.444 59.7821
67.0882 55.2134 61.3258
62.0572 45.0043 49.7536
70.7754 48.7215 52.5008
49.758 37.352 46.4033
55.8935 41.0413 46.6095
54.8252 44.9548 50.5194
56.7536 40.1832 50.4639
77.2432 51.994 53.4322
60.285 41.044 50.4778
55.6484 49.4054 58.1696
50.5658 35.0175 39.2129
55.8975 44.2273 53.0428
58.582 45.1173 50.5079
64.3924 46.2024 56.4982
58.0026 44.1158 56.2367
59.0659 42.136 46.2998
53.6453 40.7466 47.212
50.835 38.5761 45.8206
57.6178 44.286 49.5026
59.1723 46.43 54.1031
52.4162 40.6695 49.0287
52.4936 40.4188 48.0866
47.1158 38.3599 46.5747
52.9423 35.626 43.2296
57.9522 46.1228 53.145
47.7904 47.5636 60.0695
58.5985 51.9046 62.0391
60.8229 46.8271 59.8302
59.391 51.0862 63.8665
65.9031 52.71 59.223
53.7179 46.7861 60.6029
56.8723 51.6705 63.6093
58.6341 43.135 49.9183
56.6772 45.6693 62.8625
61.8365 51.7406 61.7284
60.6256 44.4506 62.3791
71.9308 45.3203 55.142
63.7492 48.7487 59.6755
54.5948 45.9254 59.5539
61.4087 49.1883 63.3734
54.1272 44.8745 58.6315
60.148 48.7502 58.4591
61.7419 51.1846 64.2912
52.109 43.1253 56.5215
52.1118 43.1131 58.2243
58.7537 46.3255 61.3912
57.1597 58.3525 72.8749
54.0022 43.9599 53.1049
52.5968 44.5866 62.8836
66.8026 47.4645 60.2841
52.9156 45.8277 62.2515
60.4326 54.5553 71.1883
50.7507 44.6737 62.0736
52.7336 40.6858 56.802
57.8471 40.7966 55.4567
56.3083 38.93 51.0906
56.8046 53.288 70.976
60.4981 50.9036 64.7257
69.1382 39.7428 50.9684
46.4456 38.0847 55.984
54.3825 52.429 71.0844
49.3511 49.1225 67.8151
64.3826 46.3721 67.9082
60.3769 41.825 48.628
54.5837 47.8037 66.9049
45.4005 47.921 66.9513
48.6394 42.15 63.2481
59.6173 45.7602 59.8329
52.5569 48.7221 67.1412
61.28 54.1027 80.9239
52.6925 42.7576 55.2434
51.6176 45.295 62.1541
43.922 41.5468 61.5021
45.6796 44.513 70.0975
57.1762 53.6597 67.0126
62.2537 61.3275 83.1851
49.0861 43.1926 67.2321
46.7239 35.9687 51.8421
61.1288 54.3998 75.9349
51.0328 41.4725 60.6626
56.7697 44.6944 61.3611
46.5227 40.8306 60.5386
43.1997 42.6479 54.2617
50.935 43.2892 60.7783
45.6872 39.8393 59.8311
44.1647 42.4461 63.7602
46.1884 38.8554 60.8972
43.4986 35.4193 58.5678
53.4472 48.9131 72.4353
57.139 48.7489 70.8206
53.1322 45.3803 63.6219
46.621 42.8816 63.8192
49.6283 43.4438 62.7241
53.6845 49.1944 75.7751
44.6402 36.2666 52.2071
44.4862 47.0944 79.9699
47.2792 49.1707 72.3632
47.4805 43.5286 64.3118
39.8379 45.3483 72.3062
50.8785 42.1729 70.0924
52.1515 47.9134 69.4302
48.0069 44.2773 62.771
41.2505 49.54 77.6413
52.9739 47.4057 83.3405
61.9388 52.5177 78.932
53.0428 51.3685 74.0028
55.7921 53.1203 83.1049
45.639 53.4834 82.874
51.745 36.5048 56.6403
42.5559 44.3207 77.1442
55.2066 40.822 63.2823
46.7666 45.5871 70.0005
49.6062 48.5451 75.6681
40.696 33.7496 58.2547
40.287 40.4195 54.6925
39.705 43.8771 66.0973
44.2383 44.6287 79.3161
41.5522 41.1051 65.6264
51.2348 45.3521 72.3724
54.8162 50.0495 73.0278
41.644 43.7802 69.0497
54.3069 57.5623 95.8416
44.1074 40.6668 73.7468
46.1289 41.4636 66.8699
46.2989 47.2114 73.7879
39.9631 40.567 68.6979
47.7651 40.1212 65.1494
34.0589 42.2028 66.7981
42.6999 35.6605 62.0959
47.5685 52.7559 92.7823
54.7569 47.6507 66.6517
36.0784 46.202 75.5507
46.3945 48.3299 84.3555
51.5111 46.0056 77.8082
44.3261 48.6521 73.6013
34.4552 39.7819 79.2363
50.1485 44.2967 61.5457
41.446 44.7093 69.7168
33.1515 38.3549 66.4872
41.4665 41.8618 74.2229
36.8768 35.7273 66.2753
50.5046 46.3079 69.8151
41.2913 53.4851 96.9328
37.0605 41.0628 74.0466
40.6862 43.41 69.3736
38.8288 41.1203 76.57
45.2721 53.499 85.8832
42.4623 43.7604 75.8628
39.5619 53.3886 93.4621
41.6302 47.1326 89.7917
43.8611 45.7999 85.3944
44.2926 45.3841 74.1637
42.0929 47.6782 75.9606
36.2587 38.6123 69.8152
40.9692 48.4608 85.4325
48.457 50.5522 83.1911
35.3078 41.859 78.4287
40.5709 40.0117 73.3165
43.6768 42.6035 75.7637
38.4663 42.0055 71.5853
39.8579 40.4035 73.6428
43.0472 41.2623 76.7961
39.1472 42.3418 75.9602
41.1923 53.3485 91.1102
43.3651 43.6632 84.1219
41.6969 43.0981 66.3329
37.3428 40.3041 75.4968
34.1735 49.2476 88.3704
39.285 40.7184 79.2682
33.3154 31.5231 62.0265
39.9533 52.9214 96.453
42.6323 40.6844 72.2299
41.9275 43.5905 81.7617
34.3024 44.3985 85.3918
50.6795 47.7218 88.929
49.4352 53.5618 87.0801
34.6348 44.1506 90.2523
50.5308 46.6315 88.9621
41.714 48.7912 91.6856
36.3192 44.9617 88.4843
44.0242 49.9954 84.5468
38.2367 39.9643 77.7987
40.7065 47.3703 85.9467
39.6913 42.2428 80.66
37.8856 41.9126 75.7762
35.8208 45.1846 96.4043
42.6807 38.7105 76.1881
31.2262 36.301 65.4054
31.0591 38.3724 81.2703
39.5774 44.1624 82.4268
44.5914 43.7693 82.2546
42.7884 40.4171 73.0139
36.6768 47.7163 90.9777
38.9613 45.8168 82.7154
41.7931 30.3421 64.9191
35.2686 43.8826 83.059
31.8138 37.9574 66.7808
38.4416 46.1745 92.2954
42.4512 52.8024 97.0135
43.3487 48.4446 90.7071
43.6375 45.789 90.7001
34.9966 42.7158 84.1466
36.7113 42.1205 79.9256
35.348 48.124 99.7132
36.839 49.913 96.4591
42.5836 43.2852 88.6393
43.9905 46.5476 93.3373
36.3675 43.2457 80.7297
30.0799 43.3293 96.3338
38.3086 48.2335 100.006
36.1912 46.4612 86.9789
38.6484 44.1087 81.9637
30.2694 38.2313 78.9802
33.1575 45.6356 97.5946
41.0763 41.6914 73.7622
32.0403 44.4562 97.8847
39.0445 43.1588 86.0391
34.7569 43.1064 87.3237
31.2121 39.601 84.3635
36.1442 47.6974 97.9532
36.7661 40.1872 83.1549
38.2068 46.0677 84.1171
37.5561 38.0205 86.9329
34.1326 47.3055 105.666
39.6701 56.3602 112.065
39.1222 45.1312 88.6349
34.214 47.1393 90.2751
33.6745 37.4506 79.574
39.8737 38.2033 89.8576
36.5667 50.0069 106.521
36.3839 39.6523 79.9478
38.6575 38.3565 87.8326
37.1447 46.7026 89.1685
37.3202 41.6871 87.8425
35.7686 48.0828 104.124
35.2023 33.8117 70.6563
33.8115 45.5444 87.7938
36.7093 44.3826 96.1746
37.2006 42.9048 88.2684
39.8571 37.137 73.6746
33.4123 39.1011 88.9203
35.8845 59.2576 125.724
40.555 43.1242 89.9099
37.3232 46.688 105.196
35.9412 42.5408 98.3927
33.5933 39.9929 77.0746
33.2427 42.5717 88.3231
36.2499 42.5811 94.887
35.9637 48.037 110.236
36.1087 44.2881 94.8586
35.2027 44.2128 93.0069
41.7663 50.8324 112.19
31.035 45.1564 105.314
45.742 44.44 89.347
35.8787 44.336 101.55
35.3446 40.3833 90.8178
36.0406 48.1707 98.9131
28.1047 38.6942 89.429
33.5049 44.4808 109.59
36.6251 55.0936 112.024
33.1 42.1224 89.3444
35.4188 38.109 85.9921
36.3698 48.5495 101.239
27.1365 39.8516 95.7371
34.0658 39.2723 75.0728
31.3456 46.5541 112.103
36.0372 39.948 97.1499
33.0117 45.2741 97.0064
31.8258 47.029 105.999
35.3365 45.1926 102.289
34.4612 51.8591 115.252
34.2289 45.6642 100.245
35.9138 48.8575 110.481
33.5155 53.0144 112.922
32.2508 41.6395 109.554
42.8828 42.3932 77.4277
32.0408 50.9452 115.531
26.744 41.9558 111.733
40.8676 45.8215 97.5228
34.1562 39.1682 92.8068
32.8878 52.5345 110.714
36.7952 42.9841 100.772
28.8599 38.6942 96.6418
33.3936 45.6935 103.963
34.1089 44.8656 110.919
32.6704 42.2535 98.485
35.4806 48.0848 111.461
39.8349 49.8166 119.092
30.2211 37.0207 85.225
33.4055 37.8025 90.8138
31.2739 41.0219 87.7439
28.9048 47.3253 112.968
35.8488 40.2706 96.5936
33.7836 42.0616 100.558
34.8881 39.5633 97.6626
34.6937 41.3132 103.536
32.9829 37.4035 84.8839
28.7926 42.7067 95.1541
26.2246 46.8745 110.607
34.152 52.643 132.382
36.8538 44.8528 118.171
34.6227 58.023 131.691
32.8563 41.4067 99.9673
32.1339 49.0974 127.504
36.6102 40.1995 93.6787
29.7976 42.0911 95.7897
31.093 34.797 93.3576
28.1273 40.2184 103.906
34.5413 46.6943 119.64
33.7881 55.2034 113.871
29.8073 38.0896 96.5247
26.7786 40.5069 103.114
34.4261 44.5824 117.994
33.7881 47.1777 108.042
33.5635 48.2206 109.556
30.0546 49.2963 114.059
29.7592 38.2814 103.627
33.1386 48.2381 124.55
28.0195 48.689 110.556
27.7078 41.7549 100.097
28.8647 46.6863 112.085
27.1425 36.196 112.259
36.439 47.0681 113.935
32.3516 42.5018 99.4487
32.5948 46.3497 104.343
32.3674 39.1258 107.051
34.3066 52.1849 123.841
30.5594 42.3915 119.739
41.9626 53.782 104.927
29.8492 51.046 124.669
26.3841 41.0135 116.019
31.8017 46.754 126.828
31.7751 42.6956 107.171
33.0719 45.9466 112.288
28.154 41.3655 107.592
27.348 43.5388 109.78
28.3662 43.4357 103.389
26.0706 32.7594 96.8454
32.1182 45.1063 107.862
30.9212 35.2916 88.7744
27.3788 44.1802 106.828
30.0972 44.2895 118.241
26.9112 45.8874 120.891
28.8831 41.4526 107.542
29.3599 39.6972 89.6581
26.2385 40.6926 115.226
28.9497 35.9501 94.2076
29.5617 38.3889 101.528
28.2988 38.2528 107.253
26.7026 49.9259 124.7
23.8077 40.6961 109.757
40.9477 47.053 109.328
25.9449 45.7688 115.809
33.6963 46.5918 113.616
27.2272 49.9895 139.949
29.5267 40.1908 105.397
28.839 37.3612 115.324
31.3358 47.5438 118.422
30.6955 37.2299 98.6789
29.2415 46.4186 130.502
26.7031 42.9406 125.005
28.6224 42.2201 99.4641
25.3204 42.2165 108.803
27.0577 44.8764 121.421
35.7652 46.7095 113.473
24.8117 60.5625 161.513
25.6685 39.3598 105.321
28.6288 36.5256 104.633
22.7897 32.6115 98.9541
27.7665 43.6114 97.3939
26.7023 39.0355 105.31
28.8598 40.4065 104.365
27.7154 43.1648 121.054
30.8809 40.9344 123.308
31.4162 39.2914 105.912
29.5032 48.2251 128.341
27.5515 46.0205 130.965
31.3918 44.7711 110.757
29.5803 49.0532 131.11
26.7823 39.3587 117.137
29.8764 44.2242 115.234
29.2411 37.0856 100.271
31.6798 37.3595 101.584
25.2109 44.7484 115.143
30.1229 44.3088 118.27
33.3387 42.1914 116.19
29.5114 45.6546 131.116
33.2703 46.2843 115.375
35.0677 51.8524 145.651
29.6508 35.0113 113.382
35.0339 47.0549 113.738
27.2695 49.2409 134.515
25.8147 37.2729 116.026
31.1777 49.9471 119.614
29.4347 50.9863 136.683
29.0887 46.4887 128.968
25.8384 37.0166 102.638
26.6405 38.7034 99.117
26.9621 42.4015 112.046
26.4037 39.7901 126.914
27.4498 48.847 146.702
32.097 45.5071 128.017
32.7527 49.2704 117.419
28.7124 45.8962 135.191
27.0431 45.9593 138.067
32.2665 45.0175 118.316
21.4533 39.2662 116.392
29.4364 46.7318 116.81
26.3279 38.6605 128.687
28.9182 40.7585 122.726
27.4989 40.6181 109.478
21.6569 44.4437 132.413
35.3276 45.2666 132.087
24.4233 41.7215 117.083
24.3046 41.0502 122.996
23.6676 35.7901 108.343
28.7611 42.9367 126.52
26.6186 39.6603 119.084
29.1924 36.3587 100.952
26.5301 41.3058 122.876
28.2785 45.4426 132.315
26.9726 39.0973 108.104
27.8356 42.4068 111.117
23.1421 35.678 97.3434
29.4286 42.9639 130.794
27.1542 45.7461 131.556
27.4612 36.0542 115.66
26.1888 37.5566 102.645
24.1766 43.0773 126.274
25.374 36.3899 119.107
30.9203 43.5635 133.741
31.7178 54.6636 163.537
27.082 37.8541 107.77
28.1703 43.2165 129.106
32.6829 40.1927 130.481
32.8894 48.6738 120.197
24.0161 39.1594 123.849
27.2263 40.8521 125.216
26.9483 52.4136 153.34
26.868 37.5723 108.957
24.3644 46.9681 129.139
33.5997 55.7626 165.78
32.623 44.4323 122.021
19.971 36.6772 110.543
21.4367 43.2778 136.889
26.3817 44.2917 134.401
26.0536 42.7832 145.085
36.4874 54.9151 143.044
25.6869 46.5153 151.941
36.9379 53.6029 131.489
25.367 36.7422 122.819
26.6958 44.4106 130.902
23.4125 47.0209 154.159
31.718 50.5546 121.938
22.7179 47.1236 171.71
26.6953 36.512 123.025
30.5294 51.5298 138.665
22.312 36.4966 122.27
24.989 46.8505 126.57
30.4258 38.8426 119.675
24.5481 45.4067 125.581
27.4781 49.8323 148.571
27.6449 46.825 134.324
30.3824 46.5095 120.079
21.8201 38.7148 138.595
27.9345 42.7724 174.776
32.4829 50.0725 143.744
25.7958 51.5133 137.493
25.7926 43.8177 143.516
30.1752 54.8027 159.925
28.2453 41.1509 126.938
21.7047 34.3907 132.762
29.326 43.1047 135.71
24.7224 40.4821 112.24
29.2438 42.648 119.58
24.9202 54.3536 162.34
26.3082 42.4723 119.642
23.3536 51.2602 163.891
25.7926 39.6513 119.403
26.2428 39.6072 123.846
28.1802 41.0845 138.124
30.0633 45.5616 122.733
22.9803 42.9649 151.097
27.2409 41.9984 130.9
28.5548 38.1108 102.854
23.6483 39.9386 138.476
26.6307 41.0403 136.59
31.0658 39.5819 116.428
27.2705 42.8664 136.62
27.2303 48.9482 146.23
25.9783 43.7757 130.6
28.6228 36.2659 117.849
23.3346 37.6463 113.825
23.8464 41.7798 135.664
23.5645 36.9589 112.627
26.1429 38.5864 130.572
25.4578 45.5103 154.959
22.3589 40.5596 142.639
26.4796 59.1549 178.852
25.5329 45.6415 117.188
16.7677 41.6859 128.993
24.1611 34.1219 108.708
20.9306 35.357 118.396
18.4543 43.3578 139.958
21.4172 34.213 129.411
23.1193 51.9193 145.667
26.6921 51.2807 148.41
22.7558 48.5332 146.483
24.5389 37.9159 142.163
20.2075 33.7753 126.117
27.3932 44.2321 124.043
22.1087 36.4381 140.385
25.4965 38.6974 108.923
22.8723 33.7928 106.09
21.3049 29.4343 112.72
24.2385 40.2283 122.415
25.4842 35.4036 106.187
23.7594 39.1912 138.871
31.6658 50.2731 145.779
22.7262 45.2519 120.506
26.7972 43.4946 169.522
26.0013 45.3834 134.721
23.1621 45.3974 170.194
22.7509 40.5882 119.305
25.0833 38.3604 124.838
20.1863 37.8707 133.982
18.9622 36.3284 133.886
24.7048 42.8253 138.652
29.4895 47.2636 157.08
28.5308 45.1746 149.221
28.1358 54.4948 151.599
25.6876 41.1436 145.231
24.6515 44.2564 143.304
24.281 35.8261 110.674
23.2705 44.1408 158.6
26.5015 37.087 125.875
23.4514 45.5232 139.675
22.4326 39.233 152.711
25.1672 38.5729 122.583
24.4383 36.5363 114.197
19.9083 43.0719 149.395
26.455 41.6234 132.591
20.184 39.8741 125.422
25.8593 38.0593 144.071
26.4841 38.5497 115.849
20.5241 39.3559 151.666
20.9567 38.7038 118.95
26.0026 40.1916 126.731
24.5478 41.9638 146.584
23.714 41.76 141.453
21.6604 37.4652 133.219
21.1119 38.2984 121.985
22.1711 43.211 148.888
32.2374 32.1363 117.569
24.1239 39.9851 144.018
25.7457 36.9028 114.867
24.09 45.9366 167.696
25.5293 46.3901 156.528
22.0851 41.5194 142.593
24.0645 41.4307 132.864
20.6961 42.646 125.556
20.0652 41.0339 146.32
24.1591 36.1785 129.886
23.4829 50.6142 151.243
21.3488 41.9722 150.912
22.699 46.4107 160.584
25.0052 48.7587 154.236
22.3259 39.4757 158.288
24.0155 42.8139 124.596
26.104 43.1934 141.784
24.9521 33.3552 114.955
25.0675 37.4418 141.097
26.8075 45.2076 139.603
25.7467 47.1754 162.45
22.7715 38.1331 119.603
22.8398 45.1573 137.294
21.0127 38.5547 156.582
25.5784 44.2249 154.64
27.7314 40.6799 144.799
21.8402 40.693 112.63
21.3158 43.2351 136.127
18.9207 40.4991 161.602
27.6615 44.421 152.066
25.4489 45.535 171.963
21.7846 42.3015 157.119
28.4045 37.7445 116.343
20.3896 45.2073 164.336
24.6358 38.0115 149.229
24.6048 38.8688 128.474
24.3377 40.6436 139.434
20.1743 44.3727 158.002
27.5428 41.9519 131.687
27.8832 45.0275 152.004
22.0684 37.0187 127.777
19.5048 40.8929 141.457
23.7523 37.7666 145.276
24.0968 46.0402 150.488
23.3256 46.3803 158.942
20.8664 40.6576 146.327
19.7509 36.1106 145.194
21.1745 43.2644 140.227
23.4124 43.713 156.504
24.1837 38.0412 150.567
26.133 43.1869 124.851
22.314 37.0835 142.484
19.7974 44.3311 139.49
19.5478 43.438 131.8
22.0549 37.694 147.759
23.9464 40.026 157.085
21.2908 35.7252 115.137
18.0061 44.1733 144.07
20.7259 44.01 142.571
22.7247 39.3064 154.551
24.1275 41.3248 145.501
20.5538 38.3356 160.466
20.3804 42.5015 145.528
21.4757 51.8899 168.923
26.762 41.7433 136.481
19.9313 36.6256 126.33
21.1327 41.5528 147.877
21.7315 42.1859 140.124
19.8331 46.387 168.481
23.3797 39.5753 150.602
18.7488 43.5726 164.761
24.7911 40.9517 138.856
23.1972 41.4432 149.784
20.7796 36.8652 139.586
24.2342 42.1144 148.624
20.7258 47.2597 149.298
20.5931 42.5308 149.552
19.0272 35.5284 122.36
22.7154 38.1166 138.237
21.6405 38.8371 155.9
25.5726 38.828 128.729
23.0118 42.2525 163.698
22.4281 37.1614 133.151
20.7172 45.28 181.304
26.7601 40.3317 134.833
20.8797 44.3922 175.282
28.0891 45.0406 155.348
26.3896 43.0035 122.951
21.2549 45.3151 202.264
22.3198 46.5215 153.717
21.6944 40.5966 139.623
24.156 46.1389 186.062
22.6316 45.4844 136.863
18.4804 39.1104 157.145
20.896 40.1452 150.86
20.7639 35.6403 139.312
24.9247 40.7769 123.577
22.6104 45.7211 152.262
15.9652 31.6159 125.751
16.0439 38.2085 149.159
22.1798 41.5008 154.777
20.9387 43.3626 145.136
21.7657 44.5142 154.799
19.8864 37.468 155.235
23.1573 39.4549 148.375
20.4875 49.9249 172.866
25.5841 43.8824 150.734
19.0275 42.4851 146.56
20.2948 33.5757 134.028
20.4842 37.8169 147.392
23.3731 45.6187 165.405
27.6175 46.5047 181.557
25.705 50.024 159.995
25.8444 37.1429 125.565
16.0591 31.7323 121.047
21.9016 41.3928 138.59
20.3023 42.5845 165.988
22.351 36.3294 151.839
21.3746 40.9783 130.849
18.1799 33.3042 156.819
24.4804 43.7695 155.7
21.3832 33.4362 145.614
20.8674 36.7233 126.093
18.0701 36.5966 151.739
20.3768 48.9653 157.342
26.1392 45.4625 157.217
18.5215 40.6333 164.018
18.4836 43.4497 128.729
20.8452 32.047 135.763
25.165 41.6093 151.085
21.3648 37.183 143.295
22.0031 44.1811 170.278
22.1051 42.0274 161.582
26.3221 46.1809 183.68
26.2544 43.2046 142.101
15.8711 41.0064 175.63
25.3085 43.5066 156.556
20.9411 38.6997 134.181
20.3404 39.3889 178.731
26.0847 46.2037 167.7
19.5118 49.1251 173.648
14.8921 36.2912 124.396
18.6706 40.7448 151.009
19.9348 40.3001 158.953
22.7105 39.5165 143.964
18.3597 39.4914 116.769
20.3272 40.8702 147.224
21.6193 37.7514 133.4
19.1188 35.2376 147.156
19.0367 37.1662 133.63
20.4408 41.7676 155.04
20.4795 35.1506 140.443
22.8634 50.1402 184.45
23.5017 37.4353 140.567
20.0545 38.7864 150.021
21.7759 39.3804 147.096
22.5252 42.1338 137.05
17.2154 35.9136 182.842
25.4047 52.8194 174.464
22.0068 40.573 147.905
21.8231 39.0383 151.26
21.7128 40.1706 150.649
15.7008 36.0528 151.66
21.6247 37.2557 141.921
20.798 42.0011 149.438
21.6668 41.361 162.726
19.8162 39.6071 164.468
23.5479 51.2689 184.535
22.114 44.8834 157.435
20.0548 40.8626 176.268
21.6869 44.5787 153.76
21.7464 47.7725 158.089
21.1584 41.3751 165.693
19.4621 45.3252 160.668
21.5892 39.6714 157.534
22.8032 42.543 177.342
24.637 46.1728 155.187
26.2231 42.2348 142.243
22.1812 33.8744 121.88
20.68 41.4514 177.076
18.9937 41.8769 147.902
20.6893 37.4151 192.931
29.0135 54.8822 198.35
23.8487 43.2841 142.568
20.0837 34.1699 160.599
21.94 41.8368 147.887
22.6689 41.8919 149.725
21.7958 31.0044 119.826
16.009 34.1925 140.355
21.1418 34.8035 128.92
25.5292 37.8227 125.775
17.7799 43.5026 179.392
18.9424 43.4087 130.008
21.0776 36.6098 161.579
21.0871 39.1467 164.78
23.9967 33.9152 132.634
20.6747 38.7936 161.089
22.2618 47.7621 175.91
26.0973 42.8049 164.457
19.6743 36.3143 148.131
22.7575 41.0488 150.838
20.3733 36.7163 156.88
18.7843 46.4844 169.665
22.7557 41.3252 121.359
16.5849 39.5064 198.428
21.7242 43.9344 156.624
20.3524 38.6986 151.828
20.398 40.9212 171.205
21.9518 44.582 132.058
21.6839 38.9861 181.483
18.7059 46.1681 178.41
21.8481 41.8604 131.554
21.9707 38.2526 190.659
26.4742 39.6604 144.608
20.5391 48.8116 179.245
19.6772 39.9449 172.571
23.6418 40.0034 172.308
18.4721 38.767 145.214
21.9579 42.7754 180.598
25.5731 46.2288 145.152
17.5583 40.4 166.919
21.9626 43.4199 185.893
20.7678 46.837 143.531
22.1113 39.5446 176.45
20.0423 49.5986 186.126
25.5011 45.5397 155.067
18.5831 36.2191 156.047
21.1469 37.5645 187.697
23.2747 51.3084 194.487
21.6028 49.6493 172.272
23.6665 48.6731 158.843
22.937 40.2609 150.756
19.2544 41.2206 180.057
19.0508 36.6577 158.103
24.919 44.3826 153.563
22.516 39.6659 143.633
18.2917 41.7357 157.385
15.6573 33.4239 139.283
18.533 36.7267 173.893
21.9872 40.597 134.939
20.3951 37.9624 171.581
22.1677 44.6779 147.683
20.494 46.0516 176.035
24.3392 38.9768 162.508
21.2428 39.9522 163.823
24.0108 36.3884 141.453
19.0991 44.5234 165.312
23.0558 39.8296 172.029
23.8589 44.7423 179.383
22.1914 42.5141 149.69
20.9124 38.9039 154.242
23.4405 42.9649 155.336
21.8186 44.8669 170.041
19.6913 33.8874 145.447
23.6496 45.4855 172.122
21.3713 32.3575 121.173
16.7716 37.2824 164.679
20.4677 41.8379 164.071
17.6501 37.9039 148.315
20.1153 40.7755 167.212
22.158 38.88 141.239
16.1394 35.0247 152.495
18.9995 41.0702 167.64
19.6325 44.7943 164.539
20.9258 42.1484 150.909
19.6588 41.5534 163.9
22.1943 43.7106 155.372
21.3423 42.9154 165.212
19.9002 35.8075 179.902
19.8509 44.821 173.738
25.5152 47.7167 167.505
19.2249 43.8412 160.11
22.6093 42.697 188.297
24.0807 42.2941 151.875
15.8601 42.6415 170.643
20.2889 44.6474 197.671
21.899 40.2176 181.191
20.7995 35.3738 140.232
21.1961 43.4762 156.087
19.7925 36.2021 142.58
17.2584 40.7777 161.027
17.6145 35.2466 147.663
16.5129 42.7654 147.591
19.7213 44.8059 150.534
20.3829 37.5494 135.901
17.482 38.3411 190.557
24.4305 42.7112 171.867
23.8526 39.4725 146.586
16.3404 40.8749 160.304
19.6807 41.5767 164.32
19.6422 37.3833 136.462
21.0804 40.2527 162.563
22.8261 37.252 152.275
16.8079 39.1624 164.887
20.1924 41.0744 148.685
20.2621 37.4521 164.206
21.7723 46.331 144.093
16.38 37.4296 157.921
19.939 36.859 163.209
21.0207 42.9585 156.429
20.7892 32.3248 138.323
17.2143 36.3414 146.944
17.8711 38.4779 143.12
21.5108 42.5374 160.816
19.5446 40.6479 184.576
18.9465 41.6268 151.975
21.132 42.3068 147.288
21.5451 37.5104 146.981
18.5994 37.9131 156.576
21.6976 36.1168 159.225
19.6479 45.436 149.648
18.6559 41.9214 170.084
19.5655 37.3925 161.877
18.1971 41.6749 173.27
22.9818 39.6147 158.762
20.134 39.8257 153.597
16.5386 43.3347 168.996
25.391 43.0221 160.817
21.5772 41.4409 162.307
21.7979 33.228 135.156
17.7019 41.713 143.381
22.0176 39.391 166.266
20.1069 36.6073 158.676
19.717 37.4023 161.173
19.3672 40.102 150.709
18.3 39.5148 145.878
20.7465 37.7732 148.535
18.4743 34.5868 169.946
22.0528 39.6958 166.706
21.8163 42.6597 146.182
16.8732 40.0231 160.873
23.2842 38.4181 149.591
20.4074 42.8796 181.859
21.6227 39.9436 158.576
20.3201 36.9151 143.175
16.3767 37.9334 155.245
15.5163 38.8663 150.302
19.9398 45.609 183.545
19.7159 37.3374 146.944
16.6407 40.9708 145.621
18.1642 38.0057 157.531
18.6883 31.9448 141.561
19.16 41.0805 151.747
19.9548 46.5874 203.732
20.0612 46.9075 151.946
18.8183 32.6127 182.846
21.196 45.7747 143.325
20.8159 33.5006 150.284
21.9371 40.5266 162.659
21.673 37.9609 151.871
19.295 38.9228 154.41
20.5655 37.3117 151.192
17.8488 35.9949 142.532
17.9773 44.9132 160.958
20.0919 31.1978 147.956
17.561 37.3079 167.392
20.2471 43.8515 170.358
17.0623 42.9696 157.615
18.8299 41.2095 149.244
17.7146 41.3808 171.438
20.0747 35.6022 149.635
18.1033 39.8468 164.795
17.9535 38.5744 170.291
21.05 37.5471 151.153
17.8476 36.3169 130.51
19.6205 38.7476 153.41
17.0567 44.8937 181.028
17.5956 42.973 161.672
23.2547 47.4212 177.058
21.7098 38.8648 169.195
21.3698 34.0303 158.572
19.5905 35.15 147.861
17.8132 45.2002 168.965
22.5997 43.5318 167.188
20.0381 45.5202 161.921
17.5877 38.5948 138.995
22.4164 0 0