# pn-170911/CsIIA-40-CsIIF-1280-1959.psd
# Power spectrum* (dif=0,1,2) (really just |FT|^2)
# NOTE: only the first half! (symmetric)
# weeks: 1280-1959
# 623 clock-days, 435 excluded
# PSD: 1441
14497.1 1.13378 0.101102
1.73135e+06 39.6084 0.361134
5.37853e+06 106.736 0.501201
2.27544e+06 87.8339 0.590992
1.74159e+06 117.988 0.407816
814944 85.0677 0.512682
643130 92.9603 0.512897
454087 91.2526 0.454001
342395 86.4116 0.549398
276216 89.5279 0.951729
219479 85.1434 0.670156
182617 82.4411 0.630901
153585 89.4249 0.604967
127999 88.0747 0.626138
117440 89.1164 0.614062
102339 85.0171 0.638241
82263.9 84.9404 0.718209
73655.5 80.7102 0.896028
67042.4 84.2341 0.765502
63663.5 91.265 1.02028
50767.2 84.3624 0.714869
49516.3 83.4029 0.903185
45477.1 82.8516 0.823733
40755 81.1067 0.790772
36657.7 80.8686 0.792667
35217.6 81.8484 1.0073
32108.5 81.7049 0.954546
30719.1 84.5572 0.947871
30804.5 86.2061 0.941446
28953.3 90.6961 0.988093
25343.5 83.8293 1.05374
23426.8 80.0355 1.01272
22788.4 86.3674 0.944532
21116.1 86.7608 0.936465
21024.2 85.1976 1.00238
18028.7 82.7995 1.19842
18075.4 83.2905 1.47543
16214 82.5329 1.19589
15150.1 80.7174 1.26403
16747.1 89.4504 1.25027
13509.4 83.0486 1.23437
13431.7 85.6162 1.34413
13236.9 84.4364 1.20703
11892.4 80.5448 1.31444
11415.2 82.5148 1.29334
10687.6 83.1648 1.40492
10644.3 82.686 1.70442
10381 85.0477 1.54859
10364.8 84.8234 1.53602
9730.16 84.8381 1.58882
8474.93 78.0343 1.57297
8456.6 77.9156 1.7554
8475.17 82.0057 1.86052
8013.46 82.3349 1.63398
7615.22 86.0368 1.82369
8064.06 85.4072 1.87911
7101.82 81.865 1.73706
7646.81 84.0562 2.03976
7139.89 84.9445 1.74939
6599.12 82.9465 2.08871
6602.32 84.8733 2.08636
6864.63 89.277 2.55939
6047.99 84.199 2.32514
5919.2 77.6782 2.1158
5587.92 82.078 2.18039
5607.65 87.5361 2.43719
5082.96 84.0801 2.16132
5421.91 83.7092 2.16576
5391.65 86.9647 2.61647
4626.61 75.2684 2.26946
4941.68 86.414 2.61995
5021.76 87.9507 2.796
4638.53 78.4214 2.57463
4436.71 81.5943 2.66439
4685.77 84.7525 2.88891
3711.42 76.4289 2.62229
3840.98 80.083 3.06004
4010.53 81.5352 2.82976
4121.05 82.3198 2.85237
3759.89 82.5257 2.95326
3340.15 77.1113 2.85312
4098.44 87.3993 3.29485
3481.52 81.7234 3.23202
3449.42 85.8639 3.41922
3633.06 85.5568 3.27365
3369.15 80.8217 3.34787
3381.88 84.9476 3.61096
3322.65 89.3606 3.83704
2928.85 79.6501 3.68322
3288.99 85.4245 3.88435
2995.35 87.5202 3.86971
2900.65 87.7871 4.03022
2943.76 85.0484 3.95344
2721.05 81.8366 4.04124
2696.55 81.7576 4.10546
2454.05 79.6182 3.95017
2464.04 75.3256 3.51617
2631.86 83.7867 4.34633
2239.4 77.0973 4.04852
2399.03 80.8838 4.17994
2272.75 81.8947 4.56545
2334.2 85.0686 4.47945
2119.59 84.0923 4.53052
2281.19 82.5074 4.52652
2327.28 85.3617 4.61272
2087.48 82.3083 4.70762
2154.83 83.93 5.10167
2148.43 83.7148 5.21587
1977.06 83.118 4.91962
2026.97 82.5584 5.09983
1980.18 84.9826 5.26807
1974.82 84.9116 5.36647
1775.87 77.0602 5.09344
2068.96 87.8679 5.6581
1941.8 86.064 5.82571
1874.93 81.0949 5.62443
1823.61 78.6202 5.16921
1738.59 79.72 5.58477
1764.99 82.7579 5.63674
1561.97 79.78 5.67905
1582.08 79.0348 5.96724
1581.19 80.2962 5.94274
1738.13 85.2292 6.34615
1507.35 78.1547 6.0794
1422.77 76.7966 6.08614
1529.14 82.9969 6.34631
1315.52 74.5844 6.1342
1364.74 78.3069 6.28235
1513.69 85.6259 6.96291
1405.08 77.9066 6.43246
1318.55 74.6632 6.25773
1342.6 79.8404 7.09158
1375.32 80.3343 7.15977
1273.93 75.985 6.30479
1298.03 81.167 6.9125
1309.86 77.4114 6.88
1210.86 76.5506 7.2632
1157.1 75.6578 7.07236
1274.81 81.3595 7.79727
1173.94 76.9521 7.2878
1113.44 81.374 7.51318
1186.72 86.2049 8.54297
1219.58 85.4946 8.37666
1153.1 83.9408 8.29349
1095.33 85.7774 8.2791
1100.72 79.3348 8.46338
1160.47 77.3303 7.83809
1120.36 85.7463 8.98383
1114.93 81.1064 8.79978
1050.64 80.322 8.33246
984 78.1548 8.82012
1029.52 83.8462 9.14497
955.085 78.0258 8.82358
1056.39 79.6043 9.10179
1102.67 76.5495 8.50479
952.81 79.1306 9.37059
884.426 75.8473 8.92471
1012.75 80.329 9.47749
948.084 78.3026 9.03342
894.621 75.1898 9.40322
931.894 79.2439 9.70724
992.734 82.2952 10.0413
890.238 79.9539 10.105
875.529 78.1085 10.0672
872.843 76.9206 10.1782
822.38 78.9699 10.3654
915.888 76.0728 10.1972
795.829 75.4737 10.3886
792.97 79.7598 10.6768
822.628 76.7159 10.3802
928.528 78.7264 10.5856
866.914 80.3901 11.2714
868.274 79.3991 11.3678
808.325 77.565 11.1324
830.227 70.442 10.2929
835.167 78.7337 11.3561
696.96 72.6994 10.6015
817.911 79.1042 11.934
692.14 71.6337 10.5389
802.052 72.2678 10.7997
745.657 75.885 11.4686
826.843 79.9825 12.4492
769.628 74.4311 11.6385
664.242 78.9189 12.3757
722.536 79.3853 12.7021
803.642 77.9216 13.0275
691.178 77.9594 13.0052
726.419 82.3374 13.3486
705.252 75.4178 12.6046
669.179 78.5529 13.3021
655.389 75.1299 12.6074
674.99 74.4061 12.7009
773.739 80.8203 13.8146
670.329 73.0316 13.0449
625.926 79.9236 14.0335
702.313 82.0322 14.693
689.099 74.5913 13.374
614.075 75.2811 13.7413
608.381 69.8056 13.2203
652.024 75.7151 13.7983
654.828 80.8902 15.4039
611.485 76.1934 14.5515
635.441 74.7074 14.1932
671.615 81.9896 15.7662
591.522 73.7856 14.7513
569.3 72.4937 14.5589
638.547 81.1474 16.365
650.028 75.425 15.3535
578.749 77.2185 16.0161
556.493 70.5806 14.4529
586.386 74.2502 15.6413
593.801 73.5495 15.5706
553.084 72.8543 15.4227
537.132 74.6997 15.9915
555.198 74.626 16.0752
546.897 74.8901 15.9289
556.332 74.3546 16.109
494.14 67.6521 14.9573
529.233 79.3709 17.7974
484.41 70.0185 15.394
590.964 75.138 16.7023
534.579 78.5845 17.6087
532.784 80.9602 19.0531
584.146 75.6063 17.745
483.526 72.9919 17.0395
466.073 72.9448 17.0572
504.531 77.3246 18.5191
464.336 71.0695 16.8634
448.445 70.085 16.9711
507.296 76.9917 18.7164
422.25 69.0425 17.6686
447.001 69.7336 17.39
445.604 77.0354 18.8455
470.916 75.0551 18.96
442.558 68.6268 18.0882
425.83 66.7134 16.9079
440.289 70.1373 18.3729
438.144 68.1015 17.9329
418.997 74.2814 19.3671
435.703 74.7359 19.7495
417.764 76.5436 20.675
450.878 69.3219 18.228
404.714 72.0772 19.2956
470.774 73.7643 20.1919
392.065 70.5038 19.4321
409.087 70.8306 19.9481
415.529 73.2778 20.6823
429.985 73.4051 20.6037
440.527 71.9761 20.2077
370.294 72.177 20.3285
364.159 66.3264 18.7055
412.647 66.3381 19.2846
363.441 67.3703 20.1376
402.081 70.2279 20.9656
383.549 72.4919 21.2591
425.439 73.9282 21.6503
399.859 71.4791 22.1604
385.629 73.5178 23.1431
428.094 75.3636 23.8384
396.812 75.7939 23.3181
400.073 69.6255 21.8022
408.807 72.4502 22.4415
406.003 77.2562 24.4786
372.379 69.7743 22.6037
351.151 71.9488 23.4884
399.885 70.7171 22.9854
406.669 73.2491 23.6123
361.422 71.3086 23.2609
399.262 72.8583 24.7577
365.527 64.4594 22.0302
330.547 68.9454 23.2919
344.012 70.1122 23.9728
357.272 70.7145 24.0267
347.973 70.4026 24.1764
386.356 71.46 24.9732
325.461 69.5203 24.9072
299.56 72.438 25.037
364.712 73.0375 25.4029
326.842 70.8823 25.0839
336.958 74.0527 26.6904
353.56 71.1322 26.0807
325.59 68.7964 25.447
321.306 67.6851 24.904
387.123 70.9658 26.4508
376.92 65.2594 24.3571
424.551 68.1094 25.7336
489.855 68.4166 26.3966
400.645 67.7802 26.3456
297.413 70.4455 26.5031
365.191 69.316 26.6834
541.988 67.5842 26.7621
518.248 69.8011 26.76
421.077 68.3653 27.1195
368.555 69.4231 27.7458
370.412 67.4372 27.1572
324.255 71.2331 28.6378
332.875 66.275 26.9767
282.768 72.3657 30.042
291.614 70.9479 28.5498
294.482 70.5042 28.9969
278.859 68.0062 27.9594
338.549 73.3132 30.4948
327.681 65.4883 27.6136
305.147 73.3692 30.7312
284.273 66.7148 29.4252
293.971 68.0573 29.1626
305.801 65.1231 28.0534
268.485 69.3092 29.9084
275.497 64.5635 28.6025
241.46 69.5944 31.0243
255.821 67.4208 29.4285
231.208 66.2407 29.0228
268.372 63.4852 27.8063
264.192 65.2355 29.1467
268.274 64.9714 28.9371
253.147 70.0508 31.9205
232.045 65.4822 30.5426
259.11 63.8237 29.0742
272.488 70.5129 32.3335
256.683 65.8074 30.3571
244.937 67.2828 31.6515
253.968 70.0542 32.6733
242.541 66.7552 31.9739
279.622 70.6598 32.699
267.121 75.1032 36.2364
290.369 67.5338 33.2571
286.772 70.139 32.8625
261.224 62.3074 30.4397
232.66 61.0996 30.6567
288.38 60.8793 30.881
260.704 59.9985 29.497
238.927 67.4407 34.0122
218.271 68.8356 34.0328
272.094 60.3481 30.4733
252.111 72.0093 36.6326
238.152 68.0329 34.5072
251.984 64.736 32.903
242.624 67.6239 34.1592
227.404 59.5858 32.2074
228.792 65.8669 35.3446
242.449 64.2003 33.0989
225.335 66.9038 36.4565
220.115 61.1532 32.2856
221.028 64.8372 34.3055
238.503 66.9257 37.0228
209.521 65.3628 35.7817
236.07 66.2537 36.1591
229.508 66.6713 35.4706
209.182 61.3884 33.6809
212.367 67.4541 36.9246
198.968 59.8889 33.669
187.527 60.4993 33.8884
191.096 63.0951 34.9278
216.821 65.527 36.6984
217.817 62.5948 35.0876
205.673 64.411 36.3016
198.425 64.2087 37.0877
242.231 67.9379 38.9486
238.862 66.5381 38.7732
223.411 64.5267 37.8685
203.009 64.4066 37.7977
206.151 62.8525 37.0536
215.283 60.9362 36.1759
194.106 62.4608 37.2981
183.154 62.4946 37.1112
211.016 68.0562 41.9817
199.656 64.5224 39.9681
198.267 66.8639 39.7519
201.402 63.6026 38.1227
179.3 63.7609 38.6546
206.014 65.4535 40.2358
186.8 61.3497 38.5749
192.468 64.5396 39.6898
221.576 67.5816 42.3554
200.359 66.9705 42.1671
204.732 63.7952 41.546
167.182 62.0206 39.6104
205.532 59.7514 38.2205
199.466 64.023 40.2404
187.457 60.7964 39.6066
213.768 66.1933 42.4018
172.681 59.3879 38.3789
170.951 63.4767 41.1477
166.398 60.9786 39.8144
207.665 61.6058 40.8113
179.324 62.2082 41.12
166.594 62.06 40.9749
164.4 63.1203 42.1844
178.078 62.3626 41.7958
146.425 60.2108 41.3487
153.463 61.343 42.1334
179.216 62.2001 41.5033
156.859 59.4238 42.2849
175.623 66.9101 45.3883
160.123 59.7965 41.1953
159.866 64.0147 44.6658
155.311 57.5295 41.6796
143.941 55.91 39.4534
148.819 62.0293 43.2104
156.622 61.8333 43.3696
189.003 59.7943 40.9344
161.617 62.6541 45.4145
164.051 61.9833 46.3018
164.207 63.4381 45.6008
172.055 61.8495 44.3977
177.272 54.8276 41.7057
153.595 54.1897 40.0989
162.397 61.9064 46.5222
188.056 63.1338 45.5053
147.552 62.6375 45.6717
182.223 57.854 43.3932
135.788 54.9577 42.3313
168.257 58.0602 43.2023
171.413 66.3075 50.2011
157.495 55.8243 43.2952
162.671 64.4655 48.1639
163.802 58.7825 44.5652
165.737 57.9376 45.0318
150.805 57.3435 44.153
158.028 65.7787 50.2091
143.04 60.4754 47.8751
152.858 64.4833 48.5916
150.54 56.3474 46.0169
147.598 55.3811 44.2975
132.83 56.6064 45.705
171.555 63.1422 50.3031
156.179 64.3488 51.8369
135.432 57.6758 46.2907
150.718 60.7343 49.709
144.288 60.9403 48.6389
118.86 58.0652 48.1458
145.732 58.4032 46.9392
138.303 56.573 46.684
144.539 58.9873 48.1464
128.108 61.0386 52.1559
142.148 57.0466 46.8198
141.403 54.4779 46.0528
129.648 57.0754 48.8501
141.396 58.2819 48.323
130.197 58.4942 49.2309
135.388 62.5132 51.4982
132.182 61.8597 52.6941
138.007 52.8361 46.878
124.445 58.4703 50.1181
131.427 59.1161 49.9086
144.261 56.9599 50.672
128.036 62.186 53.6122
123.492 59.3432 51.6907
115.22 59.306 52.4736
137.439 58.7208 51.5976
124.276 56.1739 50.9885
113.11 54.6219 48.4801
117.776 54.1075 49.7145
121.113 62.2503 54.9835
135.909 55.6455 49.4263
138.077 60.5571 54.7732
142.832 58.5065 55.1576
117.381 55.3452 52.5318
120.097 54.4908 48.5636
128.216 57.1182 52.561
138.725 56.212 52.3102
134.553 59.1503 54.7417
129.992 64.3756 59.8356
131.043 59.4115 55.5174
133.53 56.453 53.461
129.197 58.5261 54.531
117.795 54.6699 51.7356
103.385 55.2113 53.376
114.274 56.5611 52.4591
140.726 52.5307 52.5139
117.913 59.0222 54.2534
112.031 53.3678 52.2334
130.257 57.0779 55.5352
141.906 54.0893 52.8795
126.119 55.0082 53.2834
117.257 55.32 51.8027
125.786 54.5544 55.5226
114.526 52.5383 51.2335
129.126 56.9023 56.5952
119.831 55.2753 55.6402
109.812 57.9391 55.8972
123.72 56.4104 56.9221
131.627 53.708 53.7726
131.661 58.7213 59.7434
126.958 59.7929 59.8383
124.067 56.7777 55.0648
116.917 57.9811 59.2155
100.665 54.3291 55.5383
132.48 56.5967 58.7123
136.683 52.1548 52.8073
117.449 54.9277 58.1499
131.048 54.665 56.3683
100.862 54.3746 57.3333
112.831 58.583 60.7327
129.933 59.6009 63.2773
139.15 55.4513 57.7746
103.864 52.0485 55.6552
131.027 52.34 55.6094
133.504 51.9834 56.6241
115.5 53.4183 55.8611
115.535 56.609 61.4841
122.1 57.0318 59.0169
114.489 55.7164 60.1811
147.476 54.6047 58.9346
126.588 52.8032 60.1414
100.976 57.0746 63.3483
122.293 58.2001 65.0009
105.021 57.8947 63.8165
119.581 57.6782 62.7511
112.016 53.1897 59.517
125.791 57.7552 63.4449
102.592 51.6101 58.7412
113.364 54.4735 58.3745
110.985 48.2993 59.2483
125.417 58.9966 63.1753
111.844 54.4989 61.0414
100.953 55.4039 64.7295
106.187 56.0169 62.8917
95.5414 59.3782 68.134
120.919 53.4192 61.3349
104.453 59.9387 67.7518
117.504 54.2278 61.1069
91.0551 56.1698 65.0705
104.907 54.7551 64.4058
95.2512 54.4113 64.1376
108.641 52.2654 63.1551
93.7038 50.7973 60.09
103.127 53.4983 59.4604
121.428 54.2744 66.3826
126.581 54.8066 63.6355
94.8083 53.1134 64.8322
113.376 55.0922 64.2035
110.933 53.2247 63.3286
114.612 51.6031 61.5939
96.5715 58.0147 70.3598
95.1932 51.0755 62.2303
118.767 50.3815 59.0939
95.8422 50.9994 62.9064
126.719 52.3404 65.5835
100.376 52.7868 64.8936
110.45 54.6154 68.4456
100.578 54.3239 67.6391
116.38 52.3811 64.6283
97.7171 54.1649 68.3231
97.2329 59.1631 72.1978
128.806 56.6775 67.7228
106.723 49.0186 62.5819
95.4297 53.5453 66.4488
96.0001 56.9991 70.3614
100.453 52.613 69.0318
92.3142 55.4938 70.1683
83.8246 48.3519 62.6171
94.1827 52.6896 67.526
87.147 49.64 64.2701
82.9596 48.0963 61.6848
102.395 52.5149 66.3514
81.2129 47.6681 63.3129
79.3102 54.1578 67.632
83.8565 53.2102 70.2864
91.9515 50.463 66.2443
107.954 51.1767 66.3475
89.887 52.3078 68.0837
85.1588 51.9909 70.3777
80.1543 52.2471 70.2875
131.151 49.5382 66.5684
90.6981 53.3703 70.3358
86.6739 51.8723 70.5512
89.9009 50.8756 67.9367
77.6588 50.4862 65.4416
92.4393 54.4474 76.1818
77.4645 52.0602 69.2112
92.5576 51.04 67.3883
89.5846 50.4452 67.256
95.0425 52.1244 72.712
117.074 52.5557 71.4181
85.9031 49.2834 68.7479
86.5856 46.9756 67.3587
129.864 50.8693 67.2452
96.4303 48.3361 69.9299
111.611 50.3572 69.8703
80.9966 50.8936 70.5088
91.7248 50.9855 71.3544
82.4997 50.6483 72.3275
97.4755 53.4346 71.8885
81.7441 46.9355 67.4157
90.6755 51.3261 72.7794
91.4093 51.4121 71.1031
86.8463 51.7444 76.2517
98.253 48.5304 69.4427
75.6187 48.3396 68.6805
81.4329 47.7211 68.8016
97.5885 51.798 70.7703
91.4073 49.5509 71.0451
84.8575 51.3228 73.5172
75.4601 50.3598 73.9536
88.2721 53.539 77.6672
68.5271 49.4165 73.5945
72.3312 50.6612 72.2702
79.4253 48.4622 73.704
68.5463 48.4887 73.5831
75.2968 52.4524 74.0299
80.5949 47.3604 70.3166
89.1421 47.5936 72.758
70.2352 47.464 69.1582
79.7658 51.4702 78.0776
92.9486 47.8559 70.0571
73.7488 47.1712 72.6179
88.2316 47.9172 72.6777
68.0555 50.4809 77.5171
93.3007 48.4745 72.7155
81.8922 47.023 72.3073
88.0372 50.5613 76.4997
73.7265 52.3736 80.9369
87.0939 53.9037 80.7244
80.223 51.4833 76.6391
61.9365 45.3916 71.5882
64.7045 48.5478 76.01
75.1348 48.2447 74.6077
74.8884 49.7949 77.0827
83.7931 50.4378 75.9348
75.3731 46.9655 75.615
83.217 49.8794 81.425
94.0494 48.5685 75.3141
74.8319 49.6709 80.3707
83.3105 50.9137 81.3714
65.7025 48.3828 75.5962
75.6216 47.9664 74.9013
70.0436 46.7616 78.3484
91.9926 47.7062 72.5394
87.5326 47.8368 77.4908
73.1989 49.8424 78.3797
60.7775 46.0494 73.8501
80.5345 48.8519 81.255
85.5233 52.5905 84.9356
74.7604 49.8631 81.2723
66.7602 50.7165 79.4932
82.6947 46.9199 75.493
77.5498 47.2964 75.3981
80.8634 47.4183 78.7569
65.8739 46.8844 74.5708
73.2238 49.0451 82.7208
102.041 48.0409 80.5696
90.2084 44.3395 74.9018
68.5054 47.7567 76.0282
72.1665 45.5987 76.184
72.4742 51.4504 87.4035
69.523 53.0063 85.1249
68.9555 47.1595 80.5141
65.9408 50.6743 84.7293
82.6088 45.4705 77.0726
74.2559 47.4385 80.7659
87.551 50.8867 84.1278
84.0837 47.7589 80.9168
83.7506 47.1262 79.5449
62.6111 45.8139 79.6537
77.6313 45.5816 76.8504
75.6176 45.7195 81.2108
71.187 49.0039 83.4648
83.291 45.7348 79.9722
82.0932 45.1601 81.0432
79.4435 48.7884 83.034
69.6938 51.2931 91.2973
78.8039 47.7582 79.6565
67.0833 48.9119 83.8951
61.488 44.8347 78.1383
68.5438 47.7303 82.797
78.9505 46.5061 80.5266
64.1783 46.6385 79.1794
76.49 49.4374 89.2071
71.0275 49.9034 86.1038
74.8255 45.3008 81.7407
61.1322 50.0315 88.0918
75.7422 49.7993 90.2215
66.8315 48.4874 83.2086
76.7893 45.488 84.4572
79.6494 43.4676 77.6935
79.6245 44.3672 82.4906
80.6835 47.7939 83.1503
67.9881 46.1015 82.3186
76.6543 49.121 91.8501
71.9955 49.5222 89.8572
74.9682 44.9754 83.0234
67.3592 45.8384 84.6474
61.3245 45.3985 83.9566
72.8616 47.0727 84.5956
69.2385 44.9739 88.0379
72.284 46.0256 85.1555
67.3826 42.6739 79.1603
96.3812 48.9128 89.4298
79.8991 50.1008 90.6105
55.3633 44.5548 81.8501
80.0536 45.8855 84.4027
62.8004 41.0822 75.7328
72.273 44.6762 86.8172
61.0507 46.5205 86.0458
55.2017 45.4708 84.4688
69.8059 45.8757 87.3126
78.1815 48.3415 88.2147
57.9089 46.3939 93.4878
80.8226 46.0342 84.9871
59.0953 47.765 91.615
58.2671 45.3881 85.025
57.0594 45.4953 86.2414
83.9418 44.1065 82.6238
67.3551 46.9864 90.5253
64.0056 44.207 89.1551
65.1143 46.9518 86.6139
72.3266 45.6498 92.0421
67.3595 45.4278 86.3889
66.5466 42.9509 85.4056
54.3998 45.0634 87.7607
89.611 44.3547 84.4987
61.2409 44.8535 84.2818
55.7451 42.1719 86.4949
59.1697 46.6591 87.6882
71.5512 40.691 83.4401
60.5866 42.961 87.5893
72.852 44.977 90.5457
68.288 47.701 93.0257
59.8591 41.9231 83.2765
57.3462 46.8389 92.2485
73.0292 44.8665 89.9587
74.5928 41.9507 85.1525
62.4653 47.6366 95.2834
53.3465 44.6699 88.5196
53.0793 45.7419 88.7114
62.4277 45.032 95.6709
52.1572 45.5197 92.2002
51.1915 45.8187 90.8543
47.4179 43.8713 87.6035
63.1501 41.2012 86.4058
51.0063 43.5737 88.9231
47.0202 44.2825 86.8698
57.0368 44.6355 91.4784
51.0054 42.6654 87.0809
66.093 48.8 100.664
54.0355 42.5212 83.8092
43.7231 45.483 97.9115
50.304 43.4769 88.3441
53.5597 46.1917 97.4435
57.5117 47.0326 97.157
64.2108 46.1623 91.2219
62.5014 43.3842 91.9935
54.4747 40.3211 82.8374
54.5124 44.5333 96.4365
49.2447 43.8028 89.847
57.1846 46.6421 98.8206
51.1318 41.3827 92.3565
57.325 43.632 91.5014
55.8068 46.4016 99.5602
58.1078 44.0185 90.7087
57.2997 43.6896 90.574
58.9488 42.715 94.4455
62.0207 46.3302 93.5394
51.698 41.5354 88.901
57.4182 45.0815 98.0179
66.4157 45.9564 94.5768
62.3193 41.4231 90.6251
62.3713 45.6252 99.1851
49.2959 43.7692 95.131
57.6208 43.9476 96.9337
55.1828 43.1749 95.9931
49.7104 45.2617 95.2912
54.0913 47.6204 104.86
60.7269 44.2158 97.6053
52.5323 47.634 102.715
70.0954 42.6554 92.4473
51.1185 40.3046 90.4387
59.8842 46.4963 102.303
66.5873 40.856 90.0774
61.7689 44.7902 100.231
58.599 41.9145 96.1594
67.1403 43.7579 90.6335
56.5732 41.2773 87.2212
63.5699 45.9033 104.395
68.7871 42.4954 99.7319
57.3154 41.7794 91.5292
59.0507 46.6436 100.974
60.6025 42.4132 96.1472
57.2507 43.8945 99.502
67.7064 43.2625 98.3097
59.9935 45.9753 103.234
39.268 43.7798 102.9
51.5021 43.3485 92.3972
66.8834 41.3329 93.3064
58.0861 40.2805 92.7706
58.7454 40.7176 90.8975
60.2503 40.357 94.773
52.0198 43.7296 100.904
66.1085 46.2152 107.628
73.5693 45.0812 99.5492
55.8191 41.6792 96.4847
46.8911 43.592 104.831
57.1696 45.1593 98.8396
55.1343 40.9205 95.9877
61.0657 45.1489 99.5771
58.3998 42.0584 95.8911
53.1511 45.385 107.412
60.2951 40.6453 92.7022
65.5066 42.3641 101.843
62.3822 41.4014 95.3514
54.1546 41.1741 92.4293
47.9703 44.1418 103.543
54.0616 41.5773 96.2244
50.3851 42.4825 103.36
59.3301 44.1325 99.5481
54.3286 45.4777 100.737
52.4716 42.0751 102.693
57.3284 44.118 104.68
69.9091 40.8483 104.149
58.3046 43.2885 98.1603
55.1775 42.6905 102.516
56.7222 43.0657 101.257
48.3915 41.7476 102.923
61.0774 40.6497 90.0177
52.5148 39.8382 99.775
66.9873 48.1218 110.986
70.7639 43.7382 104.16
50.0695 41.264 104.374
58.8976 39.9843 101.22
67.2148 43.657 102.147
72.5763 42.8827 101.714
40.6196 40.1551 96.7026
70.4721 39.7614 93.1758
72.1029 38.1622 96.721
62.7247 40.812 100.973
52.1496 40.1535 97.917
58.5644 43.3591 107.462
69.1194 44.0285 107.289
53.9239 38.9081 96.9151
67.1484 43.0736 106.145
55.536 39.8367 99.8374
56.8589 40.6575 97.0193
57.098 42.582 107.426
72.5095 43.2605 107.448
64.0896 39.476 98.3484
65.8858 43.6854 104.339
59.8881 41.2446 103.946
57.1381 42.584 107.312
46.9759 43.5284 108.128
57.6485 42.315 104.115
58.187 41.4496 103.758
53.3868 41.9964 107.036
50.4533 43.381 111.244
56.6854 41.5277 98.071
49.6586 41.2258 107.361
64.5847 40.8805 106.1
49.9571 38.8503 95.9994
56.0489 40.428 101.718
62.3903 44.477 116.936
56.111 42.7986 104.039
44.8659 43.2245 113.53
65.322 42.4151 102.957
69.8105 41.0584 108.183
63.6229 41.9979 106.868
46.5803 42.5961 112.003
46.9767 41.9072 102.183
61.2041 41.6154 100.517
47.1827 39.1173 109.2
52.4246 39.1595 97.0579
55.1003 43.2962 114.366
71.1272 42.6744 103.199
56.1612 40.0515 108.606
50.6964 40.6159 105.762
53.0509 38.3762 102.083
48.2036 39.6364 109.905
58.3087 43.9135 107.597
44.3058 41.187 103.673
41.7099 40.259 106.438
52.757 39.9454 104.957
50.786 42.9558 109.52
54.3566 41.5521 115.154
45.88 37.0096 96.8963
56.4324 38.6996 97.0043
41.6962 38.7973 104.778
52.1718 42.0526 110.299
55.032 40.049 111.263
39.5088 39.3675 101.53
51.2837 44.4908 115.536
47.089 39.5173 107.136
48.8109 41.9898 109.969
42.9351 39.2638 107.434
52.3574 37.0477 99.6798
46.952 40.47 106.683
43.3041 40.558 111.543
40.5433 41.5927 111.721
46.7643 41.5502 114.818
46.092 38.0781 102.541
47.7401 40.3992 109.839
43.2815 37.4734 99.9458
50.5579 42.9527 107.119
59.4586 41.0885 109.181
43.0433 38.9781 111.796
40.827 43.1845 112.271
48.6004 40.2049 109.826
48.3926 35.9696 104.013
40.3103 40.0065 103.497
48.5841 41.3936 115.157
44.9145 40.5248 109.238
54.24 40.1506 108.787
42.2391 38.9588 105.228
50.082 39.2534 113.858
40.0648 40.426 106.271
49.0926 35.3448 104.34
50.8464 39.7742 108.993
59.5188 40.0634 110.372
49.5402 38.3872 109.71
37.8976 40.3518 108.637
47.9097 39.7439 107.893
52.8764 39.2567 110.552
50.5081 35.7059 101.504
47.5405 39.2296 106.975
35.5036 36.8647 106.917
51.7269 40.5108 110.935
42.7908 39.1252 105.446
40.8604 40.2788 113.47
45.1839 39.491 106.001
52.4066 39.2187 114.888
47.5248 38.5792 112.976
45.6559 40.8731 119.221
43.1943 37.1193 103.235
47.2891 41.5541 123.17
52.5343 40.596 110.13
47.2339 36.9058 105.684
43.5583 38.3535 110.394
48.229 37.9043 104.621
47.5017 38.2895 110.702
39.9995 39.6183 117.573
48.7392 37.9909 107.801
51.788 39.6675 114.988
46.5458 42.5185 123.292
46.6215 38.8799 108.742
44.1395 40.9163 109.606
37.7761 35.6219 99.2711
46.5268 38.7056 112.528
45.0813 39.0266 102.73
43.3706 36.6812 112.942
48.4807 38.1486 114.784
54.92 37.564 108.499
46.9688 40.0504 113.03
41.63 36.6387 105.251
43.693 37.1742 112.377
47.6106 36.4368 110.144
41.0923 35.7502 97.2766
41.6639 40.3853 119.451
49.6298 34.7064 105.725
50.1351 40.5594 120.603
43.036 42.5366 118.61
37.3389 37.7591 118.741
41.1692 38.5063 109.855
43.7886 37.6537 117.26
39.7738 36.9562 117.211
45.3041 41.8044 117.894
47.7272 38.5786 108.859
38.3004 36.3816 112.588
36.3741 38.1308 117.102
41.5634 40.7057 110.481
46.6565 38.4444 111.382
39.6368 38.2769 115.054
50.2853 39.5967 120.874
48.7926 39.5015 118.36
38.3882 37.4785 108.155
41.3543 36.0816 109.634
44.6141 40.6576 119.088
50.3208 38.6473 118.015
41.7884 36.51 110.904
39.8879 38.3388 115.724
48.3493 41.483 121.988
45.2492 39.4088 117.558
44.9781 36.7633 113.788
41.7539 38.6284 113.117
42.3456 39.1139 119.81
49.571 40.3919 121.416
45.0739 36.9566 111.106
39.3486 36.8993 116.008
40.2893 38.1871 112.51
36.5077 41.5575 120.538
56.8539 39.3444 123.041
50.5076 37.9001 118.218
48.6375 40.286 123.548
36.2576 38.7486 116.493
44.8124 35.2595 103.474
37.7583 38.9353 122.308
35.7097 37.1369 119.974
45.571 38.1074 121.894
47.9167 41.282 118.324
44.2645 38.4046 114.223
48.2775 37.5378 118.998
47.7567 39.3036 117.359
49.3265 35.1408 113.082
34.3812 38.1622 118.646
38.7055 36.3129 112.189
45.718 34.8391 108.245
49.7148 39.2668 122.853
38.6613 42.5237 123.868
45.7291 36.3216 117.066
42.214 38.1012 118.895
35.9144 37.941 118.839
38.5035 38.9938 119.971
36.7925 38.4649 123.975
35.0661 38.3201 123.951
38.528 39.1498 113.608
38.9865 38.5276 120.045
40.8137 36.6499 110.577
40.8921 36.2056 120.853
35.732 35.6375 111.146
42.2542 39.6736 122.648
37.116 37.609 110.11
41.6217 38.3857 122.7
45.6616 39.3748 125.605
42.3835 41.8889 129.784
48.4583 38.8574 121.753
38.9594 37.9256 122.884
34.1122 37.1448 116.323
35.9018 36.6913 120.573
44.7298 36.3383 110.89
40.6775 36.1933 116.935
43.1147 35.6443 119.391
53.8013 40.4218 127.353
51.5782 37.4823 115.162
35.4594 34.7265 107.869
32.4215 34.7662 111.155
38.897 35.2709 119.591
34.0218 39.9322 119.865
40.8947 38.8543 119.18
38.2807 37.2981 125.062
37.8427 36.5537 115.665
37.7842 37.2193 119.527
44.8081 36.4249 118.237
43.279 36.9394 119.922
39.1727 36.9392 119.537
40.08 35.5246 113.499
50.5277 36.2653 118.2
40.5255 37.78 116.066
39.6181 36.7328 121.867
40.8494 36.2394 122.21
41.429 37.3541 114.805
43.452 35.2263 122.625
49.2606 39.1502 123.735
41.0646 35.5585 117.836
43.2857 36.2744 119.005
42.1429 36.2006 119.023
35.978 35.5869 115.216
36.7173 36.2946 115.984
44.7107 36.7559 117.421
34.6566 36.2737 122.527
37.6331 37.8734 125.543
37.8916 39.3697 125.423
31.5025 36.5716 122.496
37.1511 36.5502 122.056
39.5943 37.847 117.22
33.2845 38.2772 131.812
33.1186 36.0282 122.495
39.5365 39.0648 129.171
42.9863 39.6876 129.21
40.6618 36.342 119.725
48.4492 37.1716 121.328
52.3469 36.4329 117.678
47.6002 34.9154 119.225
42.8251 33.6962 112.844
39.7478 35.6083 115.496
34.8457 35.1307 110.689
45.9166 32.2336 118.824
50.7613 38.0101 124.506
42.4825 37.6868 118.783
32.2619 35.4277 122.549
40.8579 37.7407 126.383
49.1233 35.3022 116.139
33.3916 35.4542 121.258
39.2996 35.5609 120.363
40.9095 36.1849 123.948
34.8235 32.5799 111.401
37.2824 35.9361 123.192
33.9923 40.6172 123.82
37.5691 34.5325 115.6
46.0618 34.591 116.883
43.5331 32.8665 119.073
31.0626 37.346 124.014
41.6043 38.6954 127.69
43.9471 37.4306 130.167
40.5846 39.3183 128.463
35.4146 36.5764 135.165
33.2709 37.9426 130.561
43.7197 35.0254 114.81
43.6598 36.9723 134.403
37.9649 38.2837 123.106
37.3954 34.1831 119.169
47.7913 37.5073 121.611
45.5426 34.6049 120.372
46.0951 35.8311 119.933
46.5594 38.5278 134.961
34.6983 36.6279 125.664
41.2191 33.5599 114.317
39.6386 35.3911 125.972
43.0548 37.6144 135.353
37.9177 35.0819 116.701
39.9137 38.4878 131.39
39.3405 40.4489 132.632
40.7929 34.0209 119.878
32.7579 35.2829 128.429
38.3063 38.4818 130.803
41.8296 38.166 130.124
34.289 37.6039 125.249
39.2784 39.7447 133.924
40.4599 34.2592 117.226
40.1345 35.0463 124.682
31.3334 37.3054 134.132
41.2551 37.2182 135.474
45.3558 37.7367 122.981
34.7314 34.317 123.309
32.414 37.5848 122.993
38.5903 37.3844 133.265
40.1943 36.4789 119.405
39.0871 35.423 120.516
45.9036 33.7255 121.13
41.4172 38.9572 131.843
46.7318 34.1387 129.927
34.949 35.132 115.39
40.3691 34.1473 120.385
39.7058 35.7741 124.106
38.8176 40.3761 131.706
35.1111 34.5677 119.809
34.6818 36.5969 130.121
38.8424 35.3552 127.663
39.9983 34.9661 126.414
38.2893 36.3422 126.344
27.25 35.0304 121.731
42.1438 34.7166 122.244
40.9227 35.1448 134.384
33.1924 35.2905 126.424
43.5653 39.2364 128.9
34.0164 37.7466 133.578
38.2575 34.5932 126.171
37.5578 35.6082 125.176
31.1064 35.9144 126.896
30.263 34.8225 125.822
30.5201 36.9845 131.099
32.646 37.7884 130.165
41.3006 35.5191 122.245
40.7133 34.6539 125.285
38.601 35.467 121.793
38.4522 36.5653 140.312
44.6697 37.5936 133.453
37.1954 36.593 128.486
36.9811 35.8276 123.789
44.9475 36.0244 135.04
51.1973 37.1136 129.347
44.3972 37.7486 135.534
42.0644 36.7691 128.983
44.3931 35.8434 125.429
44.9763 36.3569 129.603
40.8436 35.3155 132.632
45.591 35.8706 128.44
31.8699 38.2886 127.702
42.0409 36.1546 129.328
29.431 35.1637 128.035
48.3289 34.3725 127.874
33.2196 38.1753 131.209
38.0283 36.1292 130.14
32.2891 35.7875 128.475
32.1826 35.2818 124.096
28.2372 35.841 133.017
32.6234 33.0903 120.945
33.2282 35.5081 129.465
47.2232 36.2786 135.821
46.8066 36.8929 131.662
37.8485 36.9544 132.15
36.4211 35.3433 137.107
34.1989 37.2406 130.176
42.5205 40.8611 139.129
41.4304 35.9392 139.291
41.2808 37.0901 124.604
35.2766 32.1175 122.026
35.3558 35.5583 127.927
33.0709 33.333 122.263
35.6352 32.1577 128.99
37.8953 37.836 127.833
34.5396 34.0109 124.362
30.5189 36.3067 128.64
42.5386 36.6782 137.209
39.0858 35.2968 121.793
31.483 35.6517 136.638
26.145 37.1595 132.931
31.1983 37.1101 136.044
31.7169 36.5963 130.513
33.6789 34.0496 128.706
34.7848 34.1922 134.953
35.2584 37.5017 128.832
35.6113 34.0746 123.607
54.6241 36.5137 137.153
32.6961 35.9372 122.416
39.4087 34.4756 126.744
34.4429 35.2251 123.943
54.6109 30.3887 118.509
38.3604 35.0666 132.185
41.1066 35.3847 131.438
39.9532 36.0572 131.361
48.6842 34.0402 134.331
43.8211 36.1744 135.661
32.8112 36.9353 127.414
33.4926 35.6195 131.022
39.3168 35.8784 133.221
34.8745 34.0534 127.115
31.077 34.6361 126.329
33.7017 34.2644 139.276
37.5201 34.6908 121.049
35.2004 34.7426 126.879
33.4625 34.3662 128.468
38.8514 34.2566 129.628
31.0555 36.111 133.478
30.1403 33.9303 126.03
37.6211 30.5342 121.02
39.1243 37.3501 133.643
37.8835 32.7807 124.099
34.7729 35.1985 121.786
36.2846 32.1861 123.436
32.0888 35.8181 139.637
38.9539 34.5581 125.343
36.2578 35.494 131.732
37.9149 34.3892 131.739
26.2726 35.7109 126.515
35.6574 33.8866 129.784
39.7832 35.9339 134.735
43.6393 37.683 133.012
38.673 32.2319 126.702
33.3035 34.4049 128.629
35.8659 34.5003 121.974
29.736 32.8163 132.041
38.4221 33.3648 126.718
33.7097 35.2869 133.636
32.1834 36.3968 132.473
29.4298 33.4853 124.199
32.2306 36.0207 134.78
36.0446 33.5128 127.943
40.0679 31.723 120.992
43.4822 32.2139 130.507
31.1574 35.0212 143.859
36.2532 37.7831 128.577
32.9308 35.2603 136.732
26.6078 35.5174 130.975
35.1875 33.7857 117.028
29.6166 37.1029 134.931
42.7864 31.7714 121.268
39.5314 34.0749 133.379
29.9778 34.1281 129.704
28.8609 35.6268 126.94
27.3155 32.6101 131.879
38.7656 35.1023 135.756
30.3655 31.5709 125.937
30.6074 35.7893 124.544
34.2969 32.8618 135.49
33.0985 35.1029 131.513
35.2232 34.8295 125.19
36.2401 31.8781 125.228
34.2907 34.233 135.804
41.8042 36.7492 131.506
39.4703 33.2114 127.377
30.9804 32.7791 125.385
36.9459 32.8918 123.783
27.3048 33.3244 124.636
34.0166 32.6569 130.663
30.9849 31.15 124.866
37.241 36.1583 137.528
33.1879 36.227 129.483
32.4528 30.8659 133.162
45.5668 34.4446 119.26
35.6328 31.227 122.561
31.2195 31.4784 121.11
35.1407 35.2302 135.818
42.2777 33.7973 133.537
40.7667 33.7279 135.762
29.8559 37.6695 138.206
40.906 32.6958 128.688
32.7378 34.6247 121.873
38.6273 32.4257 126.659
40.5204 32.7706 116.377
44.4195 35.4153 139.053
34.2444 32.5116 131.979
29.3139 33.8067 130.67
35.4375 35.2773 131.186
32.191 32.8095 126.242
25.9146 34.0314 135.121
34.5779 33.7726 133.319
36.3051 32.8654 133.228
33.4501 33.8986 119.168
30.1737 34.6868 131.485
36.4219 31.7412 132.192
30.8229 35.8704 130.902
32.7879 32.5115 133.997
30.8009 37.5784 131.194
40.268 33.8679 127.989
40.0881 32.3342 126.225
32.1071 32.9134 118.975
29.4477 33.0972 145.041
40.9812 33.1269 128.676
37.591 37.5851 137.779
28.2094 33.4726 129.461
38.8509 34.17 127.715
33.2356 31.9963 127.13
33.2231 34.2779 138.535
33.8815 33.677 132.082
39.7691 36.2457 139.961
41.7585 36.0008 136.182
34.0947 36.2757 137.007
45.0742 36.0202 131.653
31.2897 31.5086 124.268
29.087 32.842 128.225
32.9274 33.1356 129.993
37.8465 32.0819 136.046
40.5795 36.1043 133.534
28.7988 35.8391 145.161
31.3192 35.7547 135.053
28.1269 34.4281 133.637
36.1493 33.1686 140.199
39.7624 36.343 138.311
33.3688 35.6231 140.302
31.038 37.5591 144.263
33.4286 34.0929 128.449
37.0503 33.1014 140.511
33.0929 33.3207 123.897
31.3724 33.9809 127.471
33.978 31.2535 124.714
38.1722 33.4234 131.184
33.1756 34.5398 137.462
30.5858 32.4648 120.426
34.1732 34.2847 137.756
30.9876 36.5976 127.286
36.954 31.2732 131.06
33.7331 32.1993 133.572
33.7188 34.1921 131.136
27.2877 34.3322 133.94
26.8103 32.3412 130.691
30.6121 32.7712 122.054
31.2264 37.0169 134.294
31.3831 30.6158 130.612
27.8119 31.9707 125.481
30.805 30.0759 124.373
36.6166 32.9106 122.863
32.274 34.4578 130.088
29.1479 34.481 129.974
28.0436 33.0704 137.863
33.4361 33.4395 127.901
33.8386 33.9956 144.098
36.0287 33.4252 128.869
26.7675 33.8874 130.789
32.5772 32.2935 132.366
26.0239 34.0936 126.414
40.4549 32.6989 123.019
24.7856 33.9128 138.236
32.719 32.8375 133.232
29.8961 33.339 124.648
32.8518 32.7522 126.263
33.269 31.5404 122.744
33.9354 33.4602 134.044
31.4869 31.5823 123.706
31.886 33.9975 137.277
35.8245 33.3822 126.748
24.2737 36.3393 147.334
33.2824 33.2958 139.044
30.1313 33.3147 132.882
23.9085 34.0605 130.289
31.7506 36.261 141.685
35.8362 35.5074 131.555
26.3776 32.2788 137.42
35.9833 35.4469 131.886
27.6972 35.616 136.203
41.8995 32.2892 139.309
26.8329 33.7424 135.759
32.533 35.2587 126.107
31.334 31.4764 135.415
33.1463 36.936 143.339
26.3251 33.1935 134.597
36.3239 34.9535 133.774
31.5622 34.2723 145.837
28.811 37.174 138.647
44.1983 32.3443 130.974
27.7651 31.959 129.111
35.3694 36.8673 126.734
32.0534 31.2872 142.384
39.3673 35.9714 134.373
33.5375 33.2851 128.332
33.7464 35.1366 142.44
28.564 37.6872 136.968
28.835 31.7851 136.729
30.5971 32.9278 127.415
30.7182 33.3746 131.564
27.5093 33.0973 130.907
28.8524 36.0556 137.227
29.4148 34.6405 134.159
31.5679 33.1812 135.376
35.7719 33.627 129.596
31.6567 34.5073 136.461
33.6453 32.4229 124.331
36.4687 34.4779 148.373
36.0036 33.7093 132.671
28.8237 34.9724 132.518
44.524 34.6429 127.131
32.0684 34.2157 129.61
39.5929 31.1637 132.674
30.9577 35.1534 136.759
34.309 31.9733 128.316
38.9583 32.4476 133.729
36.0476 35.3657 140.825
29.0184 34.097 132.635
38.7008 35.5623 126.608
25.2283 33.6661 146.294
34.1305 34.6078 133.114
28.2059 33.6814 136.916
34.9468 35.5349 142.022
31.792 33.4466 135.081
28.4964 36.154 135.878
36.5995 36.0366 135.657
33.8004 31.5295 134.788
30.9177 33.6955 136.597
32.6224 34.7983 133.085
37.4299 32.5822 130.837
36.3864 34.664 128.867
28.9193 32.5645 125.657
33.4692 33.3 138.248
37.6106 33.3534 133.284
38.7104 32.6849 123.651
36.2537 31.8616 129.592
31.971 34.2224 125.663
26.1939 31.3698 135.669
31.9263 34.2735 127.579
37.0657 32.1684 135.464
27.9425 34.0074 135.346
44.1205 34.2777 133.739
32.0776 34.1539 133.951
33.0401 36.125 129.441
36.4987 32.3723 134.623
37.814 33.0727 125.735
34.0802 33.097 135.701
40.2073 34.4365 127.977
35.9665 32.7431 146.662
32.3761 36.0483 150.636
35.4349 36.0992 136.141
33.3688 33.4389 136.384
31.6238 31.1718 132.329
45.089 36.3782 133.012
40.7061 0 0