# pn-170911/CsIIA-39-CsIIF-1280-1959.psd
# Power spectrum* (dif=0,1,2) (really just |FT|^2)
# NOTE: only the first half! (symmetric)
# weeks: 1280-1959
# 443 clock-days, 211 excluded
# PSD: 1441
112056 2.95834 0.0664985
3.86493e+06 46.3746 0.0546794
2.43734e+07 519.089 0.0776708
2.66327e+06 98.518 0.0660519
3.21989e+06 228.296 0.070086
839032 81.642 0.0666627
632955 85.5751 0.0686648
444324 85.6262 0.0772426
331879 81.2227 0.0750668
292925 87.4298 0.097465
215259 80.12 0.0859001
201166 90.0775 0.107253
172455 92.1246 0.108209
138901 85.5827 0.129509
128385 93.9845 0.141384
96335.6 84.8021 0.146128
89237.9 87.0763 0.161646
81004 89.931 0.177758
75572.8 89.6056 0.198641
65302.2 86.5271 0.189944
53196.1 83.1975 0.231631
52552.5 86.5198 0.226416
50437.5 89.006 0.265166
46967.6 90.2333 0.272382
39210 83.8861 0.293312
38171.5 89.5279 0.317016
37129.1 88.258 0.346481
29232.3 77.6662 0.317197
29277.3 79.2385 0.352959
28846.4 84.6991 0.390773
25830.9 83.738 0.410191
25254.3 85.4194 0.470605
24519.9 88.9018 0.500681
21272.4 81.1875 0.47446
21040.5 85.5557 0.506134
20451.8 86.9675 0.553736
17266.4 76.5487 0.544887
17485.5 83.0262 0.61006
17144.2 86.1561 0.635517
16149.8 82.002 0.662071
15276 84.2068 0.712871
14295.1 79.8804 0.707222
13734.6 84.0367 0.762924
13140.7 82.6431 0.749276
11840.9 79.7515 0.794146
12419.5 90.2445 0.929734
10760.2 78.319 0.881113
10856.9 83.9792 0.906325
10336.8 86.3473 1.00684
10734.9 88.2637 1.05243
9706.48 87.1653 1.09493
9435.37 78.799 1.03189
8603 86.3817 1.16017
9778.55 95.4488 1.29556
8258.69 80.9017 1.17925
8350.72 88.0608 1.29382
7729.62 82.1605 1.28448
6650.79 72.6812 1.19099
7264.97 80.0112 1.3017
7194.38 84.8772 1.44426
6764.84 87.5448 1.51758
6257.22 84.3923 1.50138
6549.14 89.0314 1.68354
6459.42 85.9877 1.67241
6185.06 86.0448 1.76242
5944.52 84.9819 1.71575
5506.06 81.8263 1.74645
5311.63 85.5776 1.87257
5541.23 83.8109 1.92134
5239.55 81.6254 1.90431
5180.69 81.8291 1.93936
4656.45 83.1786 2.04271
4869.34 83.9655 2.07075
4983.79 87.3464 2.26998
4686.15 86.405 2.28176
4109.33 76.1627 2.0799
4530.2 84.9373 2.37405
3879.68 77.1053 2.22626
3781.89 78.4098 2.32042
4192.53 77.5117 2.38288
3921.92 81.8023 2.56247
3753.46 84.9987 2.73758
3881.43 80.0001 2.52725
3883.08 82.2833 2.79827
3495.63 80.6942 2.7808
3143.93 77.5673 2.70096
3250.17 84.1738 3.02436
3128.96 80.7655 2.96329
3086.89 77.8078 2.88806
3298.03 88.8202 3.35346
3129.51 86.1469 3.3437
3076.62 79.7878 3.18212
3234.2 89.4053 3.64631
2759.08 83.8414 3.46962
2868.24 80.4285 3.38734
2828.83 84.2336 3.64732
2534.88 82.4703 3.67865
2707.59 85.4105 3.78905
2797.3 82.1308 3.83384
2447.46 83.4755 3.94199
2261.12 82.3989 3.91637
2555.76 88.221 4.35311
2250.18 80.1794 4.01493
2178.34 78.5619 3.95443
2136.32 73.6984 3.77384
2244.26 80.918 4.26136
2129.9 83.1113 4.478
2308.78 88.4598 4.90464
2093.53 80.5629 4.47628
2013.14 80.5674 4.64987
1954.36 81.1278 4.69333
2140.87 83.1504 4.82871
1922.89 76.5427 4.60519
2094.82 89.0564 5.37601
1775.3 77.4434 4.81553
1719 74.2646 4.63928
1731.77 79.8106 5.07218
1663.25 80.0944 5.25379
1616.65 81.7851 5.43753
1576.33 80.7295 5.42857
1631.63 81.2818 5.53461
1493.88 84.3843 6.00777
1499.71 77.0507 5.42422
1533.69 80.8992 5.80097
1480.41 80.2963 5.87968
1458.59 82.5564 6.18881
1437.08 82.0512 6.10832
1371.67 78.9316 6.11501
1299.68 76.8158 5.99153
1261.61 71.5207 5.59215
1368.49 82.7878 6.64755
1255.47 79.3042 6.5525
1311.65 82.4032 6.82756
1278.97 77.3831 6.53291
1322.3 87.6888 7.45772
1250.5 82.0073 7.05612
1117.09 73.3298 6.5399
1070.29 72.5721 6.57281
1084.18 74.1847 6.73164
1140.14 74.5067 6.80786
1105.81 77.1847 7.18298
1138.16 80.8854 7.59762
1076.2 77.4402 7.44597
1133.93 80.2369 7.70413
925.698 65.9879 6.47422
1051.03 80.098 7.91641
975.104 74.1083 7.66115
978.77 77.4417 7.97235
974.041 74.3936 7.78605
882.843 72.4938 7.6343
968.544 72.6721 7.64246
836.38 70.1642 7.64225
981.893 79.1468 8.60295
911.142 72.7608 8.08436
879.385 74.8317 8.42786
822.674 70.4372 8.07534
847.604 76.545 8.88469
878.54 76.2816 8.89165
784.662 70.7263 8.33554
844.791 74.5501 8.79395
820.878 75.3234 9.09763
809.349 73.7382 9.00136
782.775 71.3889 8.83596
805.831 72.7707 9.00663
774.077 74.1662 9.40468
793.754 76.0237 9.69402
793.857 74.6465 9.82158
726.553 69.9329 9.20058
770.902 76.6333 10.1947
742.758 71.5096 9.64487
783.907 76.236 10.4099
767.484 74.3992 10.2405
741.111 74.2692 10.3832
686.085 70.8952 10.0016
697.312 73.2942 10.541
696.291 70.5141 10.1404
774.413 78.3935 11.4056
702.262 70.5252 10.4763
700.502 75.1365 11.3697
704.406 76.4985 11.6698
649.377 72.279 11.027
671.246 70.6541 10.906
647.261 70.3237 11.1164
636.356 69.8574 10.8644
684.95 74.7094 11.8716
647.837 72.8082 11.6576
634.807 72.1101 11.8782
663.539 74.1772 12.0917
657.536 73.6421 12.381
580.527 69.2946 11.7204
621.387 72.8867 12.2876
605.592 75.0419 12.9953
624.555 74.3007 12.7203
583.135 66.7798 11.8138
630.407 69.7689 12.5661
612.968 73.7062 13.1313
545.587 63.9736 11.5063
568.425 70.7967 12.8267
565.304 73.396 13.6939
555.114 69.5758 13.0507
526.152 66.7096 12.549
564.516 74.892 14.3585
485.163 62.1932 11.7876
528.12 69.9793 13.6042
513.158 69.1752 13.4344
551.143 67.1587 13.2539
552.542 68.1596 13.2888
534.067 73.4012 14.9964
519.805 75.3941 15.5219
564.184 70.9776 14.3596
490.044 67.8415 13.7295
504.293 70.8275 14.8046
528.572 68.8166 14.2639
497.964 69.7866 15.1326
462.338 64.1984 13.8187
488.575 69.6445 15.0795
440.921 59.3093 12.947
478.705 70.9733 15.67
451.735 64.9675 14.5098
437.667 66.3888 15.0895
448.833 68.1541 15.4533
450.465 69.4635 15.8856
447.277 70.9551 16.2461
461.828 71.0338 16.2119
439.52 67.1428 15.8118
389.804 67.187 15.9048
429.578 69.5209 16.6162
417.689 66.5555 15.801
424.183 67.4764 16.6774
403.77 68.7779 16.7664
400.32 64.5168 16.1557
396.672 71.9588 17.7604
399.401 70.2987 17.6061
384.98 65.5504 16.8267
406.797 69.0961 17.7091
399.212 66.0537 16.8059
387.637 63.0279 16.3441
365.002 65.3878 17.4004
363.132 61.411 16.0775
367.587 65.3827 17.2588
356.096 61.76 16.757
358.41 64.1506 16.9961
384.802 68.1214 18.5043
346.987 69.9398 19.147
378.631 71.9299 19.9792
341.125 60.3942 16.9297
341.064 70.3269 19.9168
345.703 64.7103 18.3699
325.686 62.3923 17.7935
346.82 61.1969 17.8044
299.345 59.1522 16.9721
337.999 62.57 18.2248
303.295 60.9979 18.0731
315.298 60.3115 17.7603
324.91 67.6958 20.4091
338.387 61.5806 18.3586
310.266 62.2528 18.8395
310.786 67.8731 21.2698
313.085 65.4067 20.3775
306.083 64.4095 19.8407
340.979 66.7235 21.159
331.203 64.0046 20.0538
307.101 63.5809 20.3936
296.227 63.8128 20.5791
283.406 62.508 19.9983
304.779 64.4708 20.6947
304.925 67.1592 22.0399
260.149 56.0497 18.3614
280.341 65.8845 21.615
249.932 59.7573 20.6163
256.732 60.718 20.2527
263.238 60.0613 20.5003
274.273 64.5901 22.2053
268.084 64.7007 22.616
243.165 60.5139 21.4475
265.487 68.5929 23.2685
255.851 68.1176 23.8431
264.855 62.9142 22.7616
221.839 57.8772 20.764
264.345 65.2373 23.0759
244.499 64.0166 23.4083
234.507 61.7693 23.1067
248.919 62.6465 23.0054
238.609 61.3515 22.4958
242.265 59.6106 21.66
230.695 59.3577 22.5725
232.91 60.8189 23.1109
243.232 60.7558 23.2217
252.342 68.8887 26.0517
235.371 65.7819 25.1092
232.065 60.2864 23.2503
217.396 61.824 24.2803
219.652 62.1431 24.4257
200.216 58.3049 23.3745
233.454 64.3231 25.4607
210.433 59.8302 24.2357
205.743 60.6951 24.1296
208.862 57.412 23.4009
206.903 60.4057 24.8305
192.08 56.4853 23.3004
183.773 59.1749 24.4173
186.508 61.1018 25.326
194.95 54.9066 23.0471
199.618 62.0722 26.3652
191.507 57.1432 24.1714
189.109 56.4945 24.245
177.817 58.5338 25.8466
206.532 59.1067 24.9662
179.973 57.7826 24.5966
183.03 57.1857 25.0333
175.151 52.1214 23.4436
185.252 57.3879 24.9285
182.073 54.4472 24.6627
188.47 62.8483 28.0186
196.607 60.8408 27.5874
191.667 60.8191 27.627
201.445 59.595 26.8334
174.359 54.7234 25.2376
172.304 56.9469 27.2275
174.782 55.0896 25.2251
175.401 53.3415 25.3229
192.212 60.9736 27.9409
168.7 57.6466 26.9883
197.168 60.49 29.2347
172.451 58.6381 28.2799
183.156 55.038 26.4884
181.838 60.5078 29.4992
176.347 57.9433 27.8164
167.493 57.4221 28.8389
183.468 61.3412 30.2815
167.206 56.7049 28.2945
181.244 59.0887 29.0768
162.527 54.9456 27.914
166.41 55.4474 27.2144
163.556 57.0068 28.8758
169.128 59.9476 31.3994
165.064 56.7455 29.7813
181.719 59.3251 29.4612
166.888 54.5638 29.4556
157.538 53.2132 27.9428
165.737 55.5647 28.9979
151.066 53.2436 28.0492
165.718 59.5516 32.1467
159.975 54.3082 28.4792
152.243 56.0964 30.9052
166.15 56.3925 30.3336
160.866 55.6055 30.5152
163.775 55.315 30.6896
166.108 58.407 31.7954
149.757 53.231 29.0682
164.859 54.0811 29.9726
166.68 55.9365 30.764
158.269 54.1066 30.6355
146.483 53.6808 30.6001
153.772 52.7995 29.9633
146.611 54.5023 30.6603
148.317 53.8484 31.2448
153.599 53.046 30.2157
156.727 53.6243 31.8633
158.714 57.7947 33.44
143.408 53.4977 31.3934
157.192 58.3543 34.1129
150.115 53.4745 31.907
149.737 53.8402 32.1143
162.159 54.7124 32.1474
148.522 57.4367 35.1619
149.647 55.4225 33.4042
158.932 52.0707 30.9396
147.048 51.5738 31.5189
148.884 53.0989 32.3434
164.03 51.8425 32.2413
149.734 53.0946 33.0573
131.214 51.1174 31.8727
140.339 56.3963 35.0656
133.667 52.6904 33.2263
139.353 53.3942 34.8085
137.245 56.4886 34.2581
127.909 50.4967 32.3704
124.968 50.5636 33.469
143.322 53.69 34.7765
141.809 52.528 33.4667
125.529 48.3712 31.7898
147.408 54.0413 35.3591
130.062 51.3996 33.7741
142.897 54.2266 35.6095
135.817 50.0487 33.5697
142.454 56.9161 37.9776
138.04 49.1606 33.685
154.39 55.8231 36.7393
139.411 55.8746 38.2976
136.556 52.6045 35.2046
135.293 51.0191 35.4344
125.857 46.9429 33.1626
139.91 52.0217 34.4754
126.689 48.604 34.0613
128.313 53.1064 36.5264
133.445 51.0725 35.7949
119.968 49.5734 34.5389
126.295 52.7476 37.6429
128.623 53.8017 37.22
130.21 53.8055 39.485
126.907 49.1899 35.302
114.252 53.7684 38.9975
123.59 51.8624 38.168
118.899 50.4228 37.1143
110.899 49.9182 36.0862
114.239 50.0247 38.0982
113.952 55.8753 40.7018
113.019 52.0634 37.6885
104.408 48.7442 36.6574
99.2644 45.3806 33.9381
109.181 48.1973 36.327
111.952 51.4971 39.608
104.671 50.9895 38.1821
99.8963 47 36.6341
107.893 50.1689 37.2413
93.4123 49.3719 38.0334
104.442 45.9425 35.2987
97.5804 46.1073 36.2564
102.921 46.6486 36.11
97.5557 47.7968 37.1418
100.109 45.8072 35.9564
98.2161 48.1257 38.5982
94.9256 50.71 39.7259
89.8027 50.1622 40.0566
98.9853 47.023 38.0574
107.339 55.3028 44.3721
94.8002 45.4072 36.9487
103.798 47.6159 37.8468
94.3853 51.0424 41.6669
88.9117 49.2336 40.8761
94.6412 48.189 39.6026
91.8424 47.534 39.4959
86.1398 47.4407 40.1723
92.0449 52.8594 44.7525
92.0373 53.4195 43.6713
86.4264 49.9628 41.081
88.8604 46.327 39.3109
87.0523 44.3298 38.4627
90.5234 46.9804 40.79
93.242 49.317 41.8414
84.8302 46.9979 38.875
86.5567 51.0003 44.6658
90.566 51.2239 44.8605
82.3567 44.2744 38.6658
85.7779 46.4296 40.5162
87.5452 49.5419 42.6955
85.6913 49.047 43.0382
83.2666 49.5403 42.4509
81.5564 47.2428 42.5416
78.8855 47.6518 42.1397
86.1086 45.5729 40.3505
79.3403 44.5816 40.4077
79.1893 46.5606 42.7971
81.7893 49.7583 43.7604
82.5811 48.3963 43.6471
79.2216 43.0652 39.8507
80.7062 46.353 42.4576
79.7141 48.1574 44.2397
80.7275 47.8224 44.7091
79.0373 45.7272 42.4004
84.1182 48.0429 43.2211
81.2405 51.8474 47.4251
75.3372 46.5798 44.5997
82.7782 46.5864 44.6432
80.7224 45.8396 41.6963
74.283 43.8095 41.8157
79.5192 50.3773 48.8109
83.0634 48.8017 44.8997
73.0769 41.7995 40.9748
82.1278 48.1633 45.2981
81.5732 47.1929 47.3454
75.2119 43.0746 41.1978
73.2334 47.6792 46.406
71.5602 44.0588 43.8803
76.8763 45.9707 44.3311
77.3235 47.6473 46.5341
72.7466 43.3031 42.9076
71.3777 43.0976 41.5911
72.4261 46.4512 48.4462
74.3221 45.1077 43.5679
72.349 44.3081 45.2201
72.1111 45.0075 45.4655
71.5911 41.9782 42.8162
77.7168 49.1801 50.2263
78.7523 40.9301 41.9431
69.7162 44.3487 44.3794
75.3993 45.1956 46.0934
77.0907 42.5936 44.803
79.2597 47.4065 48.874
75.3601 43.24 44.837
73.5666 43.7286 46.3274
80.2196 46.9571 48.6324
79.8299 45.3121 46.7166
77.3339 45.701 46.9927
77.571 44.88 48.0169
71.3146 43.2082 46.2915
75.9549 42.5531 46.4237
72.1381 38.8728 42.1138
68.76 41.8203 46.9301
72.9364 46.0285 48.1351
73.7566 44.0927 45.7489
76.1129 46.1304 50.097
72.3214 45.1414 49.6689
77.3196 48.4939 52.0278
69.8696 42.2754 49.2108
69.0087 46.8373 51.1039
71.4986 46.1819 51.6346
73.394 41.8302 46.0297
75.0287 48.1639 52.4196
70.9496 42.9216 46.2091
68.2454 42.7404 47.4496
63.1011 41.4582 45.393
64.4259 44.1988 52.024
70.7598 44.1081 49.2758
63.1651 40.1739 46.0069
64.2898 43.0221 49.0282
68.4437 44.7807 50.7053
69.3958 46.2348 53.7451
67.5749 44.3281 51.9429
72.3914 45.3734 52.0499
69.2156 47.0044 54.5024
65.0251 44.2704 49.6177
68.5309 42.088 49.6559
70.5657 40.4692 48.0241
68.6265 43.6941 51.414
66.2614 43.905 52.9497
67.6646 42.6659 50.5291
65.2713 46.1907 54.6229
70.9104 40.6776 48.3677
69.6911 43.2203 50.3767
69.414 46.2167 53.7302
60.9717 42.9731 52.8465
59.6487 40.8703 49.507
69.9673 44.9009 53.3006
63.8598 42.6932 51.3728
65.7019 43.6909 53.0219
62.1226 39.1023 48.1844
63.1716 41.781 51.5821
63.489 41.9813 51.0509
61.7964 39.5189 50.677
62.8214 42.0753 53.6344
62.0048 43.8382 54.2555
62.4465 39.2654 48.5574
61.0315 40.826 51.5921
63.1486 40.4687 49.0999
59.5623 42.1346 52.9351
59.8126 43.0315 53.6123
63.8881 43.106 54.0181
58.9215 43.5302 54.5841
57.4048 41.3078 53.6937
60.3229 42.2839 55.7435
56.0604 39.248 51.6269
55.9597 41.3934 53.0024
64.9384 47.0029 59.4623
56.007 41.3976 53.4447
54.063 39.6177 54.0617
65.1463 43.6663 54.5301
58.4378 39.8891 54.1942
63.0998 45.2274 58.7501
57.6404 43.3473 56.5716
61.8763 42.6881 55.2535
61.1573 43.6027 57.5675
56.7361 43.1693 59.7213
56.9221 39.1304 50.9313
54.85 44.5749 59.8852
53.0741 42.663 56.9773
52.8291 41.2979 55.8776
57.4063 43.1214 56.96
54.033 41.3497 55.1126
52.0996 43.9704 60.4806
51.837 38.3561 52.7303
51.7521 41.0761 55.1473
50.0486 40.3982 58.1736
59.491 40.6487 53.9589
53.0393 40.8206 54.1457
55.0746 39.4088 55.8641
53.4061 41.6247 57.0429
58.7596 41.5181 58.2418
52.2611 41.2424 58.4594
54.347 39.2324 56.525
51.2367 38.7271 53.0056
49.9234 38.6485 53.5393
53.3202 39.0741 55.7478
49.5825 41.1365 56.4839
47.7204 39.9418 57.7821
48.8547 40.1924 56.1122
44.3983 38.0128 54.6463
46.8995 39.4698 57.3438
43.9084 37.9284 55.9688
47.7161 40.6692 56.4016
44.3792 39.5736 56.6749
46.9093 37.9387 55.92
45.5811 40.4432 57.2003
46.7174 39.3107 56.7365
44.8469 43.7743 64.4417
42.7838 39.8833 58.7965
46.3261 41.7474 60.9647
45.6786 41.4689 60.8392
42.1901 41.0796 59.4337
43.6534 42.5921 66.7538
41.2997 41.6057 60.8528
42.7553 38.6084 57.5271
45.8054 39.9756 61.2704
49.7037 41.7949 60.4299
43.0899 37.7022 56.4647
40.9299 35.6026 54.9282
45.2186 43.5165 63.993
40.9042 36.6947 57.0025
38.8177 40.306 61.4041
40.5085 38.0153 58.6936
44.0411 40.2479 60.2516
44.7955 40.0076 64.0434
42.9827 38.6986 57.869
42.713 37.2681 57.7167
40.7553 36.5327 57.9628
44.431 42.24 66.5714
45.3855 36.2431 54.5197
40.969 37.3568 59.9725
42.6793 40.3502 62.1066
43.8901 39.2991 58.5173
42.0994 39.5618 64.4842
43.2189 39.6692 61.4259
39.7382 42.0051 67.3083
41.9721 40.4591 63.6136
38.5583 39.0016 61.3422
40.502 38.9028 63.6818
42.7707 38.2231 61.7863
39.7649 37.4216 59.7094
40.7095 38.6082 61.014
43.5032 39.8189 65.135
46.982 40.7856 66.7579
44.6863 39.4478 61.8896
44.7284 39.958 66.0712
47.6755 43.1495 67.8995
36.3745 34.2473 56.0004
41.2102 37.3955 59.1866
40.5018 37.0438 62.4939
41.3192 37.7262 61.6519
40.898 39.2469 63.2257
40.6593 38.8609 64.1972
45.6199 39.6611 69.5368
44.0288 42.853 69.3865
40.8838 38.5634 64.7101
37.4479 37.2836 62.6372
41.9418 42.633 70.3851
46.6901 38.7711 63.7381
45.8116 39.1464 62.7677
41.0782 38.0228 64.2335
38.8352 37.8163 65.2532
41.3323 37.1789 63.8015
40.6391 36.0313 62.0568
40.0872 34.9932 61.7426
41.8623 37.1836 64.5947
42.6695 38.6631 66.856
44.1864 38.2844 62.227
37.1735 34.033 62.1513
40.6715 38.8727 67.1807
39.0127 36.6647 64.2634
43.407 36.3168 63.8071
43.1898 36.5935 62.9349
44.7202 39.8915 69.2369
44.4771 41.7761 71.5013
49.5381 38.791 65.3615
40.0356 38.1375 69.8269
42.8185 38.5629 66.6221
42.4706 43.788 78.2017
44.464 38.5157 66.1013
44.3307 37.7287 68.3898
39.2471 39.3861 71.2122
41.6086 37.4302 64.6891
42.7507 38.4211 67.1855
40.575 36.2295 66.1279
39.4295 36.4761 64.5421
38.9447 38.6601 68.9786
42.9025 38.4526 66.2272
40.3489 36.349 67.1279
41.9931 38.5763 68.9874
38.5583 36.5753 69.6179
45.1439 39.4874 70.4445
45.664 37.3503 67.6386
43.6763 38.1542 68.1592
39.8389 35.938 68.6045
39.9401 35.5788 65.7566
50.8871 37.359 70.3169
44.6033 36.084 65.0365
39.9219 36.1187 68.8443
43.2107 38.8266 75.3422
43.0737 38.5532 67.7597
41.3173 35.8543 66.8979
39.2398 39.8551 75.7599
44.386 39.3155 71.0118
38.0006 35.1076 68.1579
37.6947 37.412 67.6809
39.8505 38.205 70.3782
37.7178 35.7364 68.2415
36.1172 36.238 67.3839
34.4529 34.813 66.5031
32.4121 37.6993 71.9941
35.1734 35.7493 69.2106
35.0959 34.2417 64.9223
34.2059 36.0216 71.143
38.3738 37.2046 68.6546
33.6934 32.1141 62.7524
37.5296 39.4139 78.1396
40.3021 38.0992 70.3905
34.3515 33.0349 65.1907
38.7291 37.1672 76.1373
39.8631 38.0008 70.3552
34.5927 37.1091 76.5136
37.5759 37.5849 71.9352
36.7374 34.1799 65.109
32.9259 33.6804 64.3686
33.4703 35.5753 71.0289
35.0234 37.405 73.0401
36.6491 34.6866 70.8878
28.9467 35.9961 72.0965
34.4226 34.5105 68.0136
33.0269 34.7979 68.1193
33.7154 34.491 71.5509
34.8569 39.1725 76.7933
34.1086 34.2765 68.0957
33.2647 34.422 69.9192
33.0519 36.465 74.8102
28.2126 31.8559 65.8
36.6021 35.6819 71.3037
34.2391 37.1952 76.9126
35.9312 36.1692 72.4721
33.1532 35.7074 68.702
32.3106 33.9775 66.5878
27.8914 32.3988 69.0485
31.0685 33.9906 73.7623
31.7671 35.2546 70.9655
31.15 38.5555 78.3888
30.6927 35.8905 77.2777
33.242 37.044 75.6232
31.6619 35.5107 70.9935
31.4426 34.9133 72.1798
30.5518 33.7065 71.6339
32.7794 38.7616 78.5988
29.8623 36.4684 75.9193
28.5548 33.6902 70.154
31.2668 34.1146 68.3888
28.4877 35.3709 76.7022
29.5683 33.4328 73.5811
31.3162 37.237 77.3238
29.8413 35.3254 74.0428
28.3714 35.1402 78.1537
30.6614 37.0149 74.2791
31.3557 35.9035 75.3181
29.2884 35.1186 76.5253
30.1264 35.6802 73.2596
28.8235 35.1225 78.0885
30.927 36.7899 76.2977
31.2342 36.6464 75.0009
27.6085 31.9068 70.6691
28.8519 34.8931 73.597
27.9849 35.5456 76.4915
28.2012 33.9026 74.8043
27.9308 35.5521 77.5924
28.8105 35.0563 77.8652
27.9711 34.801 76.3402
27.6122 31.8769 70.4842
30.6543 36.7087 81.3731
29.9177 35.872 79.0581
32.445 37.5372 81.4033
27.5627 34.5758 78.6964
27.383 33.7072 75.3653
29.7832 33.2953 71.7704
27.4481 32.2415 75.9191
33.1654 36.6204 76.2248
26.456 34.8758 79.6399
29.0577 37.0859 80.6006
30.4893 32.9574 72.3182
28.6991 40.2227 91.9844
29.2303 35.6589 76.6302
27.3581 33.099 77.0089
29.4181 35.6589 82.7124
29.1751 36.6668 82.4626
28.4957 35.7125 76.0742
25.2702 36.193 80.6121
30.9896 34.0052 78.1931
28.8172 30.3992 71.463
28.1622 32.477 72.852
27.6142 32.5561 72.955
32.5243 32.5879 79.0802
31.0681 33.1583 71.4035
28.9391 35.0473 81.4217
31.1043 34.3893 78.586
30.1191 34.6359 80.6956
27.8578 35.3544 79.8043
28.6401 35.4333 80.1828
28.0719 35.5555 86.0294
31.4214 37.3957 81.6869
27.1857 34.1874 82.8454
28.5762 35.5296 80.0424
28.1375 33.3751 75.1061
29.1566 33.9954 80.4307
27.3328 31.852 79.6792
28.4468 36.6961 86.7003
30.0553 33.5828 77.4172
27.9209 34.0062 82.951
29.1826 32.899 77.8536
28.9551 32.9186 78.1552
26.5097 34.3207 77.1178
28.2815 32.5056 74.8052
27.2284 33.0987 77.0882
25.5382 31.8309 75.503
27.3001 34.3199 82.968
26.9672 32.1906 81.4381
28.6032 34.8666 80.7288
27.856 32.8658 78.2016
28.6199 32.2526 77.0466
28.9696 32.5058 80.7162
28.7352 33.7404 77.5176
26.505 30.9794 75.375
30.9849 36.2544 84.091
32.8474 34.152 83.2298
31.2931 32.8315 84.4072
26.8659 30.9066 74.0425
26.4808 32.0711 80.4481
28.4638 33.2047 77.8226
26.9069 34.8163 87.6638
27.491 33.1275 75.13
27.4431 34.1768 88.2431
28.9065 36.0512 85.1873
26.376 31.4397 77.6253
27.699 32.7016 80.5641
31.8458 33.897 80.4702
28.02 31.9489 82.6621
27.1512 33.8275 84.7917
31.3617 36.4388 82.0399
27.6261 32.712 81.6849
26.4935 33.6091 85.8678
27.7384 32.9005 82.2918
27.8888 30.6677 76.7783
28.5565 35.7843 87.9637
27.528 34.1815 86.5863
27.0811 35.435 84.9514
29.5816 32.8256 88.8785
28.0758 33.2933 83.4762
28.7656 34.8484 87.6644
27.1541 34.1478 84.0589
26.2446 34.3451 88.3224
27.5495 31.5935 83.2612
27.5142 34.0185 86.2349
27.3057 32.5797 83.0847
28.7481 33.5625 82.744
26.5683 32.0337 81.0784
27.8261 34.0151 92.3339
27.3046 34.7083 82.3346
26.1658 33.7345 84.8246
25.4018 32.0825 82.5879
26.331 31.0084 84.3084
28.6815 34.5936 84.2556
29.8044 33.2727 88.4794
27.2018 34.616 92.3387
29.801 34.8956 79.8142
24.8651 33.0753 91.8251
28.2951 32.2705 86.9802
29.3381 35.3801 87.9351
28.5832 32.2619 90.4708
33.9787 34.2788 91.1926
29.9191 34.3608 87.0416
27.8867 33.9191 89.6069
31.102 34.9539 89.2404
34.2734 34.541 90.0044
27.4319 32.4671 88.329
27.6417 32.982 82.9279
25.0038 33.2222 88.578
24.5609 33.848 90.1618
26.2116 35.0445 94.874
24.8476 31.6408 82.9095
24.413 32.1817 85.5846
26.3321 31.6071 82.1364
24.0192 32.3134 82.9716
22.0614 29.8918 84.126
23.0058 33.0188 88.2003
24.4063 34.5577 87.3
24.245 31.6929 83.2595
22.3934 31.7454 83.9984
20.2944 28.6811 83.3413
21.9432 29.0988 78.5704
20.3944 33.1904 93.2558
23.0551 33.7314 91.2077
22.2741 33.7933 90.8466
21.8221 31.4498 88.721
23.9651 33.7858 88.9685
22.1128 33.5725 90.8964
20.4639 28.6972 77.1388
22.172 34.6798 94.0874
22.5575 31.2659 81.6435
21.5953 33.2166 96.5354
23.2379 35.4983 91.2148
21.7631 31.7971 89.3698
20.8021 30.871 84.6364
21.1374 30.0052 82.8271
20.4329 33.4719 92.4337
22.4471 33.8415 95.9626
23.8264 34.1961 91.0972
20.8708 34.4567 92.9504
22.7559 31.5205 90.2651
21.3808 32.7712 82.7813
21.8033 31.8384 91.2401
22.8537 32.138 85.3414
20.236 29.9068 91.4994
21.39 31.2282 89.6492
23.2695 31.5719 90.1034
22.5588 33.8573 91.2991
20.2416 32.2462 90.0159
21.2055 31.0343 81.6748
20.8012 32.2263 87.9143
18.8904 28.2179 82.7937
20.0248 32.6015 90.2861
22.1601 31.7766 89.9764
23.1686 31.8049 87.1374
20.44 30.8858 88.2717
18.7616 30.8371 90.575
20.6945 31.2118 91.4411
23.8665 30.9659 89.0616
22.642 32.6221 86.5052
19.8948 31.7649 98.1381
23.8674 35.2756 91.463
19.3721 28.8084 88.4149
21.1053 31.8863 92.6399
20.498 29.9533 82.6812
18.7239 28.3808 82.3034
21.9699 32.9256 99.4161
21.0709 30.3255 86.8863
21.31 32.3981 91.7578
21.9093 31.7756 94.0258
23.8423 31.4665 85.0308
20.8357 31.3465 89.9633
20.789 29.4722 84.7044
19.6484 30.329 88.2724
21.9587 32.391 93.3148
20.0199 32.5221 99.7408
22.1949 32.6017 96.4809
21.6003 32.3713 87.8468
20.1751 30.2945 84.778
20.6629 30.324 89.0359
20.9817 31.0929 91.758
19.8472 30.8685 93.0356
22.0434 30.9213 81.3312
19.9156 29.8547 95.7168
22.7277 30.4524 88.2932
20.6198 30.5976 86.8156
21.7115 33.1886 101.399
22.1918 31.2434 93.0365
21.9522 32.7581 91.968
18.8844 29.7101 90.8542
21.6364 27.4919 91.0971
20.6944 29.8418 92.0625
23.5942 32.4421 89.3223
21.371 30.4207 93.7205
22.1768 30.1979 93.5838
22.94 32.5502 91.4135
21.0029 30.5577 94.977
21.5595 31.2485 91.5426
22.9966 31.1508 89.0781
22.2881 29.8574 89.3002
20.6923 30.4669 90.9846
21.6798 29.487 88.775
23.7752 30.2074 93.5357
22.449 31.856 92.5685
23.4454 31.0338 91.0674
22.5808 30.9634 96.0444
21.5816 30.8664 89.9459
20.8408 31.2212 95.3574
21.9923 30.648 95.8102
22.8288 30.1588 93.2123
21.9783 30.456 92.6747
21.7829 30.0296 95.394
24.3894 31.2689 96.9569
23.932 31.5586 94.7479
23.7374 29.8292 92.4808
23.2835 31.6511 93.7402
25.0636 34.2222 105.311
24.1906 30.6861 93.762
24.6571 33.6677 98.9644
24.8051 32.4308 102.83
20.9077 30.0424 86.3712
21.0344 27.446 90.9926
19.8373 30.3472 93.3665
20.6516 30.9614 95.835
21.0381 31.5934 95.388
17.6137 29.0308 90.907
20.6289 29.5204 93.4155
21.3447 30.4918 91.8131
21.8895 29.4175 96.884
21.6664 32.3672 100.133
22.8135 30.9674 96.6079
21.6025 30.7441 87.1781
21.136 29.0906 92.3409
21.4766 30.7247 98.8205
22.6855 32.5096 100.65
20.7798 30.0515 95.4002
20.6869 32.044 100.826
21.6017 29.9997 94.187
19.9518 28.7128 98.2641
21.8864 34.409 104.502
19.9231 31.4253 90.8015
20.1932 30.7116 98.1921
22.3303 30.0461 93.6022
18.6437 33.7923 108.009
20.7693 29.9767 96.7487
20.3709 32.3951 96.0448
21.9331 30.158 96.1918
19.8223 28.8878 95.2739
19.9472 31.8969 104.245
20.6852 35.4975 108.676
22.2544 30.9079 96.7948
17.4632 29.2712 96.4705
21.2133 31.1792 96.2392
20.205 30.707 105.451
21.7545 31.3878 97.0018
19.0221 31.5239 101.395
21.4011 31.3709 99.4395
19.6564 31.6929 99.4754
19.4318 30.395 102.439
20.0954 30.1504 94.0491
20.8848 30.0754 98.1861
20.2516 32.5808 102.276
19.9358 30.6015 97.9628
18.7268 32.6306 110.243
19.8414 31.5296 105.118
21.0553 30.8109 94.5576
19.4468 28.7221 95.668
18.4593 30.4291 94.1105
17.5062 31.0044 97.2018
17.4541 31.6289 102.255
18.3591 28.0475 88.1365
17.0473 29.043 99.486
17.7903 33.0464 102.497
16.5503 29.639 101.187
18.5463 29.2477 102.717
19.5562 31.0115 93.0894
17.7307 29.0351 93.5087
16.0819 28.5581 96.6735
17.5626 28.7936 96.1961
17.5956 29.9906 101.137
17.0727 29.0439 94.9334
16.548 29.9911 97.7669
16.8226 29.9939 101.404
17.8994 29.3045 90.1684
16.8767 30.172 100.313
18.6144 30.823 98.0777
16.951 31.1206 104.846
17.7192 31.429 102.885
17.6613 30.2527 104.016
16.949 31.1507 98.7088
18.2302 29.838 99.199
18.8904 29.6557 99.9667
17.3438 32.3424 111.976
18.2087 29.8136 91.1764
14.8924 28.085 96.9323
16.7189 27.7245 87.4903
16.2226 31.8147 104.078
15.542 26.2691 93.9351
16.3491 28.8504 98.9149
16.7301 30.0292 94.5843
17.4209 27.4433 96.9261
16.6398 31.5568 103.18
18.9925 29.3488 99.4905
18.5292 28.5673 101.827
17.3428 33.3347 103.258
17.0243 30.7665 104.585
17.898 29.2401 98.2588
17.5783 30.3409 102.972
17.5074 30.0878 103.728
16.634 28.4413 100.547
17.1802 29.0292 91.807
16.6751 29.9504 101.382
16.8621 26.6615 94.0409
17.3852 29.5972 97.8958
17.0009 29.7193 97.8006
16.4041 29.9527 100.985
16.196 27.7122 97.9222
17.413 31.7447 104.621
16.062 27.7617 96.0141
16.4873 28.3418 93.9028
15.9349 27.4847 100.976
16.0839 28.7475 99.147
16.7278 28.3131 95.6379
16.5726 29.459 106.07
16.693 31.1842 106.208
17.7314 29.1006 99.0731
17.5821 33.5205 104.271
17.1823 27.8867 101.536
17.172 30.64 102.903
17.3317 28.6907 105.562
18.4618 28.7412 96.7418
17.3728 28.9477 89.2793
16.3969 30.6119 108.527
16.992 28.3058 103.455
19.2338 32.5041 115.871
20.1102 36.1349 110.395
18.4533 30.2845 107.051
18.3401 26.1452 91.7587
16.7858 28.0911 99.3727
17.6455 29.8591 97.5962
15.6158 27.2011 98.729
16.7504 32.7247 114.632
17.5357 29.4682 101.089
18.059 27.8208 99.5667
17.9622 29.4174 112.459
19.0591 29.2557 107.412
19.7295 32.1255 108.075
17.7322 30.791 100.69
17.7758 27.6471 101.261
18.748 28.6691 98.8986
17.5725 30.7354 109.251
18.7298 29.2574 101.002
18.7985 29.0361 101.186
18.0745 30.1613 104.939
19.0817 30.6518 107.271
18.0035 29.8767 107.531
18.3399 27.6092 93.8489
17.7721 27.8029 92.8556
17.9504 28.328 101.476
19.037 28.6763 99.7944
17.6126 29.9873 104.594
18.3724 30.2724 106.498
18.5715 30.4574 113.631
20.1382 30.6478 111.817
19.4244 29.4359 105.806
19.674 30.211 106.682
20.3581 29.5563 106.528
19.0725 27.6003 106.502
20.9878 30.6891 104.118
18.1099 31.3684 105.473
16.1524 29.8811 104.579
18.4093 28.3237 99.0173
17.3238 27.0393 100.297
16.7412 28.2346 100.171
18.0559 29.0275 105.93
18.015 30.8345 111.83
18.1252 29.2631 102.888
17.7128 30.2367 102.936
18.0234 28.2483 101.073
17.8706 28.0978 98.2707
17.176 27.7451 106.151
18.7722 30.5918 110.832
18.904 31.386 106.266
16.7873 27.087 95.6749
18.0418 28.8145 104.812
17.7367 28.9046 99.4361
18.7423 28.928 106.033
21.0632 31.7807 115.801
21.0656 27.9772 105.384
25.9144 31.4127 108.316
23.5655 29.1519 102.775
20.0358 28.2154 110.359
22.4583 30.3271 106.703
25.1629 31.0665 110.241
20.2722 27.8139 100.582
19.2764 27.7355 109.567
19.39 30.0761 111.238
20.1372 29.2019 104.447
18.8783 29.6564 100.553
16.7975 28.0881 104.27
17.3116 27.9116 107.023
19.7322 29.3368 107.816
18.6151 28.9941 105.294
17.9157 30.2788 113.207
19.0699 31.9766 106.801
19.3328 29.5343 105.636
17.6065 27.4453 107.07
17.3118 30.8812 114.349
17.7423 30.0411 107.47
17.9326 29.9284 102.313
16.3283 29.1285 104.284
15.4034 27.0921 101.262
15.1191 28.0036 112.681
17.2505 30.204 105.093
16.4445 27.8672 104.043
15.714 27.2453 103.374
15.1883 27.3361 103.842
15.1656 28.2235 107.625
15.976 29.8187 107.156
15.299 28.1118 107.945
15.9729 31.4168 113.642
18.7535 30.8907 108.377
15.0238 30.8848 117.997
16.6097 28.3753 99.0144
14.9967 27.3869 107.647
16.8182 28.2606 104.472
16.8473 29.0202 100.678
16.1519 27.0382 103.577
16.6832 29.3795 108.821
17.3513 30.6208 103.535
16.0651 27.8228 105.104
15.573 28.8629 109.441
16.6345 26.9505 100.803
14.4426 28.7893 104.896
15.5783 29.3609 112.412
17.257 30.0365 107.766
15.1378 29.2044 107.69
16.5431 28.4238 110.822
15.6897 28.6944 100.377
15.5995 29.6227 114.463
15.9755 29.9463 112.743
14.8837 28.0611 103.86
14.9832 28.166 106.472
14.8055 28.4495 106.875
15.3175 28.3575 107.377
15.8468 29.2991 107.224
14.7475 27.7891 109.956
15.3689 29.052 111.724
15.3246 30.1025 114.249
16.5569 30.1261 103.824
14.4263 27.0777 102.02
14.694 29.809 111.94
14.7079 27.5125 104.935
14.3817 28.6479 102.881
13.7013 26.3047 109.57
15.2815 30.3868 109.926
15.9116 28.8124 107.816
15.714 27.9101 102.545
14.4259 26.7977 100.045
14.3153 28.538 107.085
15.4957 27.0619 112.922
14.9161 30.2203 103.749
15.8124 27.7752 108.544
15.3489 27.8256 111.699
14.9386 29.8133 105.128
14.5199 30.2723 109.824
14.4453 27.9555 111.844
15.3044 27.9991 106.825
15.9994 28.1215 108.166
15.4909 28.5693 107.268
16.074 28.2424 107.348
15.2549 28.5061 105.951
15.1406 26.6636 96.0019
14.0057 29.0556 108.184
15.4829 28.4587 108.017
15.3069 25.9483 108.495
14.4674 28.6318 105.702
14.2979 28.9475 109.898
14.6443 28.1209 107.155
14.6091 30.3625 111.486
15.0598 29.57 109.331
15.3277 26.9655 103.809
15.697 28.6244 107.239
14.8474 28.3214 109.14
14.3754 29.4221 109.782
15.9775 25.807 106.704
16.9289 28.0092 99.9287
14.6258 27.1855 104.093
16.0981 28.2321 112.055
15.2329 27.4296 105.244
16.4199 28.7308 115.726
16.8298 28.4568 100.085
15.1833 29.0265 114.193
16.6045 27.4749 111.255
15.83 28.8106 107.328
16.3807 26.9736 105.372
16.3138 26.4201 100.616
15.7399 27.1396 105.462
16.7847 27.5693 100.204
18.1266 27.7583 107.073
16.5417 26.8167 110.127
16.4389 29.8457 114.099
17.621 29.2198 106.724
18.372 28.1059 114.894
18.1368 27.0393 100.661
17.1018 27.1736 107.224
19.9062 27.3632 107.458
19.1105 28.4515 111.332
15.7722 29.4446 110.631
16.7308 28.574 115.11
18.259 29.8633 121.215
17.8112 30.4991 106.594
14.549 28.5235 104.091
15.2168 26.7685 110.497
15.7445 28.017 98.7922
13.4543 28.7644 113.187
17.3643 28.512 117.197
17.1371 27.7363 100.239
16.6271 28.8232 114.718
17.2329 30.1394 113.355
16.0708 29.0515 112.793
16.7683 26.8901 109.94
17.0689 28.2071 112.078
17.7332 27.1596 101.532
16.3257 28.3993 105.945
15.7732 26.2338 112.506
18.0054 28.1645 105.273
17.0484 26.8141 96.8904
16.3099 28.0155 108.141
16.1262 28.9309 112.747
21.0404 26.9974 109.399
16.9667 26.9598 111.574
15.8607 29.6427 110.358
14.8456 25.2439 101.631
17.2565 30.5929 116.282
16.1095 28.4986 108.517
16.5274 28.7036 111.55
16.0543 27.7932 111.128
18.9887 28.3171 108.576
15.1346 27.5099 103.118
16.1387 26.5511 110.384
17.019 27.0164 106.76
16.1567 28.5621 101.55
16.1941 29.4002 113.779
17.4046 27.9521 106.722
14.6193 29.1659 120.034
17.3268 29.2697 107.69
16.1218 28.1927 117.079
16.8662 29.7457 113.781
15.633 28.5318 116.157
16.4906 28.6857 109.934
15.711 26.707 109.486
15.0559 27.9745 113.401
15.6911 31.5218 112.246
16.5044 28.862 108.021
14.8723 26.101 107.817
15.1654 27.2741 115.44
15.9346 29.1279 116.807
16.4845 28.0903 103.059
15.0937 25.3931 105.882
14.8657 28.4905 115.931
17.1653 29.6151 109.439
16.5966 28.7022 105.238
15.0976 26.903 110.177
16.7802 26.1423 105.132
16.4262 28.2823 107.245
14.8984 27.5832 109.916
15.2173 28.9194 123.043
15.0357 28.879 108.931
15.1644 27.3999 109.25
14.2371 28.2959 109.566
15.7197 26.9337 110.781
15.0793 28.9544 112.859
14.8934 27.2281 109.423
14.1807 30.0501 105.593
14.4216 26.2479 110.833
15.4551 28.3023 103.885
14.1007 26.7407 112.008
15.3603 32.9443 119.963
15.7897 26.7648 114.132
15.0938 29.1494 106.085
12.7969 27.6957 111.945
13.625 26.6282 103.803
13.2447 24.46 102.099
13.6899 27.6417 110.363
13.6379 29.222 113.211
13.6394 26.6987 107.502
14.3482 26.7594 107.899
13.9694 26.4964 106.682
13.1627 28.7016 109.601
14.4264 27.3078 108.391
12.5752 27.0079 104.594
13.3335 26.4212 121.025
14.2649 29.0328 112.592
14.8454 28.9928 116.49
15.1811 27.7166 100.747
13.9071 30.1045 112.813
14.8076 25.9739 110.073
14.9799 26.9862 104.499
13.1753 26.6659 105.184
13.8389 27.1537 114.399
15.2187 27.766 102.145
13.9383 25.4172 112.414
13.9954 28.9232 113.962
14.0271 29.7005 109.807
13.8451 27.155 108.419
12.9238 27.1717 116.826
13.6035 27.4218 105.695
13.5286 28.0007 112.595
13.9684 29.7447 123.01
14.078 29.6109 114.349
14.5982 28.4991 108.747
13.8179 25.3612 104.863
13.4044 29.1394 110.841
13.7078 28.3191 121.584
14.5538 27.1673 108.367
14.2214 27.9182 101.052
12.8115 25.7391 117.655
12.8139 32.1642 116.939
13.7666 27.8409 109.273
14.1217 26.3885 105.126
13.5699 29.4374 115.907
15.3199 27.5606 115.014
13.8917 25.8309 103.083
13.676 30.001 111.435
15.8716 28.3807 115.8
14.3103 26.6356 112.138
14.363 28.0018 102.198
14.3794 26.0896 115.416
14.5852 29.2652 109.923
12.9402 29.3086 110.63
13.9352 27.6688 114.727
14.6037 27.0423 113.112
14.4409 27.6482 110.892
13.9296 27.7805 111.448
15.4956 28.9075 106.248
14.8049 27.6795 110.527
14.6078 27.0364 106.478
15.9947 27.3983 116.068
15.0847 27.9946 106.361
16.133 28.3717 113.176
14.7465 28.2382 118.193
14.3828 28.2491 102.994
14.07 28.7541 107.596
15.0703 27.3076 111.69
15.6716 28.6922 113.085
14.7236 26.701 110.63
15.5415 28.8942 114.744
16.432 27.8818 106.763
14.7547 26.9543 116.456
15.2856 28.064 105.955
15.7441 26.202 109.186
15.3099 27.89 119.497
17.336 28.5266 115.985
15.9679 29.1876 101.982
14.6724 27.0311 114.422
16.2289 29.2128 110.194
15.3344 26.7496 122.268
15.0419 30.1901 112.68
16.3707 28.332 112.416
16.9862 26.9139 109.768
15.0296 29.1773 111.877
15.6821 27.65 119.495
18.3215 28.3742 105.011
18.6903 24.7542 106.604
16.3455 30.0577 113.997
15.3295 27.9387 112.696
17.7672 28.228 117.728
15.5991 28.9657 113.088
15.8891 29.3582 111.958
15.7884 28.0009 111.353
14.8823 31.373 121.064
17.1788 29.0082 110.261
16.7404 27.0415 108.834
17.1767 27.1915 118.085
17.5839 30.3532 115.819
18.3419 28.9056 113.495
25.1043 26.0379 122.324
22.0866 30.2826 109.557
18.7404 0 0