# pn-170911/CsIIF-72-AMC2-1280-1959.psd
# Power spectrum* (dif=0,1,2) (really just |FT|^2)
# NOTE: only the first half! (symmetric)
# weeks: 1280-1959
# 163 clock-days, 9 excluded
# PSD: 1441
12673.2 0.333337 0.0247545
426337 9.5684 0.0296764
1.18628e+06 22.1007 0.0340614
481046 16.7442 0.033195
327440 21.3507 0.0367674
168246 15.9214 0.0338869
106283 15.1505 0.033887
77643.4 14.8817 0.0343894
63269.8 15.0564 0.0373935
45898.8 15.414 0.0346925
40709.8 17.657 0.0395698
33645.8 15.4638 0.0460276
24963.3 14.9056 0.04592
26908.3 17.2766 0.0516778
22870.6 17.26 0.042503
20867.2 17.8012 0.0483028
15979.2 16.3608 0.0472501
15096.7 16.0256 0.0499869
12350.2 16.3383 0.0501688
11605.3 15.6453 0.0553919
8794.13 15.2494 0.0639029
7896.52 14.8518 0.0654492
8714.19 17.0733 0.0721192
7207.27 15.0041 0.0734499
7162.51 15.7994 0.0746535
7034.81 17.1919 0.0834336
6793.22 17.4503 0.0888628
6093.18 15.9256 0.0872982
5388.59 17.3364 0.0997848
4436.17 13.8386 0.0805107
4631.11 15.7127 0.0964361
4312.12 16.9373 0.104128
4263.07 16.776 0.11862
3942.77 16.6712 0.124735
3404.15 16.1927 0.116868
3319.32 16.0974 0.120424
3320.82 17.0848 0.145411
2938.33 14.6103 0.125189
3070 16.9174 0.153658
2744.44 16.9656 0.152686
2686.9 16.7308 0.155792
2375.72 16.6742 0.157274
2411.03 16.1364 0.164157
1892.09 13.6651 0.149103
2264.39 16.9763 0.192413
2093.17 16.5557 0.188315
2240.06 20.3077 0.231089
1849.69 16.4111 0.2133
2009.25 17.5194 0.211511
1946.12 17.0067 0.22305
1967.08 20.3656 0.280207
1681.8 16.9425 0.229238
1673.72 16.5744 0.240567
1535.72 17.3532 0.26211
1416.91 15.7642 0.261192
1295.93 13.8919 0.233543
1496.06 18.4378 0.304425
1095.99 14.6371 0.239335
1171.68 13.2446 0.244087
1218.26 16.377 0.294504
1294.81 19.1451 0.362992
1169.7 15.918 0.323639
1312.77 19.5109 0.388968
1076.6 16.9546 0.347913
967.815 16.1382 0.339152
1078.63 18.3123 0.385098
801.859 14.4043 0.328265
843.185 14.7823 0.355592
954.428 17.1133 0.401673
797.774 14.9816 0.373615
990.33 19.1005 0.469625
846.896 16.2284 0.40776
776.79 14.6803 0.394128
747.399 15.2614 0.412453
791.429 16.6093 0.467823
701.856 14.634 0.408999
723.697 16.5587 0.477523
656.545 15.476 0.442182
543.536 12.6816 0.403141
715.79 18.1106 0.574796
699.607 17.0215 0.53499
688.498 18.7127 0.594892
669.2 16.9621 0.556801
584.483 17.0448 0.567812
632.426 16.1651 0.575418
540.622 15.9467 0.570944
505.794 14.2033 0.525606
553.433 15.3392 0.579144
626.166 17.7153 0.681971
517.548 15.6788 0.622424
505.452 15.4284 0.643389
549.488 17.7189 0.741108
458.807 14.414 0.614449
489.681 17.1495 0.754749
489.317 16.8862 0.692248
462.69 15.1644 0.68614
440.037 16.7556 0.755462
501.297 18.5038 0.850852
436.984 16.118 0.766627
432.883 16.7528 0.788057
457.757 17.3304 0.852807
401.294 16.5462 0.817828
458.681 17.5389 0.857195
408.514 17.5275 0.923029
374.367 16.1706 0.851875
407.386 15.8583 0.835007
395.317 16.3457 0.860926
374.353 16.3332 0.899858
381.72 16.1651 0.947853
407.573 18.9429 1.12149
366.178 16.3397 0.960004
363.17 15.9025 0.961322
326.85 16.5483 1.01708
340.497 15.8611 0.961705
330.483 15.9137 1.00025
307.129 17.1051 1.08641
348.049 16.8205 1.07852
304.304 16.1054 1.08084
300.494 17.0979 1.18235
271.588 14.7987 1.00068
255.58 14.8949 1.01488
283.155 15.3326 1.07837
286.898 17.3042 1.22614
305.457 17.5584 1.24136
302.069 17.2157 1.27861
284.687 17.2383 1.32107
245.034 14.5704 1.11842
276.717 18.8235 1.45236
256.454 17.769 1.42021
229.683 14.3647 1.15052
226.186 14.9848 1.23105
323.482 19.1885 1.56955
292.892 19.4363 1.58762
247.74 17.7703 1.53017
222.262 16.0881 1.48845
223.39 16.163 1.36023
264.375 19.8603 1.81652
266.751 18.8118 1.68475
226.386 16.1287 1.39564
221.742 17.5087 1.58232
225.238 16.4234 1.53528
227.938 16.5548 1.58376
218.513 17.6702 1.66674
173.335 13.0892 1.32092
231.39 18.9215 1.87488
198.014 16.7693 1.71198
197.691 16.1202 1.60245
197.71 16.9424 1.7785
203.836 19.2091 2.00089
208.966 17.527 1.86087
182.407 17.2325 1.8078
171.303 14.5342 1.5799
199.582 17.3563 1.90344
175.391 15.3717 1.74188
192.647 18.0937 2.01232
178.732 15.7525 1.82066
194.879 18.1583 2.08465
162.782 15.3647 1.71341
155.327 15.0899 1.75251
159.656 15.7973 1.87494
162.468 16.4254 1.93863
163.552 17.7139 2.14973
168.086 16.3233 1.95948
137.038 15.1944 1.93939
172.87 17.6139 2.22834
158.311 16.2452 2.1054
154.6 17.8798 2.30027
151.053 16.3244 2.07792
163.522 16.1467 2.1859
146.448 14.9206 1.99443
154.536 16.837 2.25756
155.666 18.2254 2.44209
154.231 18.3767 2.53973
164.219 18.1097 2.5221
139.086 15.7235 2.2433
137.771 15.8478 2.36559
137.606 16.3967 2.42117
134.438 15.4156 2.17795
137.737 18.6181 2.81049
128.8 16.3074 2.51401
112.362 14.5411 2.22496
126.951 16.3191 2.47241
118.896 15.6394 2.48125
129.89 16.8218 2.5664
128.314 16.9732 2.77742
137.992 16.6119 2.67428
127.672 16.1955 2.54988
135.761 17.3706 2.81967
128.348 16.2991 2.67412
111.208 16.2404 2.73045
111.991 16.0533 2.67489
128.311 17.8609 3.05695
120.631 16.643 2.80583
131.574 18.9294 3.32227
100.872 14.6648 2.63053
129.937 17.716 3.13642
108.362 16.4108 2.96511
120.719 17.4859 3.07852
110.273 16.4281 3.16404
110.077 17.3125 3.20544
110.913 17.3732 3.34565
95.201 15.4677 3.00581
107.185 15.5645 2.96674
100.375 16.4554 3.23302
98.1987 15.6928 3.00104
94.2711 15.7451 3.06869
104.55 16.5789 3.31466
97.9063 15.5068 3.22094
104.863 16.6055 3.32278
95.1579 14.7865 2.88719
104.026 17.3798 3.72729
100.334 16.3291 3.35413
101.585 18.2752 3.82266
93.2152 15.8289 3.34744
87.1502 15.3307 3.32943
83.6321 14.1947 3.10098
108.594 18.5266 3.94545
88.319 16.3681 3.53085
79.9504 14.8084 3.25331
103.54 18.9868 4.28823
103.318 19.8658 4.48096
82.8441 15.4272 3.54293
96.254 18.2933 4.12507
77.4946 14.4924 3.52577
87.2629 16.2925 3.85053
83.79 15.328 3.57613
90.9933 17.6509 4.21712
96.2646 17.5336 4.20516
84.814 16.2188 4.08925
80.4869 16.9993 4.15355
73.3687 15.0945 3.67472
84.8376 16.5604 4.09702
89.5252 18.3864 4.60545
78.3419 16.1145 3.9999
71.6369 15.6485 4.02098
96.5544 18.8567 4.76471
72.8754 17.4085 4.4798
70.4883 14.5333 3.81175
62.2933 14.8741 4.06558
70.9128 15.8974 4.36327
82.1174 17.4088 4.54545
72.6051 16.0714 4.2833
75.3723 15.8624 4.3854
75.945 16.8759 4.581
70.9818 16.2861 4.53559
73.7121 16.2527 4.55868
82.4057 16.3689 4.61367
72.3777 16.5098 4.75366
61.0213 12.3641 3.43059
70.5613 16.5937 4.88684
70.5641 16.4287 4.74331
65.2352 15.2283 4.46301
63.2932 15.1221 4.5312
66.3435 16.5197 4.92361
72.5357 17.927 5.34488
68.2556 15.8651 4.69292
70.8482 16.2837 4.92778
63.9207 16.1958 5.1622
65.4445 16.874 5.25194
69.3495 18.1692 5.63127
70.2213 17.526 5.35196
57.9265 14.3885 4.70998
68.2781 17.0938 5.48684
71.5038 18.3422 5.8804
63.2496 18.0614 5.76586
70.4293 17.8108 5.6483
62.81 15.9785 5.2064
54.879 15.4284 5.11348
56.7333 15.8144 5.30486
64.5297 16.9041 5.64368
69.9916 18.6045 6.01121
53.3743 16.4712 5.73877
62.1045 17.3845 5.79467
60.8813 17.5497 6.20399
61.6431 16.5091 5.65468
63.6105 17.5956 5.95344
58.535 16.0527 5.67513
52.3635 16.7263 6.23846
50.9437 16.0368 5.77166
62.4728 18.1341 6.53338
59.8204 17.2607 6.11934
60.8176 18.0987 6.57304
55.39 16.4387 6.06564
55.7981 16.8533 6.01919
50.5195 15.9345 5.96602
54.2898 16.5383 6.29009
56.5795 17.2258 6.50049
51.7413 16.2893 6.16161
63.4483 19.372 7.37035
55.2122 15.9377 5.94885
54.0703 16.7268 6.50905
48.3063 14.1046 5.58565
57.2415 17.2548 6.58039
60.0263 18.4962 7.38227
59.0269 17.9181 7.15197
52.886 16.9612 6.82361
47.9184 16.431 6.77421
56.8422 18.4153 7.30335
51.3337 17.5982 7.46049
52.7092 16.9966 6.90057
49.2172 16.4264 6.77781
47.2716 16.525 6.65631
41.0869 15.9052 6.69399
49.8454 17.495 7.32228
44.8186 15.184 6.54092
46.1226 15.3835 6.18448
49.2393 16.3126 7.00308
43.5886 16.0127 7.25052
49.1277 17.6779 7.56184
47.4826 17.2403 7.65214
45.6246 15.6357 6.95429
42.0459 15.7157 7.23092
45.4664 15.3846 6.77229
47.0294 15.1954 6.75933
46.2869 17.5738 7.87149
41.8658 15.5367 7.15408
46.6616 17.4059 8.06511
46.2797 17.2581 7.89878
41.9817 16.0296 7.24499
45.6756 16.7519 7.78133
42.9744 15.9183 7.81843
43.0972 16.4476 7.68631
41.9828 17.8552 8.47086
46.0713 17.3499 8.23045
41.8771 15.4543 7.33503
45.4088 18.4993 8.75282
39.2574 15.0482 7.46738
39.1216 14.7374 7.3298
46.8081 18.4689 9.07997
39.8751 15.6706 7.48877
44.4977 18.0574 9.16459
43.0882 17.7445 8.80599
39.2391 14.0919 6.75238
44.1554 17.0433 8.7154
36.7006 16.4066 8.29051
37.3348 14.8001 7.79156
43.1127 17.3631 8.71901
37.4432 15.8654 8.26996
39.1708 17.1514 9.07252
39.1989 17.6688 8.99487
38.206 14.4034 7.67477
37.8186 15.0469 7.93845
41.1432 17.0177 9.09433
37.441 16.4789 8.44145
36.5025 16.5576 9.44229
44.2577 17.6272 9.38165
37.9778 16.4812 9.10217
41.4264 18.3404 10.178
35.6966 15.4134 8.51946
38.3849 16.4808 9.01201
31.553 15.4458 8.71777
38.6164 19.2785 11.2207
35.9576 14.9325 7.96816
38.6359 17.1607 9.55548
35.2275 16.5278 9.54333
33.3769 15.9732 9.07353
38.9661 17.387 9.77075
32.388 15.9448 9.29415
34.054 17.2952 10.3832
43.3521 17.5785 10.2575
31.7472 14.1422 8.36927
37.7948 18.8158 10.2459
31.7699 15.0091 9.43219
38.6483 17.3916 10.1414
35.7713 15.8559 9.32408
30.9079 15.4455 9.37756
34.8056 16.6541 10.1853
34.8344 15.4826 9.62105
38.3756 16.4759 9.69224
37.8417 18.2797 10.9816
32.0559 15.2533 9.37259
29.0626 13.5955 8.74459
35.7207 18.1391 11.0208
28.3607 16.4118 10.0794
29.5931 15.601 10.2181
33.1965 16.4276 10.6237
31.2979 16.1396 10.097
27.7927 15.5305 9.97161
31.765 16.8684 10.6458
35.4297 20.017 12.675
29.249 15.7065 10.2621
30.4513 15.3976 9.98837
30.4097 15.3277 9.63993
32.8436 15.9669 10.3675
31.2121 16.0273 10.8987
32.0977 17.5682 10.9681
28.9689 16.3679 11.5916
30.7339 16.3568 11.0594
28.712 16.5702 11.2404
31.0937 15.4365 10.2312
30.8869 17.5614 11.9526
30.4661 16.0196 11.2174
28.4762 14.3081 9.89602
32.4505 18.136 12.5278
29.7852 17.1778 11.8672
29.8104 15.1745 10.5454
29.3156 15.6117 10.7214
27.6205 15.0328 10.8914
30.2608 16.0115 11.1708
33.0043 18.356 12.9833
28.4362 16.7114 12.073
28.4182 16.3972 11.5809
27.9715 15.2819 11.4061
27.4661 15.6567 11.6786
32.2928 18.594 13.3187
30.2632 18.6457 13.42
27.5241 16.5273 12.1542
27.2474 14.828 11.0655
25.7905 14.793 10.8448
27.4357 16.6597 12.3346
23.9987 15.1883 10.8852
23.9639 14.737 11.7074
31.4925 17.7817 13.0741
26.1763 15.8511 11.995
24.9765 16.6208 12.853
27.5046 15.4112 12.1149
24.5649 14.9409 11.8255
27.3163 16.3402 11.9208
26.8362 16.2159 12.9433
25.7333 17.1931 13.5576
26.6513 15.9712 12.8476
25.518 14.8571 11.3981
26.5967 15.8978 12.522
23.1881 14.7141 12.0214
27.1392 16.4909 13.1196
22.9853 13.9148 11.1436
27.8383 17.5648 14.426
34.1982 19.9295 15.3186
26.9148 16.8716 13.6855
26.6866 16.718 13.9752
27.7166 16.7832 13.5635
23.9946 16.6979 13.9574
22.1932 16.0084 13.3312
24.5416 14.7987 12.1455
21.305 13.8777 11.193
23.4534 15.1907 12.505
21.3343 13.4908 11.4646
25.6461 16.4858 13.7729
23.327 17.4931 15.1152
27.5371 18.0957 15.5704
26.4383 17.7553 14.8109
24.1709 16.3335 14.4681
25.0432 17.7042 15.0843
23.766 16.2272 14.1167
23.9694 16.8488 14.9667
25.6607 15.8091 12.6062
22.8098 14.9806 14.3347
27.507 17.9653 15.9111
24.8685 15.5718 13.7299
25.6038 15.9136 13.4847
21.834 14.4299 13.4163
24.457 19.3381 17.4477
23.1962 14.7228 12.7191
23.3516 17.1188 15.0466
20.165 15.3383 14.1905
22.3285 15.8191 14.3454
21.5678 15.5895 14.1498
22.1078 15.3855 14.0439
24.7529 16.1369 14.9406
25.4768 17.6833 16.169
24.8292 19.1547 17.5075
21.6547 16.0979 15.2816
22.9954 17.9876 16.6283
27.3535 19.3808 16.9938
17.8428 12.7093 12.3857
22.6685 15.9253 14.7853
20.0932 15.1178 14.6143
22.2736 17.0143 15.887
23.5065 16.6995 16.4487
23.4482 15.5757 15.3149
19.4354 15.215 15.3006
22.8086 17.7427 16.4977
23.0047 16.1672 15.2064
21.9461 16.6276 16.023
21.7827 15.7979 16.4271
22.8865 14.8565 14.296
21.6575 16.2896 16.3995
22.1072 17.5588 17.0414
21.7321 16.8296 17.3269
22.6496 15.1872 14.7689
20.6677 15.6953 15.7554
19.1723 13.8545 13.4579
20.0135 15.8144 16.1141
19.5608 15.4642 16.0852
19.1251 16.1238 16.585
20.0338 15.2799 15.4674
19.3535 16.0088 16.8906
19.521 14.1867 13.992
18.7547 14.5671 15.0107
22.1761 18.6798 19.1577
19.3067 15.305 16.0501
19.6486 16.1245 17.3106
20.2202 15.8916 17.2308
20.0133 15.959 16.5467
20.1128 15.3243 15.1663
18.3425 13.7268 15.0586
20.1147 16.5027 17.9301
18.6285 16.5747 17.5751
17.2579 15.3936 16.4169
18.7758 17.1244 18.3538
19.7949 16.4072 16.8444
18.2577 16.9466 18.5451
17.8143 14.0075 16.1268
20.4545 16.979 17.7876
17.5007 15.6519 17.1631
17.8393 14.4932 16.5222
18.1464 14.8335 15.8629
19.9209 17.5633 19.7545
17.83 15.8705 16.9331
19.8502 14.5239 16.2638
18.9562 16.3582 18.2249
18.0349 16.3627 18.4193
17.8478 14.2544 16.5613
21.5527 18.0885 19.4691
17.5368 16.1711 18.4593
19.2686 17.4043 19.409
17.3376 16.5937 18.8255
15.8223 14.0101 16.9191
20.3706 18.1995 21.2926
17.3255 14.9824 17.6674
16.8162 15.7242 17.9621
19.877 18.4 20.8618
17.6435 16.211 19.5039
19.6119 17.0213 20.5448
18.1044 16.7672 19.2124
18.0886 16.2367 18.4291
16.2049 13.8287 16.1954
16.4806 15.8712 18.7032
18.5684 15.2636 17.7028
16.0581 14.7769 18.1022
18.1421 15.7448 18.2799
18.4462 17.8709 21.524
16.5412 14.8766 17.7021
15.5074 15.6389 19.6994
15.1433 13.8771 16.6184
16.9086 14.9466 17.6724
15.2303 14.7711 18.6007
16.2559 17.0868 22.2404
19.4298 16.4541 19.8498
16.9621 16.908 20.4138
16.7715 16.6632 19.7461
17.0564 15.41 19.0111
18.1971 20.0254 25.0806
17.749 15.4564 18.3542
15.8706 17.2233 22.0836
17.4875 17.4602 21.29
16.6573 15.5967 19.6862
17.9118 18.2612 22.459
17.2678 16.2751 20.8042
13.8942 13.1444 16.5405
15.164 14.9994 19.1481
14.8923 15.2996 19.8597
16.053 15.7809 21.0914
16.7614 15.583 18.1769
15.4689 16.8537 22.3117
16.2363 16.22 20.8624
17.8243 16.3781 21.8892
14.2732 16.2519 21.519
15.2057 17.4812 22.2934
17.15 17.0374 22.6979
17.4776 18.4168 24.9077
17.589 17.8122 21.9125
15.2649 15.9627 21.6508
16.2046 16.5732 22.24
12.998 12.6453 17.3372
16.2427 16.3115 21.3476
15.4381 15.0059 20.0098
14.3498 14.9939 19.8107
17.548 17.3234 23.1229
15.7595 16.6088 22.8615
14.0727 15.752 22.0308
16.0226 17.4372 23.2258
13.9079 15.3445 20.5568
13.6572 14.2641 19.5649
14.8431 16.6653 23.8786
16.7314 16.5663 21.2381
13.625 13.7134 19.0103
14.289 15.6296 21.3567
13.541 14.8673 21.2254
13.525 15.1293 22.0865
14.3568 15.4799 21.1642
15.0739 17.1748 23.4929
16.4141 18.7228 25.351
13.0879 14.0629 19.6204
13.0129 13.6268 20.2676
15.0078 16.5316 22.6106
12.983 15.0284 21.9513
14.9165 15.7992 23.7466
15.2401 15.0791 20.1972
13.9656 16.4306 22.4647
14.5766 15.9685 24.3462
13.502 14.5885 21.5614
12.9633 14.214 19.9656
13.5359 17.2247 24.852
14.8701 16.4746 24.2194
13.2846 14.9126 22.6248
15.5114 18.3612 27.3804
13.914 14.7735 22.6604
16.8337 17.8516 24.8479
13.6754 14.5433 21.6675
14.5555 16.7793 25.6512
14.9309 16.2753 23.5051
14.9367 15.9922 21.9526
12.8414 15.1263 23.7516
12.9524 15.19 24.8879
13.4881 14.5835 21.7121
14.4476 17.5931 25.0051
13.9354 16.3156 24.2214
12.8392 14.755 21.8661
13.2207 16.6873 26.4345
15.2669 17.2074 25.2703
11.8775 15.3007 24.2281
12.8035 15.0119 23.8667
13.8217 15.364 22.0449
11.0439 14.1818 22.6202
12.7344 15.0127 23.9106
13.6941 16.3958 24.482
12.7997 15.3001 23.994
13.8328 16.4587 23.5524
11.6156 15.1686 24.5443
13.6104 16.9777 28.8191
14.006 16.223 24.9391
10.9685 12.9931 22.8585
14.6413 17.487 28.0507
12.8922 15.8421 23.9667
12.4924 14.7981 22.2828
13.899 15.8601 23.9614
13.3745 15.5167 25.5347
12.6945 15.3566 25.5578
13.7806 16.3576 25.6471
13.6196 16.871 26.2263
13.0919 15.8702 26.2735
13.1981 16.4114 25.9608
13.0001 16.9462 28.8977
12.5686 15.7191 25.6774
14.3337 16.2301 25.5085
12.8993 15.1249 23.8354
12.0652 15.4452 25.9156
11.287 15.6547 26.4686
13.6173 14.9749 24.4119
11.4658 15.6976 26.0589
11.8428 15.3085 24.6898
12.8902 16.6716 27.8754
12.5678 15.6184 25.8521
12.2975 15.6465 26.0133
13.2555 15.9632 28.3657
13.1657 16.0365 24.0135
11.7932 15.9311 26.859
12.6396 15.1795 24.7614
11.2404 13.6106 23.2256
12.2063 17.6726 29.2101
12.5126 15.7515 28.971
13.8193 18.3695 29.7913
11.4765 16.1172 26.4688
13.3683 16.6018 29.6465
12.5513 16.5145 27.2853
10.6793 14.3055 25.0545
11.7684 16.1884 29.9472
12.2344 16.2709 27.6902
10.3367 14.9445 25.082
11.1729 13.653 23.9784
11.3247 16.7109 29.0431
12.2285 16.6317 28.374
12.4485 15.9258 27.5982
12.1152 16.7928 27.8101
10.1194 14.351 24.9917
10.7606 13.7769 25.6399
10.8755 16.2101 29.2484
11.3543 14.6978 26.0842
10.0021 14.6084 26.6542
12.0091 15.9166 29.0294
10.414 14.7129 23.6901
10.8026 14.9217 27.2732
12.0866 16.6653 30.7813
10.7672 16.629 30.6337
12.7901 17.9649 32.8411
11.6058 15.2339 27.2047
10.6913 14.487 24.8298
12.0763 17.1103 30.4061
11.5865 16.4786 30.415
10.2743 15.6285 28.1274
9.65143 14.2319 28.2719
11.2875 14.8981 27.6569
10.4082 15.1616 26.4503
10.795 17.0809 31.2592
10.8529 13.8294 25.1364
10.6605 15.291 28.5715
10.3443 15.9776 28.6248
10.308 14.0039 27.1294
10.6529 15.8169 29.7089
9.87722 14.755 27.5248
11.725 16.556 31.4965
10.5766 15.9502 31.6031
10.7165 14.663 28.6957
11.2261 15.4047 27.8963
10.9962 16.0345 31.1593
9.67309 14.2137 27.0659
10.2619 16.3746 32.4936
11.122 15.203 26.7855
10.4369 15.8633 30.9504
11.0772 16.4861 33.0536
12.501 17.6437 31.3919
9.9919 16.5727 33.227
10.9742 16.0469 31.125
10.0639 15.8504 28.7382
9.20308 14.7517 30.8281
10.6906 15.5219 30.1229
10.8734 17.0527 32.6827
9.60741 15.7592 31.6
11.4462 14.904 30.4107
11.4205 17.85 33.729
11.32 18.0745 36.7056
10.2898 15.5608 28.579
10.4737 16.7756 33.1254
10.1777 13.4529 28.0719
10.3222 16.621 32.5649
11.7987 17.7971 33.9363
10.6204 16.3445 30.8097
10.5604 15.4242 29.0691
9.80592 15.5961 31.6796
9.96463 15.8317 33.481
9.19011 14.5004 29.9409
9.58304 13.2716 25.6729
9.06095 14.0648 30.0338
9.90122 16.125 33.7909
10.6674 13.856 26.0715
9.6615 14.6872 28.816
9.49792 14.1609 30.4929
9.55498 14.552 32.2507
11.3918 17.9382 33.6949
9.44881 14.516 30.452
9.68073 14.9634 32.1398
10.3072 16.1469 30.1335
8.42952 13.0283 28.1467
10.0105 16.3491 34.1736
10.9604 15.6951 32.8724
9.74744 13.0418 26.6375
9.42705 14.4843 28.9138
9.71491 15.6483 32.6147
9.10892 14.2768 29.0304
8.70362 16.4581 36.0613
10.6717 15.2872 29.5919
9.04375 15.8617 36.2986
9.89048 14.7372 29.374
8.74088 15.7685 33.6251
9.54026 15.4167 34.3811
9.63364 16.9587 34.7955
9.23727 14.8529 32.457
10.6559 16.3178 33.8279
9.67994 16.373 31.0065
9.3337 14.1362 30.3519
8.21188 14.1376 30.9769
10.2562 18.1543 37.4123
9.18545 15.2195 34.1564
9.15941 14.0157 29.3241
9.3382 15.1877 31.4026
9.03458 14.4281 31.4946
9.50198 17.319 39.278
8.39568 14.0277 30.2112
9.93149 16.5612 34.5161
9.67863 15.8591 34.2775
9.07914 16.9044 38.9825
9.52008 15.7044 32.7594
9.12418 14.6314 30.2298
9.91679 15.4618 34.8101
9.11977 15.1149 34.6094
9.36182 16.3701 37.1128
10.0735 16.9403 37.1273
9.89855 15.6872 33.4623
8.92331 13.941 31.7489
8.35928 14.6799 32.8081
9.66576 14.6353 32.159
7.71792 12.7128 26.3594
7.64007 15.3414 36.2015
9.71597 15.4555 34.9854
8.74444 15.6976 33.5345
8.25037 14.9833 35.0247
8.86393 13.5489 29.4632
8.22973 15.9751 35.0769
8.19825 14.9662 36.2289
9.15642 17.043 39.7446
8.86025 15.1051 35.2766
9.50471 14.4579 32.1899
9.99621 18.2003 39.4505
10.237 14.4187 32.9566
7.92472 14.4927 32.7108
8.39124 14.3099 31.2614
8.36403 14.0956 30.9174
8.15143 14.4452 32.2119
7.92292 14.3281 31.9559
8.08675 14.701 33.021
8.28467 15.8687 36.7269
8.83113 15.472 36.9705
9.40886 16.7101 39.9346
9.88009 14.2906 32.4515
8.13802 14.2538 35.0363
9.25118 15.1533 32.5599
8.01091 15.0007 37.6329
8.75934 15.9451 34.3964
8.86507 15.3459 36.6959
8.31403 13.9103 33.7056
8.29804 15.6809 38.0038
8.20885 15.2184 32.9403
8.04592 14.541 33.3893
7.71315 14.3505 34.6307
8.72244 14.9581 38.2179
9.43659 17.0566 39.8161
8.14707 15.2424 38.7947
8.35513 14.9457 33.5013
8.54905 14.2672 33.1928
8.2657 14.2358 36.377
8.46093 15.0668 33.51
7.81963 13.3417 33.7114
8.16553 15.6257 35.5021
7.74218 13.6854 35.2153
8.0947 14.6421 34.6837
8.60911 14.7561 33.1037
7.78161 12.9336 32.9538
9.6427 16.2269 38.4919
8.556 15.9467 35.6597
7.7145 15.6509 38.9452
9.21574 16.8129 39.9586
8.21049 14.1242 34.3804
7.24875 13.8639 33.1579
7.42069 12.3902 31.2098
7.27543 13.5746 36.3629
8.59943 18.6437 43.137
7.19237 12.9959 32.7849
6.87565 12.7317 31.2201
6.75975 15.5886 38.8822
8.45473 14.0106 34.4438
7.58894 14.538 38.2507
8.14488 15.4191 36.5192
8.0819 15.1287 38.5476
7.83808 14.2076 34.8252
8.32395 16.6192 40.3535
7.07302 13.2984 36.0205
8.47227 16.0504 39.0642
7.83658 16.6053 40.3157
7.90691 13.7476 36.3863
7.4193 14.0803 37.6306
7.84376 13.7687 36.0857
8.73472 16.4515 41.6106
7.9221 14.4811 33.8268
7.38953 14.1899 36.0706
7.8917 15.5197 37.0733
7.30348 14.0507 36.8024
8.17036 15.3889 38.5395
8.23281 15.1941 40.0112
8.43656 15.0772 38.7796
7.30003 11.9239 30.6033
6.66308 13.4299 33.5894
8.37372 16.2293 39.7327
7.38997 13.2039 35.6405
7.73176 15.0193 37.1991
7.34305 15.4095 41.8995
8.04121 14.9154 37.2114
7.65574 14.7185 38.5222
7.25596 14.9615 41.3029
8.60162 16.1568 41.9436
7.86007 14.626 35.9691
6.88938 15.2665 43.6827
7.91373 15.1668 35.599
7.5003 14.5829 37.2401
7.38267 16.4287 40.4311
6.9247 16.7207 43.815
7.34331 14.7874 40.76
8.15279 14.1306 41.3097
8.41166 17.3546 45.0072
8.52526 15.5333 37.7272
6.98958 13.2941 39.2491
8.81601 17.5616 44.4686
8.21218 16.5118 40.2478
6.8389 12.4449 34.2781
7.246 13.6562 35.3588
7.2904 15.0405 40.2252
7.4044 14.3268 42.043
8.30672 15.3592 39.3256
7.65067 15.3049 40.0385
7.2305 14.4168 39.5014
7.58173 13.4809 37.3149
6.94582 16.4162 46.387
8.67311 16.5624 44.5446
7.63732 13.8372 34.5748
7.52501 15.594 46.5254
8.32448 15.6004 39.4456
7.53109 17.4149 44.6112
7.78353 15.1097 42.2873
7.75303 15.4407 45.0414
8.43914 16.1283 42.2517
6.82661 13.3729 36.3685
7.56403 15.1452 42.7778
7.56088 12.6101 31.2714
6.9074 14.3528 39.4418
7.21811 14.9096 40.0822
6.41975 13.8594 41.1997
7.2566 14.2434 41.2964
7.55252 16.2586 44.0318
7.52349 15.0183 38.7648
7.73122 15.4 43.0565
7.02216 14.2554 39.5498
8.04391 15.4662 39.6799
6.69363 15.0216 41.5595
7.21486 16.3667 44.6733
7.27409 14.9617 43.037
8.39081 16.0919 41.9253
6.42364 13.2425 37.1592
6.53225 14.3419 40.8851
7.35217 16.2268 43.6788
7.60714 15.406 46.6361
8.00766 14.1891 39.5598
7.5408 14.4436 40.7107
6.98797 16.52 45.0757
7.4662 14.0976 39.8066
7.24316 15.0447 44.2303
6.25811 13.9656 40.6945
7.2076 14.3579 39.1086
7.33863 14.3394 41.2839
7.38199 15.251 42.8368
7.58769 15.1904 38.8584
5.58596 13.816 39.6977
6.48292 12.637 40.8054
6.90626 14.7137 44.7056
7.4232 15.0858 39.8053
6.83536 16.4221 46.8488
7.11914 16.0048 48.3424
7.90152 15.4194 39.827
6.19439 14.3009 44.6308
7.33029 15.8433 43.078
6.35444 12.5856 36.4011
5.99442 13.8485 41.5115
7.14045 15.3476 42.0035
6.78529 13.648 38.167
6.24456 15.27 43.3225
5.78417 13.0991 39.8892
6.97337 15.0214 42.4742
6.62623 13.3912 42.5009
6.43576 12.9252 41.8592
7.6928 15.2506 42.2689
6.17529 14.3266 44.2119
6.91571 14.8144 40.4994
7.06511 16.1969 49.9635
8.02016 15.95 46.9358
6.92937 16.182 44.3934
6.51975 14.7235 42.8629
6.81359 14.4199 44.8123
6.96864 15.2306 45.8883
7.34757 16.3999 46.2646
6.51367 15.7048 46.8889
6.67769 15.549 51.3869
7.71655 16.3298 42.479
6.36365 14.3687 43.2712
6.7545 14.5301 43.1139
7.20866 14.6714 43.4789
6.79268 15.9404 45.5504
5.97113 15.0196 46.128
6.2331 13.2933 42.9638
7.3193 16.1079 43.2354
6.29679 14.4836 45.507
6.49419 16.0799 49.0028
7.5343 16.0177 46.2926
6.70897 14.2418 39.4484
6.20602 14.1641 44.8462
7.11608 14.22 42.4865
6.51919 14.8821 50.7806
7.32954 15.6055 45.544
6.79103 15.3994 42.7114
6.17955 14.9 42.5802
5.99429 15.3474 50.7
7.60688 14.436 40.7297
6.53085 15.4977 50.3358
7.10731 14.5271 41.5219
6.44461 14.9827 46.0517
6.82414 14.7412 40.9081
5.84569 15.7875 52.5829
6.91133 15.1724 45.2973
6.42714 13.0973 39.5783
5.92041 14.4004 44.3899
6.39743 16.2855 52.515
7.0269 12.2596 39.1824
6.47432 15.4854 45.8407
6.98214 15.2478 47.6139
6.78555 14.9669 42.8557
6.11696 14.2358 43.0238
6.0305 15.5805 46.4402
6.70672 13.9708 42.2817
6.26457 15.1856 49.654
7.00938 14.717 45.7256
6.63226 14.3577 43.0484
6.12305 13.9776 46.2252
6.6385 15.9254 47.9651
6.36841 13.278 43.8028
6.36399 15.0539 43.5768
6.31712 14.2947 48.7671
7.02243 14.601 43.232
6.62516 15.5798 47.4383
6.33987 14.7915 49.4526
7.24162 16.5064 49.0354
5.88958 14.6321 46.6875
5.95267 13.7061 41.5953
6.27447 15.1896 49.269
6.59649 15.2077 40.8496
5.97786 14.1486 45.1368
6.02673 14.1037 50.2143
7.55454 16.0893 48.6562
5.96249 12.927 42.959
5.81749 13.6014 49.0074
6.66341 15.6911 49.3083
6.47724 14.3575 40.3584
5.3327 15.4864 47.8915
6.49924 14.2806 49.2178
6.8458 13.7443 44.6821
6.70225 14.4928 40.4997
5.70095 13.5307 44.6796
6.53539 15.5736 48.0178
6.32036 13.4292 45.8171
5.93821 13.1394 47.6079
7.38824 14.8862 43.0458
5.77582 14.7716 50.1213
5.9858 13.5371 44.844
6.54207 15.9388 46.7539
5.74097 15.0542 48.4882
6.90059 15.3893 49.5804
5.82147 14.015 48.0805
6.1521 14.596 50.8715
7.03472 15.6096 44.4127
5.76898 13.4808 47.0029
6.02243 15.7083 47.8167
5.91369 13.8619 49.8781
6.49557 14.5067 48.4103
6.03983 14.6112 42.1565
5.35785 12.8715 43.9312
6.1526 15.0175 47.9774
6.68421 16.576 54.0437
6.8194 14.9506 44.1059
5.34323 11.8539 40.5583
5.59171 14.0476 45.2061
5.69608 13.1986 47.3543
6.25423 14.5665 48.3086
6.4744 13.2799 42.2034
5.80812 14.5834 48.7503
6.29168 14.1961 51.9173
6.46401 15.6145 50.0275
6.62699 16.9604 49.6394
5.80392 14.0325 48.329
6.40351 13.8155 44.834
5.69416 13.9466 48.5849
5.85103 14.577 49.5402
6.60602 13.9316 44.9249
6.05122 16.1407 54.6102
6.2497 14.7086 50.2504
6.68304 17.1878 52.2227
5.84428 13.2638 48.868
6.82405 14.6973 43.9033
5.63417 14.7749 49.6021
5.79132 14.7447 44.1898
5.46772 13.5564 48.7893
5.48778 14.109 51.1966
6.25942 16.6954 52.1343
6.09664 12.4168 43.0897
6.05693 13.0737 41.8901
5.40205 14.0074 47.5144
5.8309 15.134 52.4123
6.13482 14.7474 45.6998
5.99218 15.1219 57.4298
6.42026 14.2602 46.6255
5.78558 14.3907 47.769
5.83027 16.5959 58.3361
6.65531 14.8872 45.4294
5.25175 13.872 47.2603
5.9479 14.3149 52.2629
6.39237 14.3973 50.7194
6.04464 15.3618 52.2839
5.58434 15.3413 54.0291
6.24733 13.776 40.7663
5.3177 14.9443 50.0362
6.15273 16.464 51.7781
6.24439 14.6706 52.1117
6.18747 13.8974 45.2169
5.0574 13.2239 45.9516
5.25495 13.9455 52.6956
6.4002 17.0038 53.6776
5.55589 14.1172 49.4655
5.76603 14.968 48.6349
5.98172 13.4362 47.3719
5.09385 12.4193 44.3724
5.35068 14.0553 44.896
5.4863 15.1562 52.4788
5.8554 14.419 50.5478
6.56646 14.2133 47.4022
5.54221 14.9706 52.8166
5.59355 13.5711 47.0939
6.2349 15.7219 54.5024
5.93912 13.7622 52.4529
6.09436 15.9432 52.5346
5.76537 15.2843 52.9346
6.33385 14.7444 49.544
5.32396 13.6796 44.9717
5.17738 14.4311 51.8983
5.79446 13.9267 49.6499
5.98133 13.9599 47.0702
4.6925 14.1087 44.9236
5.53429 13.5359 50.7208
5.93244 13.7897 46.5026
4.9765 12.9549 48.1622
5.6026 14.837 53.8521
6.05433 14.2401 51.6841
5.95575 14.6038 46.4818
5.03354 14.8483 50.4514
5.34734 14.7394 50.0434
5.37991 14.3245 50.4022
5.70589 14.5253 50.5106
5.79452 13.8046 47.8744
5.63744 16.8077 55.3272
5.90945 13.9437 50.7934
5.24313 15.143 55.1506
5.53727 12.0457 42.3794
5.10904 14.2497 49.2197
4.86686 12.6656 47.1336
5.2219 13.055 45.7905
5.48535 13.9993 47.7295
5.31358 13.8344 47.7885
5.29063 14.2384 51.0839
5.14809 15.638 55.6656
6.14097 13.6089 45.3149
4.93934 13.7511 50.961
5.32676 13.2591 50.5691
5.75558 15.5962 59.1657
6.6518 16.2034 53.7513
6.06203 14.5505 53.9708
6.74942 16.0803 54.3258
5.86698 15.2401 56.6943
5.51889 12.6883 46.7134
5.27566 13.656 50.9999
5.69997 16.4528 54.833
5.3502 14.0196 56.887
6.63157 15.9137 53.4801
5.49394 16.1419 56.5645
6.04682 13.6831 48.238
5.68966 15.156 49.2341
4.60766 13.4471 51.2056
5.24991 13.7764 51.3696
5.27899 14.0422 49.0517
5.87759 14.4838 52.4642
5.6306 15.2563 54.415
5.82331 15.2964 59.1859
5.89771 13.9463 47.0703
5.27088 16.4001 58.6177
5.37256 12.8647 48.1692
6.00422 13.5854 43.813
4.9161 15.2805 55.877
5.67122 14.7257 56.1213
5.70662 17.733 62.4002
6.30798 15.2133 57.4546
5.28793 12.9856 51.3311
5.53942 17.4855 55.2027
5.27237 15.1705 57.1683
5.61097 14.7079 52.8772
5.77088 14.6166 53.3699
5.48185 14.4662 56.7128
5.52887 15.0249 50.4234
5.44425 15.804 55.089
6.02677 14.9896 53.6171
4.80006 15.036 59.3745
5.59211 15.0515 46.6514
4.75466 13.448 48.963
5.04872 12.9783 50.3194
5.44358 15.6304 55.32
5.11688 13.9153 50.3732
5.23574 13.2368 57.6402
5.4556 15.1772 47.48
4.96961 12.3188 46.5619
5.09925 14.4762 51.8255
5.42746 13.1963 51.2638
4.85805 14.4385 54.8649
5.51076 15.0366 52.5673
5.40412 13.0149 45.0779
5.35189 14.2486 54.8647
5.57991 15.8594 55.4169
5.12324 15.3659 58.4854
5.1579 13.8606 50.2747
5.25741 15.2481 56.7863
5.32147 13.8375 43.8997
4.56679 12.0836 52.7935
5.2652 15.1662 57.2667
5.4915 14.499 55.2734
5.88248 13.9644 45.5534
4.43513 13.7322 54.5382
5.39416 12.7583 47.9429
4.9093 13.5 48.3962
5.09723 14.0672 48.9703
4.67702 13.2553 50.3137
4.73666 13.0681 47.9687
4.79305 13.8383 57.4192
5.78266 14.3359 49.8382
5.21898 16.5909 58.3232
5.1906 14.8993 57.0373
5.28006 12.8453 48.1251
4.9341 12.597 50.9938
5.06102 16.3819 60.3562
6.32829 13.4802 50.0483
4.66817 11.8085 40.7263
4.4386 12.1593 48.6644
5.3925 12.4654 49.4182
4.85574 13.4073 49.6018
5.0764 15.0256 52.2119
4.97723 15.4978 58.0191
5.16012 14.1672 59.4029
5.00125 13.5061 47.8237
5.23575 12.8603 48.0455
5.10183 15.3562 54.6145
5.48982 14.2789 50.2216
4.91261 14.5718 57.9378
5.33745 14.2962 50.61
4.8337 12.1204 54.6564
5.51009 17.0336 61.9339
5.48761 14.8777 49.7668
4.58687 14.3582 54.3498
5.27764 15.1429 56.8731
5.42753 14.5772 60.2438
5.28818 16.266 61.1353
5.27431 14.4928 55.9345
5.28176 15.739 59.6657
5.7996 13.4107 42.6759
4.1897 14.0026 54.5316
5.32016 14.2921 60.3735
6.03141 15.6391 48.1447
3.89211 12.7256 47.8931
4.72531 11.4759 51.8544
5.34711 15.0471 59.4451
5.44125 14.0253 52.0039
5.4128 15.6835 54.0737
5.25483 15.7301 58.2
5.02497 13.8512 46.3626
4.55555 11.8344 53.0396
5.03941 14.42 54.6101
4.96885 14.2973 55.5809
5.09557 14.208 58.4525
5.71573 13.0422 49.4125
4.63878 13.9948 47.6826
4.20848 12.3224 54.3032
5.29591 13.8919 47.825
4.42194 11.8025 53.393
5.50391 15.3591 49.3422
4.98456 13.4487 49.8823
4.7914 12.7601 57.8087
5.51892 16.1061 55.3986
5.07624 13.8609 54.3697
5.24869 13.6196 61.7248
5.23054 14.422 48.0103
4.70883 13.042 52.4741
5.18768 12.9476 48.9108
4.9551 14.3906 55.6882
5.16654 14.6078 52.2404
4.72778 13.5249 58.9951
5.32677 13.8783 49.6575
4.43415 15.3754 63.9831
5.28798 14.6637 52.7831
5.16464 14.1994 54.2927
5.17067 15.0906 62.1007
5.77742 16.0726 64.8737
6.05421 16.5726 59.6253
5.20332 14.2292 56.814
5.03226 13.2353 50.4246
4.85516 14.7972 55.9286
4.76524 14.8591 56.4409
5.07234 15.1273 57.5602
5.4517 14.2714 45.898
4.42575 12.0067 51.3239
4.91327 14.7863 57.0548
5.27295 13.2026 46.6334
4.63358 12.5609 52.5259
4.81929 12.9838 50.3076
4.78249 14.4336 58.0812
4.69436 14.6887 57.0272
4.83702 14.7297 53.7043
5.10032 13.9555 51.7661
4.51397 13.5576 56.4038
5.25544 15.694 54.3815
5.27005 13.4671 56.6326
4.90081 13.6809 57.6468
4.91679 14.0989 60.8929
6.02112 14.6203 45.1863
4.31669 10.6668 46.7612
4.45641 14.3646 53.4967
4.53734 12.1151 42.1562
4.59016 14.2346 56.1878
4.97028 13.8832 61.7105
5.69606 14.0164 51.881
4.59741 12.9553 45.9461
4.15782 13.7017 53.338
4.53115 13.7939 51.2384
4.48856 13.4593 55.2412
4.60886 14.4594 58.0909
5.53958 14.6301 51.1167
4.54154 12.1716 54.7983
5.00174 12.4577 53.3384
5.25618 15.5656 53.0969
5.08015 12.7201 49.4065
4.63897 13.4217 55.1471
4.98889 14.5773 55.1135
5.24497 13.737 55.0874
5.23317 14.4551 53.3539
4.86156 12.1993 55.2223
5.65177 16.631 61.5123
5.16847 15.3536 57.8022
5.28847 14.5748 52.0766
4.84867 12.4833 50.2853
4.29286 11.8042 52.7004
4.65103 15.1746 50.1774
5.14356 12.9274 56.7013
5.67835 13.6289 53.0729
4.92423 14.9059 60.1466
5.06246 14.7927 57.7735
4.93023 11.7129 47.1334
5.17867 14.8606 52.1151
4.38159 13.1825 54.2009
5.23392 13.7307 52.3716
4.28694 14.2286 51
4.79174 12.9245 52.8342
5.17051 13.5731 55.8455
4.71754 13.8344 53.3157
4.69502 15.0789 60.2148
4.97681 14.6754 63.7702
5.44821 15.4442 55.187
4.17102 13.3599 56.1919
5.20341 14.3547 58.6216
5.02281 14.009 47.3756
4.48697 14.3802 48.6291
4.5862 13.1519 59.8751
5.12608 15.5031 56.7169
4.83525 14.333 55.3176
5.12057 11.9364 57.2595
5.76733 14.5904 53.1741
4.68254 13.7704 52.888
4.65264 14.1036 52.9207
5.0295 13.2319 55.9525
4.85132 14.2127 50.7345
4.62629 12.5661 49.1661
4.9313 14.1142 56.0968
4.90911 13.6376 49.981
4.23614 12.2434 52.0591
4.86398 15.0085 60.8065
5.37936 13.6715 55.4018
4.99064 14.7774 56.0047
4.79437 12.0053 55.7769
5.10391 15.9628 59.7138
5.3435 14.5726 58.8761
5.7201 12.7719 53.277
5.00242 15.6525 56.4484
4.55223 14.1334 48.6689
3.96061 13.8906 53.4283
4.38803 14.1803 56.2022
4.59068 13.6244 53.2585
4.84779 11.8817 52.185
5.02497 15.5572 66.2426
5.79317 14.5043 57.2579
4.29173 13.267 56.3026
5.63453 14.4126 54.7879
5.16133 14.7152 55.4861
5.07763 14.8764 54.9518
4.50233 12.8085 55.115
5.08916 13.5726 49.7555
4.465 13.1501 54.8198
4.87068 12.3712 51.4218
4.52518 13.9879 58.8508
5.50001 14.5036 51.8938
5.0968 12.5824 57.6791
5.31546 14.8118 52.4001
4.32138 13.0463 55.3929
5.0101 14.1398 53.1568
4.32999 14.6606 57.0356
4.68091 12.0099 51.0704
4.1011 14.5411 55.5889
4.94294 11.7036 45.135
4.2289 14.0226 61.4708
5.51624 15.2245 59.476
5.15173 14.2367 50.584
4.20113 13.9752 52.5401
5.29906 14.7369 59.6377
5.36727 13.9918 54.9555
4.73681 13.5189 54.9103
4.74433 12.8191 48.5567
5.01981 13.074 61.3791
5.83094 16.2635 57.2468
4.87399 16.2201 60.3544
5.06192 12.672 61.1047
5.13853 16.3332 61.3713
4.95584 14.7497 55.521
5.27251 14.3566 58.1073
5.34758 14.5045 57.5441
4.97733 14.0336 55.4283
4.38546 14.0292 60.2605
5.03573 14.7024 57.2298
4.53197 15.4321 57.321
5.06904 13.5386 61.0484
5.37991 13.9673 49.9004
4.64585 12.9332 53.0767
4.65971 13.8663 57.8474
5.07272 14.4314 59.6062
4.8087 14.3285 55.2508
4.92533 12.9537 49.4702
4.7525 12.3702 54.3379
4.86645 14.095 57.0892
5.05392 13.5056 49.752
4.51197 13.6028 59.7958
5.21433 15.2981 62.9552
5.14881 16.2571 66.1376
6.00703 15.4318 51.1852
4.59617 13.6451 55.3639
4.98311 13.085 49.8965
4.21007 12.4828 57.5517
5.48735 15.1552 54.1442
5.22348 12.9342 58.0485
5.14677 13.4832 49.8338
4.65037 13.0715 58.0357
4.87342 13.8927 58.083
5.31006 14.7191 57.6529
5.06805 15.7493 61.5744
5.35873 13.6691 49.8714
4.29955 13.0212 56.7066
5.34691 14.069 56.4194
5.01908 15.3711 51.1043
4.60547 12.2957 52.1558
4.42918 13.5095 62.3469
5.39708 15.2636 51.7401
4.8059 13.8905 57.4263
4.95049 14.6369 59.1463
4.56169 15.1375 56.0581
4.87009 13.1626 57.6749
4.89324 15.7497 62.5879
5.56384 14.7673 55.0208
4.85305 14.0279 61.7254
5.36449 14.6527 58.2143
4.93251 16.1089 54.1931
4.73958 12.776 63.1692
5.38144 16.5549 63.6261
5.17774 14.5759 57.1843
4.11428 14.8124 57.2615
4.7079 15.7086 62.1086
6.27194 0 0