# pn-170911/CsIIA-33-CsII-1280-1959.psd
# Power spectrum* (dif=0,1,2) (really just |FT|^2)
# NOTE: only the first half! (symmetric)
# weeks: 1280-1959
# 576 clock-days, 124 excluded
# PSD: 1441
89800.8 3.038 0.0502257
3.87571e+06 68.2478 0.0391755
2.03741e+07 413.858 0.0453307
3.69426e+06 143.652 0.0447536
3.44223e+06 240.571 0.0533054
1.41539e+06 143.456 0.0514833
920070 134.814 0.0591223
725924 144.492 0.0688111
588101 146.145 0.0857266
399332 130.001 0.0850711
382960 145.198 0.101117
301723 139.453 0.116515
266988 136.716 0.128378
208194 136.051 0.13961
203016 135.293 0.165791
154459 130.431 0.178232
160587 137.964 0.201245
128326 135.459 0.216263
129206 138.02 0.254028
96347.9 125.537 0.246649
108071 134.759 0.292099
80659.8 138.323 0.32671
87945.8 139.755 0.356223
67930.3 132.406 0.365252
69279.8 136.733 0.414638
57459.1 138.548 0.455879
60727.1 132.694 0.453542
47578.9 130.798 0.472548
51098.4 136.196 0.547692
43479.9 134.008 0.569588
46089.5 145.951 0.658719
39689.9 138.414 0.681779
38089.1 135.699 0.70535
32378.9 137.576 0.751215
28787.4 125.516 0.726226
27786.2 130.281 0.789877
28738.8 141.606 0.92361
27290.5 140.217 0.943183
24763.4 134.451 0.949276
25466.6 140.011 1.06602
22579.7 137.357 1.05564
22337.1 150.388 1.24858
19418.1 130.591 1.13848
19046.3 138.804 1.25082
18142.3 132.054 1.26195
18277.4 140.696 1.37569
16896.7 132.939 1.35493
16295.8 139.949 1.51179
15559.3 135.355 1.51511
14632.4 131.532 1.52579
14359 129.646 1.56323
13773.6 137.332 1.74719
13525.5 136.563 1.79208
12367.4 134.46 1.839
12088 124.445 1.75242
11413.8 128.909 1.89124
11275.4 115.087 1.73873
11351.3 137.817 2.14175
11193.9 127.085 2.08784
9923.26 129.95 2.20853
11542.8 132.502 2.3119
9624.8 133.058 2.40698
10436 130.428 2.40518
8976.22 129.082 2.46023
9643.42 125.363 2.46335
7680.65 121.144 2.51202
9229.73 125.334 2.60287
7906.63 129.546 2.82935
8675.46 130.411 2.9077
8134.28 144.215 3.28929
7599.53 125.538 2.9776
6696.96 118.608 2.87065
6835.39 119.258 2.95172
7010.22 139.499 3.58406
6874.92 131.185 3.44076
6024.94 125.992 3.38167
6750.15 135.707 3.80792
5842.15 124.112 3.53922
5712.07 127.424 3.71486
5160.53 120.048 3.56991
5050.76 118.225 3.60354
5140.28 129.396 4.06259
4766 117.115 3.77793
4643.94 118.701 3.89726
4995.76 125.332 4.19868
4689.44 126.767 4.40138
4320.94 115.128 4.07529
4506.94 130.914 4.74735
4558.95 127.809 4.77016
4083.3 118.39 4.47074
4198.16 121.218 4.71667
3908.9 121.351 4.73555
4047.68 119.442 4.83431
4213.59 129.706 5.34648
3930.22 117.313 4.97718
3785.84 118.331 5.12284
3892.24 116.372 5.11967
3851.3 125.208 5.61531
3894.48 120.625 5.52683
3269.56 115.936 5.46277
3746.21 118.7 5.64736
3227.1 116.71 5.64661
3551.29 112.272 5.53907
3170.87 117.689 5.93189
3588.79 122.683 6.31668
3272.37 116.016 6.11883
3412.45 123.253 6.52408
3076.93 117.935 6.43064
3176.79 113.837 6.29447
2716.56 114.504 6.4089
3030.37 116.961 6.71256
2735.08 115.867 6.8303
2856.58 119.847 7.19886
2634.39 114.311 6.97283
2684.12 118.732 7.34389
2478.92 116.003 7.38304
2412.13 109.38 6.99323
2333.9 119.693 7.8383
2491.26 113.849 7.55133
2273.5 117.338 7.82064
2104.17 106.561 7.28069
2171.72 112.659 7.84928
2090.16 108.052 7.68286
2003.53 110.666 7.97683
2152.31 118.917 8.6504
1945.87 105.09 7.77587
1912.38 110.973 8.32519
1795 106.366 8.11194
1895.06 108.919 8.45826
1958.14 116.578 9.28557
1752.38 104.3 8.30521
1748.63 104.205 8.57725
1873.23 111.526 9.23709
1745.52 108.555 9.0617
1863.83 107.116 9.08246
1739.33 107.223 9.25714
1870.95 108.007 9.3768
1661.44 103.036 9.15099
1854.51 110.6 10.0537
1666.43 104.035 9.38456
1716.24 103.645 9.63401
1584.97 104.59 9.95488
1647.04 107.05 10.2068
1546.11 100.258 9.68108
1552.35 102.358 10.0609
1576.18 105.64 10.5287
1682.37 113.5 11.4537
1652.72 114.961 11.6363
1553.17 108.666 11.4513
1447.34 109.613 11.5569
1470.55 102.112 10.7274
1196.11 86.6576 9.44821
1465.11 98.7264 10.8279
1368.16 98.9795 10.922
1468.08 106.066 11.8323
1271.02 98.659 11.2182
1361.57 104.801 11.9423
1192.63 99.2408 11.5973
1196.79 97.722 11.4434
1354.38 110.1 13.1699
1222.85 103.495 12.4703
1154.79 99.6712 12.2287
1113.8 101.876 12.5557
1059.24 94.8009 12.0231
1101.42 95.6815 12.2508
1063.02 93.4576 12.0516
962.751 95.5976 12.1387
1065.06 97.5635 12.9525
998.935 94.057 12.3889
1064.78 102.511 13.8116
1014.06 100.482 13.7733
969.784 94.1045 12.807
984.453 95.6493 13.1864
936.883 95.1363 13.4998
1000.37 96.8607 13.6239
972.126 100.392 14.5355
956.898 88.9858 13.0612
924.574 97.025 14.3307
945.81 92.7161 13.8321
845.483 87.7834 13.2267
974.708 92.6658 14.171
871.824 94.9922 14.7061
902.932 89.217 13.9061
922.753 101.921 15.8766
981.527 94.4222 14.9519
848.089 87.0658 13.9298
968.608 89.814 14.8283
802.876 87.4877 14.3979
886.271 92.8736 15.3524
782.665 87.3355 14.561
954.93 95.0651 16.1835
767.202 89.9086 15.5561
921.85 93.0145 16.0794
789.463 89.8186 15.7037
806.84 90.359 15.8756
759.869 88.8276 15.8083
817.704 90.4811 16.2655
707.671 91.7174 16.7426
783.554 92.2072 17.0649
618.253 83.8951 15.5504
706.539 89.4039 16.6484
683.447 86.4517 16.307
725.707 91.7876 17.3463
621.61 86.2912 16.8394
668.336 88.0526 17.1305
586.617 79.2139 15.5947
596.377 82.3719 16.1832
588.161 82.7213 16.4884
633.398 88.0043 17.7961
568.953 79.0124 16.2255
595.282 82.455 17.1049
571.984 83.6032 17.6433
546.682 78.3791 16.422
573.05 81.5027 17.3729
532.927 81.7592 17.3875
547.035 83.7512 17.9606
598.668 83.4329 17.9308
585.537 81.6972 17.9978
556.058 78.0724 17.5351
534.317 82.138 18.5147
544.573 77.1641 17.3606
517.942 80.3498 18.3644
571.424 78.7613 17.8771
529.672 79.4141 18.5489
572.227 75.9609 17.906
535.35 76.7138 17.9514
571.081 77.9701 18.4642
500.541 78.6667 19.0834
610.332 81.5333 19.6396
489.563 81.7846 20.2895
556.87 79.7097 19.3565
506.491 82.1873 20.4114
530.44 77.4989 19.5247
478.924 75.2524 18.8306
536.17 71.6117 18.177
445.066 70.9429 18.4062
504.348 73.9731 19.0582
425.393 75.0102 19.6103
502.715 77.415 20.4616
429.898 74.445 19.7188
447.429 74.0326 20.2928
430.135 77.8731 20.8709
458.79 79.2973 21.5754
414.091 73.537 19.9265
420.561 79.4743 22.2371
387.617 73.9273 20.8499
430.564 81.7206 22.7116
372.581 77.88 21.8381
356.668 72.7274 21.112
358.991 71.0572 20.2096
390.889 73.8572 21.3499
358.972 70.2004 20.556
356.101 70.8158 20.7522
339.128 67.163 20.1607
350.79 73.9484 22.069
358.073 70.275 21.1626
364.082 69.4232 20.9753
330.575 70.2872 21.6455
360.725 71.4637 22.0472
335.09 68.5599 21.5341
360.815 73.4559 23.0928
336.035 67.7891 21.4434
382.906 68.3111 21.629
316.18 68.1346 22.0101
395.899 68.6855 21.9504
334.825 66.8461 21.5822
404.613 70.1859 22.6642
313.405 69.4354 23.2978
400.953 67.5956 22.3372
321.124 69.8332 23.5582
393.594 69.7362 23.3863
314.641 67.3219 23.0225
365.378 66.7519 22.7628
314.605 70.7767 24.7251
368.748 62.9415 21.6789
304.092 65.5969 22.8107
353.312 68.6986 24.029
305.34 66.4089 23.7334
315.493 58.3496 20.6726
276.506 61.3689 21.8629
318.353 65.8265 23.6626
269.571 68.3005 24.8403
282.761 63.2378 23.3124
243.222 59.1677 21.7864
279.482 62.395 23.3178
235.738 63.9741 24.0395
279.524 61.3566 23.1748
250.31 64.3713 24.0923
247.08 60.86 23.1591
228.371 59.1785 22.8126
246.496 62.9221 24.2473
239.945 61.8576 24.1695
239.386 59.2326 23.3057
227.518 58.4604 22.9623
235.66 62.742 25.553
244.342 63.8502 25.8923
241.808 60.0733 23.5138
223.081 58.4681 23.6243
230.385 58.7196 23.6775
234.472 60.5841 24.8131
246.85 60.9122 25.261
223.283 57.8479 23.9564
241.804 58.3176 24.5921
219.165 60.9495 25.6212
241.795 58.5801 25.0967
209.467 59.2007 24.933
262.888 56.4658 24.2889
225.249 58.0821 25.0193
272.998 57.2994 24.465
197.164 55.0812 24.1024
249.935 51.8578 23.1572
188.684 51.7771 22.9345
288.222 57.0456 25.4092
212.841 56.6853 25.4154
263.234 57.6097 25.9127
213.489 55.7748 24.9454
264.68 57.6882 26.7655
200.178 58.3772 26.6444
254.991 58.6858 27.1258
191.926 52.7334 24.7691
242.83 57.5357 26.4168
182.848 53.4649 25.4526
217.202 53.281 25.6214
190.376 54.2697 25.6705
208.923 59.0989 27.7784
176.143 53.1158 25.8058
202.524 54.273 26.0923
169.161 52.9629 25.9434
172.598 54.7649 27.4931
178.064 54.3747 26.9035
192.134 54.9748 26.6385
165.699 55.0131 27.3624
168.065 56.0822 28.5468
169.719 56.1708 27.8985
167.218 55.5362 28.0069
161.31 53.9938 27.3341
165.169 52.2874 27.3431
159.654 52.3476 26.8352
164.077 52.6502 26.9362
157.76 52.887 28.0678
164.66 50.0944 26.4183
157.027 52.9567 27.7042
166.6 47.1163 24.9479
150.457 48.9131 26.1377
186.045 49.5679 26.7709
165.443 52.7206 28.251
166.69 44.7554 24.3872
165.178 50.4537 26.7408
179.852 47.8218 26.6169
159.342 50.4238 27.9725
185.661 53.1894 29.5025
145.884 46.1131 25.8257
186.5 45.8035 25.5723
151.237 48.6042 27.7962
194.637 50.043 27.9905
153.509 47.3098 27.5966
200.222 50.291 28.3153
152.748 50.2213 28.9129
190.834 50.0632 28.7607
156.814 46.9426 27.4692
170.95 47.4351 28.2254
148.997 48.2563 28.1813
169.093 49.9279 29.1137
140.153 46.264 27.9456
168.274 52.5428 31.224
141.739 46.4276 28.3853
158.878 50.2873 30.753
136.887 45.712 26.9305
144.916 46.6721 28.3777
131.109 44.1153 26.9653
129.609 44.344 26.8398
125.852 43.7414 27.9721
129.27 43.9998 27.7664
129.12 49.7634 31.0608
126.609 44.7914 27.5228
129.705 48.1864 30.1154
118.324 43.9588 28.289
119.813 43.5251 28.4112
125.586 42.3341 27.0751
125.285 42.9126 27.2788
130.943 46.6567 30.1153
123.192 43.9472 29.1487
128.315 44.6091 29.6723
122.5 45.0826 28.8692
136.053 44.2272 28.9766
118.892 42.5337 29.047
145.389 44.9282 29.561
125.129 42.8734 28.9547
135.492 42.1635 29.1027
126.561 43.7316 29.5537
149.537 42.9902 29.0545
129.377 44.4765 30.1117
155.454 45.0153 30.6353
126.514 42.9045 30.1645
143.866 42.5256 29.2809
118.812 41.6901 30.1063
136.669 42.2133 28.4693
128.876 46.0302 32.587
138.898 42.7859 30.1622
123.164 42.5696 30.5136
136.768 40.1576 28.0135
115.462 44.4079 32.2032
143.732 41.6234 29.5332
120.646 41.0115 30.0556
128.131 40.5064 29.0491
117.099 41.5469 30.4529
124.517 39.5089 29.2108
112.801 42.7719 31.5791
113.619 39.4708 29.7191
110.198 38.8106 28.439
115.407 45.2519 33.4879
104.288 40.1276 30.2072
103.781 40.2742 30.2438
106.695 40.498 30.4109
103.838 41.3678 31.0821
97.9379 37.3647 29.3573
95.0564 40.9635 31.4093
101.316 41.0259 32.3309
91.4617 38.1511 29.788
96.396 40.7613 32.4886
101.032 41.1564 32.1605
91.4362 39.1119 30.6695
94.7366 36.0747 28.151
95.3328 39.7878 31.082
93.3481 34.6555 27.6804
97.6793 38.8747 31.7465
103.951 38.7559 31.2569
99.2427 37.2496 29.3622
109.19 38.0872 31.0907
100.332 39.2726 31.3081
107.996 37.3123 30.7955
101.721 37.2555 30.7685
106.52 35.9166 29.9748
104.516 36.2236 29.6166
111.351 37.6061 31.983
100.583 37.3792 30.522
114.14 37.5419 31.5489
101.344 36.9965 30.9135
111.759 35.7043 31.0554
96.0245 37.0168 30.5679
110.278 33.701 29.2247
93.636 36.7759 30.8893
115.155 38.6521 33.1572
98.1477 37.385 31.7662
106.278 35.3262 30.3649
85.2721 34.6163 31.0858
100.722 34.7466 29.7121
84.8836 33.5383 29.6206
95.7532 36.26 31.6752
82.3464 33.8815 29.5175
92.76 35.391 30.6893
82.6798 32.9101 29.3592
81.1563 33.2583 30.2525
76.0989 33.7533 30.9426
85.0422 35.6498 31.7797
83.9379 37.6717 34.3506
74.1867 33.8977 29.8401
76.4846 35.9595 33.7456
76.5045 33.9293 31.4657
76.6302 33.2637 30.9128
80.3984 36.1241 33.2452
78.3776 33.7589 30.1291
72.5832 32.726 31.6965
77.3316 34.8614 31.9738
77.607 33.7267 32.3105
77.203 36.5606 34.2635
79.0294 33.1406 31.9956
75.0767 30.3833 28.5714
80.7801 31.1351 29.6952
78.7774 32.5005 31.3777
88.2817 33.7307 32.1763
83.0024 31.6521 30.3142
89.7707 32.6646 32.3106
84.1263 35.4941 34.0314
91.8518 33.7137 31.8681
79.5694 30.5314 30.4172
85.8365 31.6267 32.1042
82.235 31.4943 31.6352
101.865 32.7013 31.81
78.4504 29.8138 29.5846
101.05 32.8916 33.6948
79.539 30.7519 29.9593
93.2481 29.3235 28.6926
78.2444 30.5516 31.9577
93.423 33.0946 33.0073
72.9294 28.6046 29.5586
84.4424 29.888 30.4266
73.4277 33.4786 33.3215
84.8293 30.5522 32.6657
78.6189 31.0018 31.5462
78.5177 30.9416 31.794
67.2211 29.2984 30.1163
74.3436 30.7568 32.8223
69.1127 28.9408 29.7855
68.5675 29.382 31.5126
65.97 29.3836 30.9252
68.203 30.4822 32.8025
66.0116 30.7212 32.3988
63.2749 28.9904 30.841
60.3215 31.2683 32.8966
62.2579 29.5908 32.139
61.8941 28.7484 30.4283
60.112 30.6531 33.8401
63.6622 28.8817 31.2088
61.9058 31.0261 33.0255
59.7815 27.6199 31.3652
64.981 27.8989 31.068
61.8959 29.9774 31.9272
63.469 27.4071 30.9213
60.3965 28.1583 30.794
68.4065 28.4503 32.3075
64.058 29.1556 32.8503
70.8165 28.6171 32.538
66.3593 28.81 32.0311
69.2761 28.8131 32.5606
61.0616 26.4641 30.7031
81.6147 28.2 31.7088
64.5885 28.9291 32.0945
76.8713 26.454 30.8476
64.4049 28.4794 33.2381
80.3841 29.5261 33.4589
63.6253 30.3367 34.5442
81.2726 27.2938 32.12
59.0087 28.6153 33.5416
78.6873 27.1259 32.0257
61.7709 27.5509 31.0109
75.2862 27.5611 32.5264
60.3936 25.889 30.0868
74.2619 28.578 34.9856
56.2336 27.6389 32.7433
71.3973 25.2775 29.6922
58.2777 26.6911 32.3468
66.5127 28.6782 34.2849
53.7019 25.0701 30.0926
65.6586 27.0399 32.004
49.8259 27.1822 33.2414
63.0639 26.5672 31.3887
50.5484 24.8979 31.9604
51.5817 25.9174 31.2655
50.4572 27.8389 34.7331
50.7221 27.4277 34.6032
54.3473 28.3213 33.5562
47.8107 25.1927 31.8878
49.2102 25.5779 31.9387
49.3607 27.6844 34.2137
47.7269 27.2018 34.151
51.1599 25.1234 33.5725
51.5013 25.8136 31.86
51.9067 23.3433 29.706
46.4305 26.3083 32.9839
57.5144 25.5886 32.326
49.3137 25.2918 31.9543
59.1252 24.479 32.867
50.5095 25.7272 32.7352
63.1553 24.2788 30.6993
50.2997 25.2149 32.2004
60.3715 26.1323 34.3833
48.064 23.3321 30.3678
64.3067 23.3302 30.2956
53.5257 25.4586 32.9709
62.6268 25.2451 32.5869
45.6772 22.7483 30.5431
66.9007 23.7792 31.7244
50.4261 25.4558 32.9129
65.7126 23.6755 32.1753
46.2238 23.1126 29.9936
61.8767 23.6607 31.6375
47.057 24.7235 33.518
63.1936 24.1242 32.4733
45.5206 25.9727 34.6981
56.3331 22.8364 30.4742
45.3738 23.0328 32.0194
57.2501 24.34 33.5336
42.7877 23.3108 31.298
54.5592 22.7446 31.499
46.1902 23.5108 31.9526
47.1081 24.8196 33.3854
41.1454 23.4048 33.084
45.6702 22.6332 31.9678
40.0707 22.0409 29.6221
44.2184 23.6471 33.0039
40.6631 24.6608 35.4808
42.1491 22.7683 32.2016
43.6746 24.0732 33.7793
42.0952 21.645 31.0561
39.3066 23.3767 33.1292
41.7997 21.693 30.6198
40.006 22.9834 32.9923
44.3992 25.0372 35.5609
40.6541 22.8223 32.6377
44.3192 22.5895 32.27
38.6459 22.1333 31.6616
42.6485 23.2108 35.6956
39.2158 23.5466 32.753
50.8796 25.2103 37.2299
40.4019 22.9465 33.2802
51.7753 22.8931 33.5151
40.1279 21.6517 32.1163
53.9234 22.0825 32.8071
40.2507 22.0192 32.0714
54.7298 22.2507 33.0019
39.0962 21.6758 32.1648
57.6666 21.2435 32.2516
38.7725 20.2783 29.8154
53.273 21.1401 32.8744
41.06 21.7986 31.0423
52.3313 22.2607 34.3646
41.7181 22.1163 33.7295
54.0632 21.9252 33.4033
39.1894 23.6359 35.8642
49.0475 22.1475 33.5047
38.6622 22.204 33.1795
48.9128 20.9476 31.9147
37.7092 20.8061 31.984
50.0572 22.0347 33.8741
35.6255 18.7692 29.4623
42.0677 20.7766 32.105
38.2952 22.0465 34.1423
41.9106 20.8151 32.4955
33.4587 20.7839 32.049
39.4226 21.5753 32.9451
33.6027 20.0966 32.1701
34.2263 18.9894 30.1894
32.4923 21.9402 34.1491
32.9798 20.2678 33.2335
32.8916 20.5599 32.9957
32.7972 20.209 31.3485
31.4087 19.4074 31.2641
34.1739 20.4714 32.8312
32.1527 20.4244 32.3774
34.3209 20.5528 34.213
34.1548 19.8478 31.7721
37.329 21.9153 34.424
32.4444 21.2662 35.0509
38.0378 20.2021 33.643
33.5162 20.8524 32.2413
41.3755 18.9309 31.1687
32.3904 20.6939 34.5796
42.1147 20.1946 32.813
33.8873 20.6113 32.5814
42.2398 19.2094 32.4892
32.9412 20.7543 35.7228
45.5322 19.6237 33.3141
37.6484 19.666 32.0095
47.5148 18.8157 30.6613
35.442 20.5984 34.3545
46.4559 18.7505 31.4947
35.2371 20.0645 33.4786
46.4772 20.0036 33.0144
36.4765 19.6343 34.2
47.3664 18.8592 31.4872
34.7024 18.3225 30.4137
44.7066 19.515 33.4598
34.038 18.7592 30.7751
40.6782 19.0798 32.5965
34.9164 19.5229 34.4614
39.9984 18.6779 31.7996
33.6917 19.4708 33.0569
35.793 18.2193 32.2564
30.8891 19.0163 33.3858
33.9286 19.6304 33.7089
29.3123 17.813 31.0345
31.2064 18.7557 32.452
28.5369 18.2847 33.5227
31.0005 18.2405 30.8058
30.325 18.1603 32.6052
28.7681 18.0711 31.5511
28.6837 19.1038 33.2538
29.4464 19.7923 36.3164
28.1826 18.7148 32.3495
29.7331 17.9665 31.7306
29.7558 18.4895 33.16
29.9373 17.7613 31.7783
30.0713 17.7326 32.5094
31.7198 19.5175 34.6676
30.9723 18.3509 33.0662
34.5777 18.7803 32.5931
29.6996 18.5128 34.5177
35.7852 17.0786 30.5727
30.0443 16.3627 29.6376
35.2351 16.9502 32.0281
32.4607 18.8618 33.8729
36.9716 18.7082 33.8855
31.6334 17.1145 31.6776
39.326 17.7223 33.6167
33.8237 18.0353 33.1239
40.871 16.9162 31.4196
32.7306 17.3845 31.6248
39.4354 17.2235 31.044
32.6069 16.7258 31.6888
41.8746 17.7304 33.897
34.5304 18.5916 33.525
39.434 17.0004 32.2785
31.8118 16.4319 32.4265
41.5286 16.5511 30.089
30.8832 17.4584 33.9033
37.2044 17.2252 32.0485
32.0365 16.0644 30.0759
35.1446 16.9304 31.087
30.8948 16.9026 33.007
32.7262 17.5936 32.9251
28.1507 16.3787 31.706
30.3648 17.0047 32.3057
28.0538 16.5189 31.2101
25.7288 15.3873 30.3215
26.0006 16.1481 31.9485
25.9129 16.5449 31.0819
25.9824 16.2624 31.7058
27.0591 15.8503 31.0759
25.3082 17.0266 32.4012
25.0026 16.5391 32.3251
26.0984 16.7562 32.2926
26.4257 15.9526 30.9827
25.87 16.4202 33.0579
27.1312 16.2082 32.3589
26.7832 16.2841 32.59
28.2345 15.5828 31.7554
27.3663 16.6911 32.9108
29.4856 16.3906 31.7298
28.6667 16.0508 31.2461
29.9681 15.6152 31.7992
30.7568 16.3569 32.3847
33.5775 16.9797 34.8728
28.0688 15.6069 31.336
33.2208 15.7537 31.0096
29.758 15.6286 31.545
34.0582 15.7956 31.8554
28.6393 16.4361 34.5926
36.8957 15.6048 31.75
29.2883 14.4503 30.7519
38.2658 16.8978 34.4446
29.556 15.9477 31.8202
35.836 15.5766 32.3829
28.0791 14.3344 28.9721
36.0459 15.2406 30.4685
28.8555 17.2434 35.4483
35.061 15.5529 31.6432
26.9652 15.6648 32.6937
31.9467 15.4401 33.1201
29.0062 14.9907 29.3819
28.6521 15.2104 32.1063
27.7367 15.5528 31.6134
27.4324 14.1722 30.2639
25.5697 14.9847 32.5447
27.0598 15.1367 31.1444
25.3441 15.5606 32.6661
25.7294 15.1401 32.5515
24.6598 15.5043 31.4562
24.0138 14.291 30.1338
22.7921 14.2181 30.539
24.7249 15.6692 32.5572
23.7439 14.0459 29.8298
22.7097 14.8854 32.5867
22.7849 14.0424 29.3965
23.6885 15.0133 32.2906
21.6421 14.1037 30.3026
23.4552 13.8755 29.8697
23.9212 14.4169 31.2202
25.7295 14.7269 31.7189
25.2441 13.424 29.2545
28.1849 15.0086 31.5618
25.2288 13.6019 30.0987
28.4872 14.3145 31.6378
25.7464 13.2447 29.764
30.4076 14.4219 30.2941
27.677 13.2504 29.7595
31.5202 14.0183 30.8626
28.681 14.0328 31.6778
34.4001 14.9751 33.536
26.8399 15.4743 34.3011
34.4932 14.1129 30.2993
28.7546 14.333 32.7513
33.4169 13.7005 31.2906
28.7842 15.4652 32.9424
33.0165 13.6226 30.4527
24.2605 13.9896 31.4343
33.9661 14.5426 31.032
27.2904 13.4775 30.9426
29.9548 14.6802 33.2137
24.3327 14.4231 32.61
31.5227 13.6867 30.1207
24.0416 13.7251 30.8503
26.9297 12.6885 29.5077
24.2415 14.0377 32.5888
28.099 14.1054 32.1389
24.2319 14.5077 31.9991
25.5337 13.3884 30.9161
21.7432 13.5345 30.9647
24.1154 13.6693 32.3516
22.3416 14.7777 33.8396
21.5287 14.0202 31.7995
22.1914 12.5521 28.9092
21.9629 12.8788 30.4403
21.6712 13.8005 31.2663
21.289 14.1695 32.9819
21.871 13.2679 30.8127
22.7945 14.7711 34.1973
20.611 13.1389 32.0893
24.7214 13.2665 31.6644
23.882 13.8593 30.4625
23.6762 12.6294 30.8267
22.3233 12.7781 29.6846
24.7417 13.4102 30.596
23.0728 13.1189 31.073
27.7524 12.8778 31.3686
23.4932 13.543 31.3884
27.8227 12.6402 29.5229
23.8983 13.6452 31.8053
29.2632 12.375 29.3668
24.2534 13.3222 30.8738
33.7591 13.0537 30.8926
23.2137 12.2788 29.9244
31.4836 13.622 32.7159
23.4212 12.874 30.5126
33.2427 12.771 30.294
24.428 14.1092 32.9418
33.1311 12.1867 30.8128
23.1116 12.5505 30.9509
32.265 12.883 30.2731
22.7008 13.2169 32.6377
28.845 13.3267 31.7434
21.948 11.5879 28.3116
28.9996 11.6556 30.4699
22.4438 13.8988 33.8979
28.4009 12.5926 30.5433
20.7691 12.075 30.1911
25.7459 12.2633 30.7555
22.3958 12.1498 28.58
22.6486 11.9949 28.5218
19.6427 13.1841 32.3262
22.0865 12.6063 32.3529
20.5809 13.285 33.5657
20.6254 12.5142 31.4214
20.6194 12.4316 30.1839
19.678 13.3259 32.1766
19.5781 12.5684 30.8531
19.5952 11.5269 30.1138
19.2391 12.353 31.4549
21.1206 12.145 30.2701
18.943 12.348 30.9834
21.4611 12.2698 31.048
19.3186 12.6387 31.8463
23.1241 12.5997 31.1706
21.0507 12.6154 31.8778
22.4735 11.9054 30.8259
20.1678 12.1267 30.6965
25.6989 12.0554 31.248
20.8604 12.1258 31.5422
26.9526 12.6478 30.9994
19.5609 11.9752 31.3997
26.4586 11.5741 28.521
20.2555 11.9045 32.0951
28.9767 12.8393 32.4848
20.2677 12.2102 31.4502
30.1322 12.0612 31.0918
19.6797 12.1381 30.0914
29.6278 11.9564 32.2087
20.8747 12.4269 30.5194
29.512 11.593 31.6394
20.9376 11.9811 30.6201
28.7833 11.9519 32.093
19.1379 11.7813 30.0005
28.7982 12.3932 31.6882
20.2997 11.015 27.418
25.7752 11.2219 32.1849
20.0344 12.3184 32.736
25.5453 12.3849 30.5379
18.4315 11.0159 29.3738
22.2466 11.5304 30.6193
19.1607 11.6287 30.8825
20.3622 11.9325 31.9074
18.0871 11.7181 29.5909
19.0126 11.6808 31.6969
17.2599 11.2727 29.9953
17.677 11.6815 31.5192
17.3353 11.6481 31.9153
17.8552 11.9838 31.9611
17.2813 12.0859 32.4473
17.872 11.2549 29.7435
16.4473 12.1914 32.7425
17.7754 11.3986 29.3466
16.3991 11.7511 32.4527
18.849 11.6793 29.8832
17.388 11.2169 30.4993
20.666 10.9735 29.6815
17.134 11.3157 29.8775
20.9162 10.7572 30.1279
16.7684 11.5528 29.2196
23.3211 10.8891 30.2783
17.8036 11.4223 32.9095
25.5395 11.1733 29.5038
17.2774 10.7858 29.8858
25.5601 10.6117 28.2346
17.5075 11.4266 31.0101
24.8995 10.7073 28.3943
17.7412 10.906 30.07
24.8723 11.4694 30.8468
18.5792 11.365 32.5241
25.5265 11.2658 31.2679
17.5119 10.7474 30.0716
25.0658 10.7758 29.2141
17.801 11.09 29.3293
25.2187 11.0539 31.5858
17.1732 11.0765 30.4096
23.4175 11.4595 30.7377
17.4022 10.8108 30.8034
21.9485 10.3617 30.9556
16.7215 11.245 29.5296
20.6603 11.5411 32.2618
15.2926 10.6624 29.5036
18.1326 9.62462 29.3017
15.4907 10.2575 27.815
17.4406 10.5262 30.243
15.318 10.3586 29.2825
15.7039 10.0513 28.7154
14.6659 10.4419 30.0219
15.575 10.3179 28.5713
14.2004 10.46 28.4634
14.7197 10.0789 29.5995
15.2001 10.7892 29.4067
15.2586 11.1132 31.7048
14.7094 10.2098 28.938
15.6512 10.5317 29.8271
14.6896 10.4357 28.6755
16.9438 10.5328 30.1387
14.6191 9.94161 29.4909
18.068 10.1276 29.4615
14.988 10.7739 30.2675
18.4953 10.6106 30.2011
15.7225 9.89451 28.9144
21.7487 10.3702 29.0301
16.0241 9.79122 28.8399
21.6405 10.7306 30.7705
17.2232 10.0675 28.4386
22.1371 10.4349 30.5983
16.3162 9.83037 27.9984
22.5933 10.641 29.5431
18.1972 9.77699 29.3868
24.3184 10.1689 27.8473
16.9655 9.3778 29.437
23.8385 9.77731 28.9033
17.121 10.4166 28.2165
22.7512 9.60146 29.2835
16.2768 9.017 26.8734
21.8349 10.2425 30.61
17.1731 10.0435 29.3376
20.706 10.781 31.4497
16.4951 10.564 29.9917
19.1162 10.1684 31.0816
15.2852 9.88566 28.6307
17.0832 9.9497 30.6181
14.9522 10.1952 31.0917
16.847 10.3516 32.1951
15.6324 10.6815 31.486
15.2109 10.0177 28.9642
14.156 10.0354 30.1183
13.907 9.99934 28.3809
14.3916 9.58651 27.7188
13.05 9.63353 29.6863
13.6338 9.3778 27.5679
13.7017 9.34677 28.0425
13.2641 10.4727 31.5445
14.4031 9.97064 30.6809
14.4561 10.2343 31.6338
14.9153 10.2262 28.3588
13.4976 10.0969 30.493
15.69 9.94986 29.8357
13.9476 9.55846 28.8557
16.0226 9.05643 27.1666
14.1211 9.78132 29.9696
17.2487 9.05205 27.6949
14.7881 9.6202 29.2663
17.9613 8.94491 26.8839
15.8353 9.54358 28.3518
19.2512 8.79114 27.7234
16.0621 10.1599 29.8002
20.1527 9.56572 30.527
17.158 9.77007 31.7465
20.6943 9.29703 28.2442
16.9146 9.68624 27.9827
21.4166 10.0504 29.6855
17.5969 9.20611 29.7066
21.8736 9.25522 28.3668
17.6716 9.72594 29.0043
20.3893 9.55921 29.2389
16.6904 8.87021 27.7612
20.2592 9.43647 29.7992
16.1563 9.84669 30.1062
19.311 9.31378 27.4514
15.6895 8.93196 29.3781
17.0213 8.86331 25.8478
15.5481 10.1642 32.5206
17.0699 9.90001 28.6884
14.3168 9.04094 28.7318
15.2134 8.69525 27.7064
14.1996 9.376 30.1705
14.4305 9.05701 29.2084
13.4489 9.91208 28.9749
15.1726 9.37966 30.3621
13.2799 8.52621 29.0174
13.2905 8.98598 27.8845
13.393 9.18076 28.051
13.6222 8.85314 28.3496
13.0652 9.66588 30.9471
14.4137 8.83922 26.7819
13.4737 9.1194 29.825
13.7709 9.15468 29.3066
13.5352 9.93058 30.7066
14.4921 8.50562 28.7811
15.085 9.0225 27.8532
15.7166 9.15502 27.5049
14.5794 9.59503 30.5598
16.6995 9.50303 30.3394
14.7329 9.0553 29.8661
18.2124 9.01384 27.5928
14.9955 8.5706 28.056
19.1632 9.02276 29.4148
15.427 9.11735 28.7532
20.4004 9.25275 29.9035
15.8589 8.80646 27.7905
20.9259 8.77051 28.8519
15.8435 8.80769 27.7719
21.2437 8.50107 29.0909
17.0992 9.10863 27.3899
20.2781 8.60082 28.0096
15.376 8.10867 27.8421
19.5129 8.48538 28.0364
16.7538 8.77313 27.9859
18.1086 8.4655 28.0116
16.1738 8.77691 28.3362
17.6743 8.97664 27.3381
15.1281 8.85104 28.7722
17.3129 8.99618 26.6153
14.0622 7.91168 28.2613
15.9515 8.47791 28.1804
14.223 8.72008 27.6254
14.5637 8.41756 27.345
13.4003 8.50688 27.364
14.2619 8.42321 28.0837
13.198 8.39704 27.3443
13.9724 9.01516 29.0545
12.6503 8.20961 27.184
13.3215 8.46834 28.4026
11.7333 7.95111 26.5501
12.9729 9.05814 28.375
12.7147 8.97921 30.3523
13.0314 8.83423 29.1394
12.5456 8.57349 29.6662
14.853 8.76619 29.9916
14.19 9.00013 26.7165
14.2672 7.98243 29.0036
14.1794 9.24495 29.9053
15.8892 8.21473 27.565
14.3655 8.92032 29.4954
16.4994 8.44001 27.4436
15.2823 8.855 27.6904
17.7904 8.46194 28.6441
15.4316 8.71674 27.1251
18.3014 8.20371 28.0841
15.276 8.138 27.2938
20.0712 8.67488 29.307
16.8942 8.73879 29.5554
19.7226 8.37337 27.9455
15.0094 8.11423 27.8962
21.3108 8.56043 28.2008
15.6783 8.24634 27.9839
19.6158 8.01097 26.525
14.2931 8.68388 28.9367
20.5664 8.13996 27.8829
15.2661 8.13068 29.9298
18.8131 8.44219 26.5867
14.1996 8.28287 26.7598
18.5136 7.94269 27.539
14.1104 8.28422 27.0452
16.8464 8.25207 28.3645
13.6833 8.0373 26.0439
16.3988 7.70535 28.3531
13.473 7.93695 28.3903
14.3308 7.99963 27.029
14.3012 8.52197 28.554
14.38 7.79613 27.1377
12.9233 8.56564 27.4253
12.8204 8.30669 29.9585
13.4199 8.48647 28.3714
13.0652 7.74765 26.6743
11.998 7.77404 26.1703
12.6011 8.35849 27.6978
13.3052 8.17108 29.0422
13.7013 8.25689 28.3614
11.9627 8.06447 26.5326
13.6301 8.30368 29.3835
13.057 7.95645 27.0623
15.037 8.00144 28.5731
13.8951 7.64502 26.7485
15.3469 8.04602 27.7739
14.6453 7.80582 26.0684
16.3342 8.07404 27.4928
14.4706 8.12232 28.6778
19.5809 8.26103 28.5691
14.4394 8.13283 28.6192
19.5929 8.11215 27.2747
14.2138 8.39963 28.4321
20.3866 8.45556 28.4764
15.3336 7.76885 27.6704
21.5688 7.67276 27.8239
14.4824 8.15255 28.7077
21.7243 7.82311 28.2225
14.6153 7.74804 27.475
21.2304 8.11159 27.1129
14.3868 7.43868 25.6044
21.5864 7.77196 26.3919
13.8692 7.34092 27.1917
20.7086 8.03514 26.4016
13.986 8.00795 28.2845
19.348 7.84918 27.9225
14.5712 8.13333 28.8317
17.7492 8.2479 27.4708
13.2558 7.17772 26.0726
16.0537 7.79775 27.6528
13.7363 7.59551 27.1807
14.2272 8.26986 30.762
13.7856 7.90495 28.2903
14.2011 7.91648 27.2858
13.5653 8.15557 29.9284
12.972 8.3145 28.0159
11.9989 7.80754 28.1786
13.2303 7.66485 26.7523
12.089 7.99924 27.8794
13.2778 8.40028 28.8686
12.6704 8.07049 29.1509
12.8513 8.32802 27.4316
12.466 7.67192 27.8316
13.1017 7.9808 28.8512
13.0014 7.91976 26.8794
14.6708 7.52614 28.3326
13.3023 8.30549 29.2251
15.3724 8.03033 28.0315
12.2381 7.47192 28.4073
17.0162 7.64315 28.0642
13.5294 7.47246 26.8224
18.3494 7.67067 28.6156
13.5452 7.9016 28.6591
19.1648 8.13258 28.9197
13.6304 8.04403 27.911
20.7703 7.70605 27.4284
13.5456 8.37402 29.3292
20.5538 7.50741 27.8427
14.5176 7.94989 28.8073
20.6157 7.60618 28.8159
13.7068 8.13496 28.8338
20.9004 8.4276 30.1889
15.0013 9.15561 31.943
20.7858 8.13528 29.6965
15.1615 7.76516 28.7057
20.0666 8.43451 29.1559
13.5235 8.07591 28.6587
18.069 8.09664 30.7108
14.0821 8.05152 28.6269
16.5772 7.60991 27.0186
13.3039 7.34503 27.2185
16.1593 7.49834 27.7407
12.2057 7.93198 28.8309
13.8963 7.61627 29.164
12.6226 7.86166 26.2588
12.9607 7.30853 29.0942
12.3898 7.81003 27.5717
12.8451 7.89821 28.3111
11.3274 8.21048 28.5256
12.2938 7.53923 27.1563
11.3955 7.81993 28.7274
11.8129 7.73141 27.5619
11.3657 7.19058 28.0125
12.9904 7.10834 25.5215
12.07 8.14268 28.7011
12.8993 7.55715 28.204
10.831 6.80871 26.6446
13.975 7.46238 26.4722
12.2413 7.43815 26.2579
14.5857 7.62926 27.7643
11.9358 7.34098 28.0225
15.5527 7.50395 26.7368
12.6006 7.48457 27.8503
16.4943 7.20388 27.4484
12.8395 7.55066 26.3817
16.8202 7.46236 27.333
13.0499 7.09792 26.8303
19.2035 7.31433 27.1929
13.1391 6.87037 26.3244
18.5527 7.15098 25.9282
13.4945 7.34294 27.1938
19.673 7.06027 26.8429
13.398 7.38946 27.4006
19.1127 7.57229 27.6646
13.2349 7.35499 25.1824
19.476 7.16858 28.0529
12.3599 7.13512 28.0762
17.229 7.04225 25.8905
12.1401 7.74597 27.9517
16.0106 7.87824 31.04
12.6764 7.30692 27.733
15.2442 7.80325 26.6571
12.3099 6.89881 24.8916
14.2278 7.38668 26.9785
11.6514 6.95792 27.1521
12.3957 7.60677 27.9237
10.9678 7.42412 26.5082
11.5408 7.39443 27.4
11.0572 7.3305 27.7983
11.1527 6.72075 25.2218
11.101 7.06878 26.0993
10.2054 6.92445 26.5036
10.2773 7.51716 27.8571
11.5213 7.15389 26.8903
10.886 7.01579 27.3472
11.7138 7.50145 27.6438
10.4906 6.98664 25.2365
12.331 6.78254 25.9988
10.3454 7.1171 26.0804
12.8205 6.804 26.1144
10.5347 6.81092 24.6332
13.5146 6.79299 26.1116
12.006 7.09 29.5377
15.3845 7.63919 27.7914
11.8256 7.46338 28.5302
15.6643 7.42716 27.4531
12.842 7.47633 27.1401
16.104 7.36529 26.0086
11.9749 7.15926 29.8721
18.23 7.39231 24.5029
12.7368 6.88025 26.5762
17.2944 6.50627 25.9258
12.3727 7.25149 27.4599
18.1269 6.96323 26.763
12.2634 6.90729 24.3689
15.6745 6.3678 26.1667
12.3609 6.81395 24.9073
16.4131 6.91933 28.5709
12.35 7.28517 26.199
14.8867 6.83579 24.9494
11.5527 6.82336 27.9001
15.3107 7.31765 27.4535
11.269 7.28695 28.705
13.1142 7.65279 25.8813
11.5542 6.82732 27.8879
12.6874 7.48651 27.655
11.0178 6.36021 26.4117
11.1119 6.9627 25.6901
10.8225 6.98633 25.1408
10.3848 6.34336 24.9408
10.4008 6.83377 28.7425
10.3122 7.01118 25.8517
9.62971 6.98942 26.6081
10.0555 6.47653 25.9078
9.60773 7.51288 27.014
10.858 7.22745 28.25
10.0941 7.25595 25.5465
10.8073 7.52697 29.0259
10.3857 6.91207 26.8952
10.8942 7.16467 28.9702
10.8347 6.79718 25.2471
12.1282 6.50684 24.3962
10.1888 6.88248 25.7679
13.0827 6.65757 27.7962
11.755 7.38439 28.5129
14.063 6.8975 27.1763
11.8767 7.04553 26.7889
15.4695 7.10169 26.7223
11.9278 6.56011 26.5345
15.8155 7.33807 26.777
12.9416 6.85448 25.0862
16.5227 6.71847 25.6086
12.6778 6.61635 25.9936
15.5472 6.23356 24.9575
13.0995 6.40551 24.6984
15.7503 6.45861 24.7228
13.2864 6.35809 24.8812
14.9424 6.95708 27.6244
12.2828 6.6019 25.6894
14.356 6.82587 26.3918
12.3618 6.75698 25.7576
14.049 6.16185 24.3247
11.7894 6.33156 25.1883
13.7037 7.31326 27.1558
11.5869 6.73274 26.7626
12.7467 6.55804 27.3387
10.8126 7.28129 25.5348
12.39 6.69742 25.9742
10.695 6.49496 26.6944
11.5085 6.99204 27.0968
10.0095 7.07018 26.8705
11.3119 6.83764 25.5188
9.91972 6.34114 24.9032
10.4286 6.66176 26.7374
10.1578 7.04509 27.7055
9.68671 7.10366 24.7775
9.53672 6.70368 27.177
10.4237 6.44571 26.7762
10.1067 7.13532 26.6318
10.3258 6.61857 24.9186
9.87645 6.69898 26.2585
10.9625 6.82186 25.3041
10.5265 6.82969 27.4378
12.4239 6.4141 24.993
10.8514 6.60366 25.9038
12.192 6.70017 25.0001
10.9151 6.59788 25.7914
14.5653 5.94022 26.0885
11.4321 6.33403 24.9417
14.7952 6.69835 25.2939
12.1186 6.95876 27.6538
16.1097 7.08725 26.6244
12.5347 6.7113 26.135
15.4563 6.73612 26.6888
13.1017 6.93602 27.7122
15.5765 6.86898 25.5173
12.4782 6.61633 26.5362
15.2575 6.57543 24.8992
12.661 6.78213 28.2335
15.9544 6.62157 24.6042
12.4111 6.12278 26.2381
14.8356 7.07175 26.6433
12.195 6.71759 26.1159
14.8511 6.557 27.8702
11.7964 6.99256 26.3435
14.0636 6.53892 25.3678
11.3563 6.50743 24.5338
12.675 6.84307 27.2122
10.8603 6.54336 26.5135
11.8669 6.99769 27.7997
10.5972 6.54463 25.5499
10.9816 6.27855 25.3556
9.75203 6.60006 25.5562
10.316 6.89222 25.8911
9.67226 6.38134 25.4958
10.4527 7.19235 26.681
9.47526 6.49749 27.1191
10.3174 7.07305 26.6269
9.58913 6.48112 25.8629
10.006 6.69782 27.0716
9.73669 6.35509 25.0269
9.96098 6.9085 27.7784
10.283 6.74212 25.8174
10.9683 6.72507 26.2627
10.6633 6.52913 26.2999
11.7583 6.62659 25.9846
11.1772 6.40855 24.8308
12.8745 6.77487 27.4403
11.5124 6.42521 26.1072
14.0804 6.64578 25.6159
12.5636 6.37434 26.061
14.9366 6.96191 27.0543
11.2544 6.64264 25.9666
16.0977 6.82082 27.8353
12.1665 6.38075 26.0046
16.4086 6.64829 25.6515
12.3341 6.73254 28.118
16.8347 7.11523 27.263
11.8546 6.78523 24.7505
15.666 6.01044 24.8516
11.7731 6.27751 25.8457
16.5667 6.65838 26.2382
11.9914 6.79818 27.7194
15.8622 6.99039 26.2363
11.8946 6.27337 24.1026
15.3075 6.43594 26.2425
10.8162 6.89736 25.5796
14.6061 6.15442 27.0079
11.4926 6.79207 26.7702
14.1979 7.09623 27.4027
11.0491 6.60033 27.6525
12.2973 6.965 27.5987
10.8483 6.7198 25.5902
11.8469 6.4089 25.0505
9.60827 6.41886 24.3855
10.4899 6.15688 24.4653
10.2873 6.43079 25.5441
11.1042 6.52044 25.747
9.85336 6.65424 26.4125
10.3157 6.75482 26.3089
9.93978 6.15037 25.9767
10.9045 6.94927 25.7412
10.1938 6.24376 25.6721
11.2719 6.39097 25.3531
11.0014 6.57771 25.2455
12.3179 6.29408 26.7828
11.2028 7.07423 26.4579
13.5876 7.00876 27.5012
11.0708 6.43451 26.7763
14.4263 6.83506 26.9016
11.1194 6.49897 26.3019
15.1767 6.95281 26.315
12.4014 6.90006 28.7519
16.4613 7.34195 28.5413
11.546 6.6067 28.214
17.2505 6.89525 27.931
12.0314 6.73335 25.7373
18.0921 6.42621 25.3138
11.7296 6.66263 25.509
18.5039 6.82051 29.1395
12.371 7.21851 25.9529
18.8611 6.25392 27.2231
12.4131 6.75463 26.9407
18.5464 6.51121 26.3981
12.6722 6.71817 24.2331
16.3921 6.10246 23.6956
11.7493 6.40698 26.5626
16.0112 6.32784 26.9993
11.8772 6.7505 26.1471
13.5715 6.97831 28.129
11.9476 6.88619 27.0837
12.9834 6.45687 25.5264
11.3366 6.8904 28.0552
11.9652 6.90016 25.2179
10.2297 6.21839 26.6592
12.2088 6.49656 27.4202
10.8556 6.66862 25.8243
11.406 6.49632 25.3004
10.5895 6.74533 25.8827
11.0906 6.90032 28.8995
10.6976 6.62139 24.816
11.1505 6.35546 24.9708
10.1276 6.5748 26.5027
11.3542 6.79902 27.6453
11.3319 6.68303 26.6196
12.1142 6.51487 26.4621
9.89943 6.67363 27.1357
12.4273 6.53265 26.2402
11.2381 6.86053 26.4875
13.652 6.21614 26.8664
11.1654 6.78658 25.8968
14.6816 6.93991 25.4137
11.167 6.45578 26.1853
16.6893 6.35 26.5015
11.8058 6.41539 26.6937
16.8502 6.55105 26.4626
13.133 6.82011 25.8376
17.3685 7.02864 28.1822
12.3561 6.7809 29.0214
20.1834 7.59165 28.7195
13.8045 6.77152 26.2567
18.8007 0 0