# pn-170911/CsIIF-av-CsIIA-1280-1959.psd
# Power spectrum* (dif=0,1,2) (really just |FT|^2)
# NOTE: only the first half! (symmetric)
# weeks: 1280-1959
# 847 clock-days, 476 excluded
# PSD: 1441
78764.6 1.26283 0.0713792
2.7531e+06 45.2227 0.21702
1.45247e+07 281.083 0.206116
2.55006e+06 95.1495 0.209284
4.6417e+06 315.106 0.254961
887860 88.3767 0.219314
664459 95.2827 0.271265
461844 93.9808 0.239285
393807 91.1494 0.221248
308152 94.5544 0.295578
224478 84.8664 0.252629
199085 86.2288 0.252941
165872 92.3173 0.329657
133310 84.6478 0.273822
127862 97.3502 0.320738
103839 89.1853 0.322643
95865.7 93.4406 0.342488
80407 84.3626 0.37491
77566.8 87.519 0.379085
74531 92.9916 0.387669
59356.4 86.1779 0.398777
55886.8 84.3308 0.39768
53212.5 86.9759 0.412612
47602.1 85.29 0.454339
46324.5 87.6762 0.447727
41682.4 86.4919 0.485103
39477.6 88.8565 0.517726
36039.9 84.1117 0.479838
36825.7 90.7988 0.564241
34640.5 93.2384 0.569323
30310.8 85.5365 0.581334
27878.8 82.1111 0.610161
28324.4 91.5497 0.647021
24909.7 88.836 0.678248
26037.5 88.1037 0.670451
23371.8 88.4934 0.681799
21941.4 82.8841 0.715658
19137.8 81.7246 0.730482
20436.7 87.7847 0.829362
19977.4 88.377 0.863171
18838.1 89.6148 0.858489
17056.5 84.3331 0.879929
17602.3 89.8269 0.975434
14831 85.7141 0.920558
14808.5 81.0638 0.929694
15564.2 88.9877 1.04662
14038.2 88.4338 1.13222
13617.1 88.6895 1.08419
12982.3 87.4089 1.12646
12506 83.4507 1.18935
11701.7 83.1572 1.2414
11378.2 83.1391 1.26945
10110.2 83.5172 1.21465
11834 85.3401 1.29397
10743.1 90.4195 1.41714
10118.4 84.709 1.55199
10484.5 86.8781 1.49945
10118.2 87.5103 1.57852
10495.2 91.1313 1.60761
9643.38 82.4072 1.58321
9013.08 84.7617 1.61535
8939.06 85.3873 1.6933
8796.17 88.2801 1.78606
9069.32 84.6846 1.75286
8455.27 88.0254 1.90479
8008.18 81.7788 1.81943
8069.78 87.2345 1.98043
7431.92 83.9255 1.93913
7360.1 87.9275 2.09669
6463.31 81.4986 1.97358
7106.27 85.0966 2.16708
6450.97 87.9316 2.3046
6345.11 78.8653 2.10137
6173.1 82.377 2.26426
6162.2 83.5541 2.3351
5437.76 82.7286 2.28587
6179.12 83.7343 2.40136
5549.21 84.1944 2.52757
5991.3 81.7032 2.52488
5124.6 83.2418 2.628
5384.31 81.4935 2.603
4760.11 83.491 2.81998
4898.99 84.2446 2.81076
4421.3 84.1252 2.89269
4468.22 78.9178 2.81651
4133.08 81.0384 2.88937
4257.16 85.6117 3.14604
4357.02 85.3224 3.15496
3618.03 79.6968 3.12478
3852.05 84.9339 3.3614
3738.98 82.9709 3.29518
4013.74 84.8052 3.43478
3684.05 83.3964 3.52556
3813.29 79.6402 3.35419
3397.64 82.1149 3.5906
3547.05 81.3855 3.63375
3169.74 77.7223 3.42349
3337.15 84.7822 3.88302
2990.94 77.0435 3.66749
2976.13 78.0667 3.71447
2934.5 82.5438 4.04282
2769.38 80.3743 3.96898
2849.66 84.0513 4.2727
2883.38 80.7813 4.1942
2746.27 81.7629 4.23654
2769.75 80.7215 4.31069
2864.71 84.1113 4.56546
2683.62 79.8541 4.44164
2435.7 76.1173 4.3118
2498.23 79.8074 4.63624
2259.9 80.2065 4.65565
2452.04 83.2744 4.96982
2245.27 76.4725 4.70215
2320.74 83.394 5.16001
2121.99 78.016 4.7945
2080.46 76.3497 4.87849
2120.05 74.8897 4.81252
2029.59 73.8682 4.8361
2053.58 80.329 5.34435
1847.92 78.1541 5.27289
2056.66 79.102 5.42556
1907.43 79.0535 5.54477
1900.65 76.6354 5.40013
1978.53 81.9771 5.80635
1749.39 74.9622 5.55273
1785.87 78.931 5.96338
1794.84 77.3893 5.81186
1526.84 72.5756 5.58979
1757.86 82.2316 6.47226
1556.67 75.6382 5.96774
1580.72 72.8182 5.84915
1552.03 77.699 6.33758
1503.97 78.454 6.42627
1635.59 74.213 6.26285
1500.68 76.4771 6.54659
1436.83 74.2745 6.4961
1475.51 72.6438 6.43077
1316.2 68.2808 6.04269
1367.54 77.6417 6.9711
1317.85 72.9119 6.69319
1299.49 75.2134 6.99252
1353.85 78.9487 7.40117
1316.49 78.6806 7.40323
1242.67 76.6976 7.34434
1269.67 77.3653 7.59245
1194.95 74.257 7.46186
1089.84 68.9956 7.00032
1221.35 79.9645 8.14928
1247.53 77.3551 7.89458
1114.61 71.9167 7.57428
1153.27 74.3748 7.82497
1047.34 72.7002 7.77736
1144.69 73.444 8.02872
1132.54 76.0915 8.26872
1179.79 71.4328 8.05631
1098.31 73.801 8.31756
1022 72.9302 8.27567
1084.44 72.9132 8.50427
1142.04 70.6533 8.29947
1049.99 75.1646 9.03615
1047.74 74.1665 9.0051
1066.44 74.7064 9.09246
1110.09 76.8622 9.45813
959.931 73.6907 9.27791
983.334 69.693 8.82518
1022.77 73.1713 9.37104
978.325 71.8037 9.44833
963.558 71.5066 9.35758
1022.62 72.7968 9.56913
925.828 70.7335 9.70351
992.995 73.4548 9.95828
970.366 72.9842 9.84015
960.735 72.4662 10.1795
896.974 73.6493 10.3595
948.804 66.7302 9.47644
869.161 70.5238 10.0557
923.454 68.9426 9.90534
932.604 74.2504 10.9891
847.517 67.964 10.06
895.747 67.2298 9.99677
902.405 69.7283 10.6206
874.788 71.4262 11.115
871.178 69.147 10.7657
901.797 71.8387 11.2011
810.886 71.1534 11.165
870.889 73.8906 11.7547
804.041 70.6825 11.5405
869.863 75.5853 12.1623
818.241 70.8191 11.7523
830.521 70.4272 11.7306
802.739 68.8514 11.6233
801.209 68.6265 11.6307
768.648 71.4353 12.0795
813.12 64.7276 11.2514
840.168 70.632 12.2328
876.15 75.3598 13.3956
797.56 69.1065 12.1829
856.078 68.1743 12.3795
807.133 67.2874 12.3115
816.406 67.9676 12.6354
813.873 68.1214 12.7711
816.217 68.6263 12.863
761.366 68.4574 12.8863
783.688 74.7861 14.375
780.851 67.5355 12.9843
732.89 67.3357 13.1136
789.176 72.5138 14.2335
762.989 69.3897 13.9539
768.849 68.9542 14.0386
711.903 66.9278 13.2893
880.329 67.9843 14.0943
723.59 66.8696 13.7956
811.402 67.3321 14.0475
695.522 65.7019 13.8658
788.904 66.2226 13.9952
753.534 65.1497 14.1062
784.456 67.8869 14.7947
687.891 65.3018 14.3617
757.165 70.2484 15.5529
696.326 63.8993 14.3356
734.486 67.9396 15.0216
747.971 68.1073 15.4525
733.303 71.0607 16.2372
774.789 69.4274 15.9166
717.523 67.7262 15.6705
744.63 65.2162 15.3145
698.717 67.1769 15.8641
711.325 65.0688 15.7473
663.933 65.0457 15.6452
740.282 67.3955 16.17
711.285 63.2594 15.9234
723.042 65.9997 16.2565
703.253 69.8072 17.2615
668.793 68.1932 17.1536
632.508 65.6623 16.9746
650.041 63.2991 16.1284
568.305 60.5986 15.7826
589.65 61.444 16.0874
669.961 66.8646 17.4441
646.164 66.182 17.6666
559.792 66.1155 18.0147
646.576 65.5778 17.3426
634.002 63.7656 17.4167
633.666 68.6495 18.9219
596.29 64.0661 17.502
572.742 62.366 17.3975
567.315 62.6221 17.555
571.125 65.464 18.5423
518.446 61.5879 17.6058
580.271 61.8861 17.5275
528.305 58.6845 16.8487
506.519 62.0899 18.1631
500.8 61.113 18.016
495.348 62.9015 18.692
526.093 66.3343 19.6344
487.182 65.666 19.6684
492.58 63.6797 19.6409
527.945 65.7292 20.0978
516.903 64.8463 20.1206
467.086 65.4052 20.1275
469.027 62.4297 19.4044
463.219 62.7813 19.2656
471.083 66.5397 21.2937
465.178 62.834 20.3267
436.781 63.331 20.2977
463.997 65.5048 21.0845
455.265 64.4968 20.8431
458.273 63.4551 20.7189
470.195 65.4204 21.8628
468.265 58.9403 19.7835
432.406 60.5342 20.2692
458.906 60.268 20.58
399.642 60.9113 20.7722
431.84 63.8634 21.9399
429.231 63.1317 22.1764
385.434 60.3814 21.417
404.747 61.1968 21.4347
409.574 62.946 22.2184
417.112 63.5775 22.5776
383.12 64.3181 23.2471
362.14 61.9223 22.1914
362.497 59.9826 22.0247
378.237 58.2366 21.4322
365.527 62.4001 23.0001
441.146 57.6344 21.1542
390.802 61.9853 23.321
864.576 62.1871 23.2856
467.113 59.4618 23.0673
370.521 66.653 25.0135
425.552 61.2887 23.2606
989.631 62.2482 24.3709
425.662 60.8989 23.3184
464.602 60.6747 23.6636
339.983 59.2103 23.8285
327.864 59.9703 23.9035
338.182 60.2318 24.0713
372.382 61.3589 24.7608
297.98 63.1083 25.81
372.559 61.3098 24.8359
296.408 61.1304 25.2489
300.662 60.5045 24.6997
324.521 63.0259 25.5059
297.92 57.5626 24.8386
332.328 62.1008 25.8015
315.959 59.2658 25.4501
329.578 62.2467 26.6447
316.485 60.8552 26.0346
329.107 61.787 26.6145
315.618 55.3673 23.8434
337.742 58.9256 26.3055
337.112 60.2357 26.2461
312.61 58.4656 25.7989
312.646 54.6175 23.8932
348.284 60.8213 27.1293
324.321 56.3077 25.2292
328.288 60.7803 27.5238
338.625 58.8805 26.9805
314.34 56.4598 25.8164
351.634 63.3823 29.1246
276.453 57.4241 26.754
311.468 58.8285 27.9485
287.477 60.3966 28.4606
292.659 59.6211 28.6611
300.765 59.2643 27.8675
301.295 62.8197 29.7073
295.309 59.5167 28.7243
277.196 57.6363 27.8584
286.678 55.4938 26.5541
278.41 53.531 26.7272
288.419 55.9716 27.8355
299.08 55.9309 27.9309
328.47 57.5854 29.0313
312.88 60.1116 29.5028
299.899 55.5882 28.1363
303.352 59.8414 30.493
336.757 59.1995 29.8133
293.454 56.2308 29.1071
312.665 58.6608 29.5721
283.583 53.854 28.2145
300.328 57.4856 30.1762
312.885 55.3713 28.983
321.76 59.0976 31.7599
294.086 55.1037 29.0463
258.73 54.3766 28.8842
337.128 57.0894 31.0425
317.108 57.0303 30.9559
354.052 57.903 31.5545
303.788 58.1323 31.5283
309.987 53.3099 29.2698
296.71 55.4012 30.7213
301.677 54.0396 29.5622
334.884 54.6689 30.1492
317.94 55.6851 31.2113
343.291 55.383 31.2469
317.378 56.7632 32.2411
301.62 55.194 30.9306
322.587 58.0861 32.9691
293.862 56.9234 33.0354
305.682 56.8238 33.126
316.735 55.2505 32.0041
264.276 54.7757 32.1171
313.456 56.3804 33.3455
302.582 53.4178 31.8505
310.165 54.6082 32.3858
313.767 55.2294 32.6816
310.301 57.3266 34.9369
306.624 57.3418 34.5722
321.232 56.974 34.601
303.173 51.9827 31.7587
304.385 55.3891 33.9452
319.038 57.5745 35.3379
268.102 53.1546 33.7324
286.13 55.8055 34.2215
300.136 57.4817 35.5589
281.041 57.1558 35.8484
259.904 55.1618 35.9317
284.702 53.7936 33.7882
266.979 54.9285 34.9558
271.362 54.1225 34.9168
292.948 53.0091 34.2501
298.156 58.2079 37.1277
267.102 50.4625 32.8804
272.358 50.4119 33.3092
260.217 54.8884 35.7796
276.937 54.4607 36.3842
262.149 52.9318 35.2887
282.945 56.6583 36.8482
254.147 52.8871 35.7529
250.009 53.621 35.9771
244.321 50.2082 34.5419
265.626 54.152 36.78
250.638 54.7604 37.2518
236.988 52.3551 36.1697
297.779 55.371 37.9152
257.762 53.5642 37.4248
262.923 53.9648 37.3432
251.617 50.2902 35.1667
245.079 50.8516 34.8155
242.742 54.349 38.171
255.202 53.4807 38.3157
243.877 50.5695 35.938
224.445 55.7159 39.7849
235.752 52.9347 39.1931
240.535 54.8346 39.316
215.992 51.1595 37.2322
263.246 51.0418 37.2141
235.41 48.1085 36.1432
242.959 50.7798 37.7407
253.498 54.6064 39.5668
220.219 52.0969 38.6246
204.483 48.9189 36.7311
233.098 48.89 37.0459
215.256 51.4854 38.5094
235.028 55.9981 42.1839
199.59 47.2935 36.4492
185.824 51.7309 39.0005
190.604 48.8259 37.356
189.81 49.7603 38.6343
204.831 49.1257 38.3262
192.82 52.8428 40.5198
187.223 52.6929 41.3524
202.671 53.6578 40.789
205.053 50.323 40.5337
195.806 49.546 39.3679
208.885 48.5378 38.4202
209.833 53.7533 43.1175
201.515 54.3716 43.5729
181.892 47.9551 38.1155
213.618 51.9244 41.353
178.465 52.039 42.8585
189.809 50.2282 41.8451
189.482 50.1445 40.6865
189.111 48.5594 39.987
171.597 49.4622 40.4118
175.438 54.5336 46.3494
195.577 51.8365 42.4102
174.79 51.196 42.2777
186.711 50.5283 42.8792
177.036 49.2464 40.7135
164.747 49.7689 42.6805
183.302 53.861 45.2327
203.186 52.4268 45.0306
174.109 48.9228 42.9778
185.447 50.0818 43.2912
170.827 50.8625 43.3795
168.64 48.8901 43.6663
174.853 50.6303 43.8909
155.063 49.1151 43.2236
174.532 50.6259 43.4814
149.039 50.6911 44.5521
168.547 49.9254 44.9111
172.987 48.5084 42.9019
159.313 47.7159 43.1092
165.691 51.6104 46.8247
173.479 49.5878 43.589
162.838 52.4455 46.8945
166.463 48.9102 45.6933
139.798 49.1395 45.5838
173.236 48.4906 43.6052
165.176 49.4955 45.4059
148.943 48.4079 44.2137
142.606 48.2207 45.0667
166.711 52.3041 49.4968
154.791 50.3264 46.7215
153.536 48.3049 46.1356
172.052 52.3015 48.3669
159.416 48.7793 46.5756
143.742 46.3567 45.1568
161.533 49.3305 46.2854
152.962 44.732 43.3655
150.772 50.1198 46.688
178.028 46.7342 45.0076
143.08 48.6648 48.3659
148.77 46.7968 44.9958
161.885 45.5842 44.9325
151.617 47.2056 45.8047
146.35 45.1122 44.8319
158.784 45.7795 43.8646
139.933 45.7905 45.6362
148.573 46.4371 47.1601
152.865 48.5073 47.7776
150.68 46.1013 45.7263
173.243 46.6452 46.93
145.449 48.3334 49.5097
162.284 49.3411 49.2957
166.317 47.2109 46.8571
159.3 50.4105 51.0804
140.876 44.9898 46.9928
147.416 47.5277 49.0258
161.01 45.032 45.8868
151.159 46.0839 48.6242
163.371 46.2146 47.9897
152.336 48.3121 50.877
164.485 48.1266 50.4905
164.414 48.2871 50.5992
152.037 46.9772 48.5416
174.853 44.6773 48.8363
159.429 45.9836 48.3321
159.282 44.833 47.846
180.827 46.4241 49.7786
159.223 46.0861 49.5713
158.12 48.1115 49.7339
172.984 47.304 50.744
155.45 46.1475 50.3439
163.599 45.6773 51.0122
143.92 46.5575 50.8554
166.52 48.883 53.9659
156.754 46.6282 51.7248
158.768 45.0509 49.1778
158.033 45.4851 50.9719
164.019 46.4839 51.1078
138.068 43.5049 49.4001
152.128 46.2249 50.4814
157.344 43.1706 50.0047
166.55 47.4005 53.0382
155.373 45.482 51.3779
155.786 47.2795 54.0773
158.902 46.1579 51.4598
168.194 49.2024 57.0917
156.482 44.5942 51.4089
164.586 47.7119 54.5303
164.105 46.199 53.2913
151.447 47.9993 53.5994
160.007 45.293 53.9869
154.618 45.3119 53.6375
167.387 45.4025 53.1953
148.799 42.5315 51.0331
173.91 44.4028 51.0625
149.687 45.5359 54.7274
168.583 43.6774 51.7385
146.863 45.5898 55.0596
176.762 46.6389 55.265
169.965 46.0321 55.5333
143.181 44.8231 54.1567
166.243 48.821 58.9749
147.714 42.9322 52.1091
156.156 44.0589 51.8837
152.221 39.8116 50.0941
149.475 43.6831 52.6078
135.594 43.2096 52.5219
161.049 43.9176 56.7588
152.69 44.9138 54.6554
147.209 45.1321 55.0672
134.279 45.1171 56.1118
148.779 47.4734 59.9748
147.74 43.4635 52.8413
147.562 41.4737 53.6422
122.309 43.3424 54.871
123.47 46.6969 58.014
136.666 44.7725 57.1613
137.788 45.2078 57.0344
121.575 42.2148 54.0566
141.058 45.2377 57.7015
130.507 43.8542 56.845
119.616 42.0253 54.9246
126.759 46.8224 58.3992
125.699 41.2993 55.027
138.218 46.2625 57.6596
117.505 44.1919 57.8939
115.517 43.1801 57.0423
131.856 43.4298 56.4804
129.391 43.9459 58.2149
123.492 44.6138 59.3946
124.707 43.6924 59.0907
139.843 43.5674 58.0347
128.07 42.4038 56.3824
121.183 43.5513 59.5898
124.714 43.6586 58.5004
134.367 43.6979 56.3915
131.404 42.97 58.0954
128.171 43.8455 60.3617
113.677 42.6845 57.1257
125.92 41.8209 56.4748
120.073 45.328 63.1969
124.041 42.6885 56.9672
130.876 44.1116 60.5607
111.221 39.0819 55.2205
130.72 41.7623 56.843
145.274 42.1437 59.5821
125.661 43.5967 61.1394
112.597 43.3852 60.1012
111.622 43.3991 60.7457
109.39 41.2848 58.3096
100.644 44.5279 61.4548
102.693 42.4858 60.5913
105.144 39.9228 56.8742
107.511 43.9213 60.7296
94.1993 43.6678 61.554
106.57 41.5277 60.0915
102.596 40.1227 58.489
101.151 40.7376 57.0969
93.5122 42.755 61.0391
100.716 40.6746 58.9466
99.424 41.2206 59.7612
98.725 42.7387 62.9815
101.94 44.676 65.3755
111.41 43.2031 63.8085
104.354 42.1131 60.7473
101.437 41.3488 60.5419
88.4214 40.8981 62.3054
109.32 44.8885 62.924
114.25 41.7967 61.7807
94.724 42.0628 63.7262
104.602 41.7845 62.5528
97.1778 40.5875 62.2727
92.3335 41.2889 59.6512
89.534 39.4911 61.4749
100.19 41.0205 61.255
98.8558 43.6049 64.5731
95.2054 42.04 64.6542
89.7098 39.6343 62.008
95.6916 43.0212 64.4582
102.504 42.6734 67.09
90.6786 42.6103 63.9039
111.15 42.0494 63.2991
95.3822 37.7519 60.2565
101.718 40.8362 63.6039
98.2274 39.7213 60.9093
93.9121 40.0608 61.4533
99.0856 42.6275 65.3379
91.069 40.444 64.2023
92.118 42.7948 68.6923
105.906 40.379 61.9679
91.5183 43.0248 68.5699
92.5382 41.6967 66.9184
94.1082 41.3109 65.1882
95.7414 39.7502 61.8943
96.301 39.7643 64.9748
92.911 42.4044 67.1904
108.939 40.9834 65.7236
97.9302 41.3904 65.0461
88.7286 41.1159 66.7329
96.8744 41.9279 67.8579
105.428 41.2261 67.7987
94.6941 42.0996 68.493
102.275 39.7371 63.7046
95.4878 40.4971 65.2707
109.448 39.532 65.9149
90.5938 41.2467 66.7569
94.5095 40.4322 63.6569
102.772 42.2032 70.5979
96.6847 39.9808 67.5279
93.6788 39.9922 65.4856
93.3398 40.5845 66.1637
95.5761 38.6555 65.2843
96.218 43.0655 73.0942
100.355 41.7945 67.6038
96.203 38.7167 64.9503
94.1641 42.5902 71.6126
94.1288 38.1816 66.2605
104.972 39.6422 66.3937
100.267 42.6585 69.6433
108.583 39.8298 67.7157
109.602 41.796 71.4194
111.259 41.0444 70.8018
94.9914 38.0229 65.4511
99.7495 39.8597 70.2066
116.292 42.3256 71.1636
108.551 37.2793 65.2645
94.3227 37.1086 64.9573
100.866 40.9247 72.0947
87.014 42.4434 73.9814
96.3517 41.179 68.3274
97.7907 37.5241 66.4852
88.3251 38.2162 66.1387
94.1586 40.2361 69.8433
95.9512 39.2286 70.2681
96.6371 38.0906 66.1913
92.0163 41.378 75.9196
107.111 42.3899 74.175
104.58 38.4759 68.2077
93.8685 40.8045 72.8312
113.49 39.4769 71.4137
95.5933 38.9563 67.7161
97.8994 39.3839 72.8912
95.8815 38.8681 68.8249
95.9932 36.8854 67.2363
108.191 39.294 70.7716
97.4967 38.6939 70.2607
104.37 40.4307 72.7678
92.6599 40.0405 74.1584
104.863 39.2985 70.8521
101.587 38.3835 70.8191
94.121 37.9572 71.5608
94.3569 40.108 73.789
97.3111 37.0551 70.7084
100.852 40.3028 73.4531
89.6218 36.5934 68.0322
88.9104 39.0637 73.1686
92.9867 39.9348 72.2199
94.2869 37.4052 70.6242
98.7622 39.681 72.5606
83.3834 34.6914 65.7285
97.6333 37.2412 68.6684
92.3928 37.445 69.4316
88.5457 37.3424 70.8339
95.0163 38.961 73.0163
97.7439 37.3727 69.5337
90.9259 37.8801 72.2763
96.8578 37.6981 71.8327
91.5456 37.1572 69.9027
97.8656 37.04 71.9739
88.6062 38.4741 73.3222
87.3561 37.0391 69.9041
79.2434 38.716 74.9322
87.0867 36.6538 72.8212
85.9298 39.6215 74.4998
78.758 38.2707 76.4496
80.9537 38.3727 74.5574
82.5458 36.5452 73.1731
87.0687 38.8041 74.0313
75.2837 37.6506 72.5219
83.9652 38.6547 73.576
76.1747 34.3475 68.8473
86.6168 37.3983 73.1737
78.5076 36.0111 72.3755
88.2487 38.8784 76.2285
86.155 37.0457 74.9341
95.5607 38.2148 73.8514
70.7667 35.0994 72.9899
80.3966 39.9695 78.801
77.0618 38.1732 76.5601
69.825 37.0979 72.285
68.3396 36.7526 74.8016
79.9228 35.6091 72.789
72.0255 37.6935 74.7202
80.6171 37.8158 77.6882
71.9774 37.7412 76.5894
81.981 37.8069 74.9281
75.5931 36.3847 73.7145
82.3728 36.3396 75.545
77.3437 36.7616 77.5178
90.4151 36.7179 73.7404
82.3141 36.8763 74.9061
70.8113 36.5221 77.9361
72.6699 40.6171 82.7334
73.6587 37.0798 74.6129
76.5689 36.2767 77.667
74.5508 36.267 73.315
66.2311 38.5703 79.6597
72.2312 39.6704 81.7592
74.4915 38.4356 79.31
77.5531 34.8179 73.3769
70.9996 36.4818 76.1621
77.234 36.5205 79.7017
72.1616 37.0705 78.1735
69.9144 37.493 80.3098
68.9083 36.6834 78.1951
75.1785 37.1407 78.4826
64.8758 39.5481 81.7982
74.0135 35.7844 76.2067
63.2426 36.4122 76.3134
67.1117 35.7497 77.1263
58.9949 35.9772 76.6544
79.6434 35.8713 75.2236
65.7774 36.5346 78.7152
60.1418 37.5763 79.5831
63.6943 36.7487 81.2218
65.1749 35.297 77.4138
60.859 36.7813 79.2435
58.1895 35.6591 78.2618
57.9168 37.9042 83.3757
59.3815 37.7935 81.0046
63.047 39.0265 84.9712
70.1755 36.4624 78.8704
68.5248 37.1851 81.5907
61.335 35.9728 78.3623
63.2878 34.219 76.1009
71.5603 36.5886 81.1128
73.0531 35.3446 80.3076
67.1936 37.7064 81.0747
62.0872 35.128 80.9846
71.804 35.8598 77.4956
70.7274 34.873 74.5033
72.3383 37.912 86.8789
70.7248 36.2068 82.6772
68.2361 34.9589 79.0325
63.8172 36.8342 79.9307
62.9403 36.521 83.2055
65.1946 35.8208 81.4518
66.4256 38.84 86.4761
61.8602 38.13 84.074
68.2612 35.782 82.7928
65.7153 34.1017 75.7574
70.7554 33.7969 76.6632
65.6424 34.4381 81.2763
71.9473 35.9452 80.529
64.323 35.366 81.2683
71.4864 35.7027 83.1123
71.1663 37.4906 86.0423
80.4167 39.3799 87.9296
70.9418 35.504 81.0498
73.7279 35.4931 85.8225
79.026 36.9507 82.7271
73.5454 34.4668 79.6736
72.4487 35.8669 80.0578
73.7213 33.1946 76.5108
66.8901 34.8709 82.2763
79.3552 34.0066 81.9457
77.9611 35.5887 84.6255
73.3703 34.9412 77.1067
70.8014 35.4324 81.6519
73.0608 37.0135 88.7974
69.2724 34.3282 81.2652
71.5144 35.2016 84.8978
67.7764 35.2287 80.7245
72.2565 35.348 84.3981
72.438 35.5659 83.3719
70.2095 37.0577 85.6715
70.574 34.3802 86.4842
68.307 35.73 81.8592
68.5429 35.3043 83.7217
65.3544 35.484 84.9676
66.711 35.4326 88.9772
75.9718 34.7269 79.9909
70.054 34.0125 82.1074
72.4957 37.7771 90.8313
61.2201 34.1843 83.8612
69.4912 36.1409 88.2343
77.4154 33.9134 85.1449
78.8089 35.1945 85.1992
75.4965 34.0248 82.3762
72.5121 33.1348 79.9976
66.6264 31.9884 78.9187
73.0123 34.7286 82.853
73.7844 37.092 86.8833
71.8154 34.1306 85.0482
71.1769 35.6497 89.368
79.0788 35.1107 85.3943
63.2378 32.8512 83.3646
67.9642 35.9487 87.424
73.9328 34.9763 85.1861
69.2727 32.7129 82.2766
72.0958 34.4689 86.5016
71.1102 34.6951 85.8082
63.1958 32.0833 79.5749
69.4314 34.5092 85.4248
69.4451 36.1933 90.1044
65.6227 34.3639 86.2882
69.4086 34.9925 87.8768
67.5971 34.9234 88.6729
77.8193 34.5508 86.7463
62.655 35.2572 86.143
62.3009 34.2791 87.6848
72.1273 34.3925 82.9895
67.5429 34.2405 89.3345
62.7538 34.7128 90.8793
66.606 34.9698 87.1626
65.569 34.036 84.1769
66.3006 34.8066 93.1103
68.263 34.0337 85.4334
68.7982 34.0471 88.4623
65.8885 33.3931 82.3724
68.5757 33.1306 89.484
73.6874 35.4196 88.2226
68.3486 35.2841 89.691
70.143 35.2812 90.0977
65.5088 34.6091 84.454
71.4697 31.7858 87.6666
68.078 31.7798 79.0192
76.8338 35.1572 93.5965
70.541 34.1081 88.6561
86.8148 32.8853 87.8771
79.0438 34.6439 86.9274
76.4934 33.5598 88.9154
75.9702 35.2805 93.2018
84.2107 34.7264 93.2661
71.2727 34.1201 85.4839
74.0558 33.2327 86.0369
62.1188 33.2265 84.0317
73.0893 34.1507 93.6443
55.6226 34.5274 91.8633
60.6642 31.6073 84.2516
53.3928 33.4459 88.069
61.7748 33.1005 86.2276
56.3943 33.3528 88.8835
57.4681 33.8731 91.0642
52.659 34.4987 91.4497
54.921 35.6975 92.6323
62.7466 34.6907 94.6199
49.813 34.1238 90.7639
47.552 31.5863 85.5576
55.8543 32.2109 87.5111
47.1981 35.491 94.9268
51.1876 33.9027 94.6892
48.5742 34.0991 91.9113
49.0813 33.1395 91.6111
51.6676 33.1708 88.9186
57.7465 34.1227 94.7993
51.8408 31.5049 83.3348
50.6566 35.217 92.7103
49.7991 34.5905 90.7301
47.9901 33.1658 91.5538
51.3952 36.0925 95.1864
55.969 32.56 91.2667
58.5291 32.3112 88.0329
54.1083 32.1042 86.7716
52.8898 33.462 93.5893
56.5164 31.189 86.3859
55.3445 33.5019 90.4822
56.3178 32.7354 90.3452
50.9856 31.0625 87.5783
54.0948 34.6976 92.3887
55.5491 31.9776 92.2672
53.9688 32.5554 88.6364
54.9884 31.2753 88.5761
51.1445 33.014 93.3733
44.9404 30.944 87.7387
51.5625 34.6511 95.0851
43.9339 33.4012 92.9727
54.3657 30.5405 87.7402
52.4505 33.65 91.158
48.9269 29.7892 87.6186
46.623 31.9734 90.5403
55.8787 32.4496 86.4424
50.0881 33.0301 92.1246
57.2846 30.9649 86.2311
53.1779 31.8291 91.3182
56.9744 33.2828 94.6285
53.4913 32.6889 98.3628
65.1953 33.1501 89.1823
49.1355 32.8884 97.5692
53.3589 34.5037 94.325
48.2073 31.802 91.4016
43.9616 33.1769 94.3375
55.7711 31.6878 89.7262
48.3502 29.5963 88.0005
45.5226 31.8334 92.6497
49.1622 31.6405 92.0855
53.1581 31.6601 90.3426
44.9985 34.4167 101.33
47.9767 31.9314 89.3473
53.1731 34.2048 96.0044
47.1457 31.3602 87.9892
58.0498 32.7556 95.6341
53.7013 32.8666 90.1438
56.5416 32.2345 96.4625
54.1386 31.6535 92.6361
53.4049 31.3244 91.5424
54.2704 31.3087 90.3415
52.2873 31.7419 91.3466
54.8926 32.2803 93.6799
50.7029 30.9803 94.7464
57.1418 31.2492 83.7035
49.6872 31.978 97.1013
51.0976 30.2584 90.4734
65.7424 33.8896 99.2678
54.6962 33.4995 99.5517
54.2441 32.3435 96.4385
52.5904 31.6898 94.232
49.7718 31.3225 95.5942
55.0052 30.3573 89.6717
54.5377 31.838 95.0509
50.9581 31.69 88.8836
50.5022 31.2285 92.2225
53.2254 31.8687 96.5856
58.1052 32.886 97.0413
54.9104 32.2562 95.9787
52.4464 32.251 95.2763
52.4149 32.8825 98.3239
56.7917 32.3435 96.7071
52.9215 32.0849 92.4384
53.4651 29.5434 89.6472
59.8515 32.4184 97.4509
56.1364 31.6598 95.4864
53.9883 31.3392 97.2976
57.4919 32.1995 98.8605
54.6941 33.3192 98.6646
55.3057 33.295 98.7613
52.8015 30.5806 96.8974
56.5372 32.1359 94.9656
60.5579 32.8708 99.0671
60.4921 30.7801 95.5861
55.1786 32.1398 99.1724
52.6791 34.0146 100.303
55.4571 30.73 95.2579
58.4004 32.7146 97.9832
51.3635 31.3291 99.3335
53.6508 32.4311 99.4058
54.1955 31.8552 95.8433
54.7462 32.0581 101.164
56.4813 30.8157 88.9382
61.6161 31.0923 98.4884
60.5686 29.9269 94.9662
56.59 32.0468 102.461
57.8755 33.5212 97.3453
58.8311 30.8244 92.3348
61.4783 31.4097 102.075
55.7893 31.2954 95.8428
66.7707 29.6661 90.6018
52.4621 32.2799 103.506
59.385 31.6934 94.1987
54.4124 29.9952 91.7103
49.7716 31.3498 98.7019
48.8771 31.3976 96.5948
48.6916 30.0379 93.9423
49.598 30.9785 97.5562
55.8804 32.1511 101.771
51.7722 30.7967 97.7712
46.3393 31.9516 101.306
56.5914 30.9091 98.9565
50.0954 31.6157 94.7011
54.4957 30.3589 97.4992
54.9998 31.8858 100.609
57.4917 30.4817 99.0289
55.1539 31.165 97.8799
62.1677 33.1084 103.318
53.2318 31.2421 93.1445
63.7192 31.7166 102.437
51.0733 32.7081 104.957
57.8434 33.3831 102.226
50.0447 31.9821 100.662
53.1429 30.2157 102.234
50.7259 31.8113 101.257
52.9615 30.4133 98.3117
54.1869 30.3873 93.2858
54.493 29.5076 99.6258
52.2307 31.1072 98.527
46.8284 32.5153 101.229
57.979 31.1324 100.687
54.887 29.5714 95.6233
47.7842 29.9036 95.6052
50.4153 29.8219 99.9851
55.5551 32.2226 99.1564
51.3892 32.462 102.282
47.0313 31.4043 103.714
57.8414 29.2192 92.4079
50.2187 30.0917 97.0526
48.0334 30.9841 101.223
45.1539 31.7648 101.182
50.5333 31.9664 103.646
41.1694 30.109 98.8056
50.6155 30.8951 101.381
46.1287 31.2965 98.1653
48.037 29.7878 100.231
52.0188 29.4659 100.564
44.4002 30.9409 96.1378
47.1315 29.9534 99.3169
45.1584 30.1274 100.447
47.3835 30.566 95.9974
47.0626 31.2809 100.326
41.9951 29.2808 100.096
41.5899 30.0889 95.4375
44.7214 31.1105 100.678
43.9975 29.7045 97.3895
43.8752 30.3435 103.477
44.2344 31.1725 104.143
40.9414 32.3419 104.411
42.2929 30.8596 103.106
45.2148 30.5486 101.726
43.4933 30.0265 96.4342
45.6001 29.8532 102.688
47.3197 31.296 102.111
42.5948 31.6268 106.686
43.8421 31.3319 99.1942
46.3577 28.4521 96.3738
50.0897 29.6605 97.7429
45.7249 29.9717 98.1133
45.9979 28.8051 95.8856
41.8288 27.2978 94.7607
42.4001 29.0273 96.9608
47.201 29.2025 100.57
45.8822 29.4784 99.1803
46.7398 30.8908 102.965
40.7406 29.8025 96.3974
40.2928 29.684 98.6034
43.4279 30.6286 101.758
40.1949 30.3325 104.353
39.1274 31.1163 104.403
42.0555 29.3424 99.6856
47.706 29.6705 102.758
41.4735 28.436 97.1635
43.5139 29.5867 103.281
38.2036 31.429 99.5262
43.1349 29.4727 99.1072
43.4771 28.6086 98.4506
43.3605 29.1875 100.838
45.229 29.2316 95.6882
44.1025 30.3048 101.744
43.2489 29.4535 99.5498
48.366 30.2419 103.27
46.4153 29.4792 105.106
49.5467 30.5592 104.723
43.0114 29.1753 97.3767
43.2105 30.516 106.56
43.1672 30.8777 103.178
46.8676 27.9107 95.4705
42.3769 30.3678 102.34
41.1099 28.8283 99.0136
38.588 30.9076 107.182
47.2677 29.9278 104.516
44.5265 30.5209 107.308
49.4647 29.9292 98.4931
45.4411 30.7561 106.513
48.9143 30.4312 107.176
44.4994 29.3931 99.9127
44.4207 30.3675 100.78
41.0546 30.6785 103.922
48.2937 27.4582 100.145
43.2491 28.9261 103.168
42.8382 30.6497 102.222
39.3584 29.0014 103.063
44.6837 30.3326 105.037
40.3707 31.3862 106.259
44.3001 27.8532 99.3275
41.6029 29.3778 104.357
40.0691 31.2445 111.133
42.1802 31.3799 112.961
43.0068 29.276 97.3991
46.2108 28.0182 98.9325
44.236 29.931 102.682
45.5593 30.0483 105.959
43.223 29.6115 100.3
47.9021 30.2176 100.829
46.8292 28.5163 100.394
40.8497 31.0817 107.676
44.1677 28.7305 109.559
45.005 30.0635 98.0882
44.4962 28.3588 96.3597
43.5157 28.2471 99.2713
45.375 30.7385 107.231
51.3754 29.7376 103.802
46.8526 28.9684 103.994
41.4835 29.517 108.458
47.5165 29.2072 108.692
46.16 29.6432 105.82
48.6611 29.7683 102.598
48.0744 28.6633 100.26
47.0092 28.8953 108.276
47.094 29.7896 103.562
50.0784 30.7912 105.006
50.8974 30.0679 103.789
50.0596 27.5068 100.072
47.2155 28.3992 102.333
41.3686 29.3459 105.172
45.4433 28.284 101.83
49.7554 31.2148 108.407
43.8038 29.3167 106.291
53.0759 29.485 104.234
42.9949 29.7966 107.284
44.2471 28.0479 100.005
50.4195 28.6706 105.712
51.0053 30.5038 110.383
40.6282 28.922 105.68
53.2658 29.848 103.837
45.4973 28.2702 105.785
52.2778 30.8452 105.411
53.5843 31.1018 113.951
62.6985 30.4522 109.451
52.935 28.7952 104.077
69.0092 29.0056 104.44
68.8179 28.6137 105.039
65.2003 30.6276 107.264
64.7605 31.1947 112.892
66.9021 29.4475 108.391
51.2958 30.444 104.441
57.7184 29.6237 108.329
52.0116 30.3271 111.057
53.1572 28.7972 106.74
45.6931 31.3924 108.56
44.3955 28.9328 106.933
53.3174 29.6368 105.994
46.4604 28.013 106.128
46.2727 29.8267 108.602
43.0589 30.4313 110.929
43.9249 30.7844 107.324
43.4524 30.2907 109.167
46.2129 28.0918 108.905
51.78 30.8903 111.425
47.731 31.1354 112.299
40.2054 31.1529 110.371
46.3894 30.5593 109.711
39.8303 27.8659 104.014
40.478 28.4992 107.652
42.3396 29.4874 105.368
38.38 27.0357 102.908
44.6474 28.2894 104.39
37.1177 27.7566 104.354
40.3478 29.0123 101.459
37.7265 28.8973 108.34
40.6972 28.8348 105.765
38.9463 28.876 107.069
43.8995 31.2693 108.383
42.5973 28.9378 110.394
35.0359 28.5126 104.561
44.794 28.8298 107.435
36.3853 28.3868 110.091
35.4193 30.803 109.388
43.6817 29.645 110.328
37.6592 28.6484 104.493
40.8466 29.0687 105.595
36.4616 30.1754 109.442
42.7996 29.2487 106.432
45.0446 27.521 104.944
37.2304 28.6084 108.39
36.6911 29.9566 111.456
41.4315 29.1561 105.045
32.6649 28.3858 110.617
40.6201 29.5359 106.866
37.2313 29.5582 105.002
37.086 29.4871 112.779
41.2601 30.5761 112.355
39.9918 28.1692 104.605
36.4725 28.8729 104.736
34.5219 27.5116 106.108
35.4269 27.2878 101.011
36.1947 29.5004 105.948
38.0874 27.2893 108.433
41.8499 29.1723 108.717
35.3166 30.5728 111.99
36.6048 26.8736 99.7573
32.07 26.6337 104.394
39.8126 29.4338 108.069
32.3204 28.3117 102.978
39.9977 28.1402 102.46
39.646 27.5515 105.095
36.183 29.7498 117.355
36.5244 29.3868 109.873
40.1277 28.6161 103.557
38.6486 26.8355 101.17
41.0924 30.7754 111.721
34.4297 28.0821 113.662
43.5087 30.6724 113.423
38.6023 28.5689 107.137
38.1039 27.9918 108.103
43.056 29.5349 110.892
37.7432 29.2279 106.023
38.795 27.3729 109.233
37.6028 28.0913 107.96
44.8147 29.4044 114.343
36.0536 30.9009 107.75
39.7853 28.765 110.746
40.3967 29.1772 108.432
38.1474 27.257 101.515
38.7696 25.4631 101.214
36.6116 28.7035 111.126
39.0789 28.3626 116.438
39.5779 30.4166 108.764
35.2926 29.5742 113.514
39.1078 29.2647 107.665
38.3138 29.4775 110.114
37.1886 30.4899 105.667
38.1359 25.9595 108.192
38.4847 28.4214 105.371
43.3919 28.0321 107.884
37.0588 28.4094 108.553
41.1586 27.9073 108.045
36.9598 28.8689 109.477
46.3705 27.345 102.565
39.946 27.8614 105.909
44.3674 27.1999 109.464
44.7807 29.3371 112.068
43.2751 27.365 105.602
40.0219 28.2316 105.662
41.3496 26.8881 107.033
48.7256 28.4843 104.919
45.4533 26.6948 103.094
43.3922 27.7067 102.025
48.5005 27.8743 108.069
44.776 29.4586 110.605
42.7834 28.1767 111.783
41.5781 27.4198 105.625
41.5147 29.6941 115.446
44.4816 29.936 111.417
40.8945 28.2222 115.614
44.0761 29.0816 102.983
45.0651 26.0345 98.4808
40.6252 26.2435 106.05
45.4924 28.0968 110.86
43.6924 27.8437 111.067
43.7926 28.0215 116.11
44.7973 29.3577 111.227
43.6818 28.3513 102.478
39.765 28.6655 105.961
39.231 26.8236 109.528
42.6436 27.9537 103.509
42.3442 28.6544 113.194
45.7922 27.1253 109.691
48.8904 29.1121 105.734
43.9525 28.8501 108.074
44.0835 27.4113 107.09
39.9839 27.5551 111.699
45.5027 28.2764 109.319
43.1746 28.5495 111.15
46.5547 28.4754 102.966
45.9665 28.1031 113.705
41.9205 26.6305 109.488
44.3755 28.4859 108.693
44.9947 28.3343 108.578
41.9471 29.4202 111.619
45.0078 28.0105 109.491
43.4475 27.7177 103.887
47.286 25.9088 105.371
45.3242 27.8224 112.183
50.0437 27.8892 103.39
45.5193 29.2922 112.176
49.3829 28.2673 109.045
39.7305 28.7081 109.203
51.0187 28.3333 112.494
44.863 27.5511 108.026
43.958 27.7564 106.79
45.7869 27.5931 106.636
47.0865 27.7541 107.969
39.5192 27.2124 106.531
43.0853 29.6469 109.838
46.4231 26.6118 108.087
40.9029 28.0654 110.667
46.5415 28.5179 112.342
45.0765 28.4662 114.893
37.843 31.289 114.347
42.0916 27.6957 112.695
38.7958 29.6327 113.105
40.7225 27.7032 111.094
40.7252 27.1251 111.041
46.098 30.353 111.743
42.2886 28.4267 115.735
42.1092 29.7306 117.783
42.7001 29.356 110.862
43.951 28.3335 116.222
44.4591 26.8326 102.895
40.6035 27.5458 110.784
39.9145 27.6805 108.665
46.0609 29.1975 112.353
41.4178 29.0253 109.967
44.5263 26.7845 108.008
42.2789 27.5682 111.161
42.4331 30.1103 109.667
41.5887 27.0047 107.157
47.813 27.1604 115.848
34.7233 29.0572 113.894
44.803 28.6988 112.25
35.9511 28.8843 110.538
39.1892 27.9829 104.592
37.6861 29.1243 111.532
42.8576 26.7421 114.468
42.8237 27.3021 103.273
42.1105 26.4402 106.511
40.4308 26.9639 103.149
32.9524 27.6555 109.673
37.7921 29.5501 104.403
38.5049 26.3149 112.96
35.604 27.705 103.124
38.9454 27.1117 117.321
39.6353 28.5071 110.894
38.096 26.1684 105.237
40.7315 27.3046 107.154
37.3563 28.8585 112.083
36.8483 27.2584 107.273
39.4115 28.0287 112.783
42.6889 27.9477 110.714
40.956 27.8388 107.131
34.1759 26.9479 103.376
37.9911 27.0676 111.556
30.8436 28.0654 112.055
32.757 27.6327 109.995
34.0233 27.6292 113.267
42.1125 28.6094 111.522
36.535 29.5452 114.067
39.6664 26.776 106.293
32.7743 27.1361 109.883
33.0386 27.5719 99.3356
34.4643 27.6613 115.861
32.0378 28.3477 106.744
40.1286 26.8227 115.625
35.1227 29.4103 109.906
31.4603 29.1831 113.021
32.6055 27.0791 116.474
35.8031 28.7271 111.506
37.2163 28.0491 104.71
32.869 27.6372 111.33
33.1015 27.4115 114.375
32.4863 28.7624 111.855
37.6678 27.7243 108.347
32.3383 27.0541 112.138
33.4123 28.9419 111.762
31.9359 28.1915 109.847
36.4739 25.4184 106.72
34.2258 27.3548 101.888
40.0417 26.9352 114.484
34.8972 30.485 116.014
35.4808 28.1391 109.269
33.8729 27.4752 108.518
36.8399 28.6917 112.16
35.1923 28.3576 115.304
36.9463 28.0124 109.995
36.693 28.4261 109.746
38.5614 26.9987 114.615
38.1464 28.8273 112.625
36.4519 28.2192 107.303
34.5248 27.4662 114.4
35.5258 28.251 107.955
32.5333 26.8064 108.086
35.8833 26.7671 108.762
34.6385 28.6637 114.225
33.02 28.6414 113.633
35.145 28.4703 107.062
37.3862 27.5075 110.009
39.063 27.1946 106.39
34.5395 27.8466 110.51
35.5831 27.8834 112.354
36.3394 27.7815 106.71
35.3042 26.8208 110.909
37.967 27.7828 113.728
35.5827 27.3174 110.047
40.4078 29.6596 110.218
40.0184 27.844 113.563
43.9219 28.7533 113.181
36.6948 27.3624 109.768
38.0655 28.8179 119.307
40.4667 29.5651 113.438
44.254 28.2396 111.854
36.3562 27.2599 108.143
39.8023 26.4346 105.366
38.9346 28.0594 119.03
39.9096 27.2286 110.373
39.7109 26.8885 104.714
37.3399 28.3662 110.748
36.5843 28.0497 109.391
43.14 28.0279 112.941
41.1263 28.3603 113.959
36.3203 27.6181 110.082
39.8568 26.7151 109.168
45.795 28.557 110.365
43.0785 26.8217 107.491
39.9891 27.6488 107.739
39.8479 26.4963 108.972
41.9437 28.5184 108.545
37.8175 26.7709 109.616
47.9349 27.4317 114.571
43.2212 29.7038 104.423
42.7866 27.0206 114.44
42.5385 28.169 108.899
43.4039 28.1808 115.266
44.2048 28.6911 111.52
49.3388 27.7087 120.832
46.0811 29.3571 118.198
50.8584 30.2471 114.452
49.2323 28.5957 111.978
62.8452 26.664 118.169
54.2808 30.5586 115.744
50.9143 0 0