# pn-170911/CsIIA-39-CsIIA-1280-1959.psd
# Power spectrum* (dif=0,1,2) (really just |FT|^2)
# NOTE: only the first half! (symmetric)
# weeks: 1280-1959
# 1870 clock-days, 890 excluded
# PSD: 1441
21180.3 1.05675 0.0596271
3.64297e+06 57.3648 0.0365039
1.77289e+07 379.134 0.0422279
2.97265e+06 110.934 0.042042
3.19605e+06 228.115 0.0535085
1.14507e+06 110.795 0.0509637
813708 113.354 0.0563449
551808 108.425 0.0617574
449722 113.928 0.0702645
335507 105.725 0.0783098
277030 105.555 0.0864987
234824 105.185 0.0967416
191540 106.255 0.105474
171738 111.407 0.124542
150401 111.965 0.140856
124044 107.529 0.153586
114562 112.861 0.177719
96554.2 107.314 0.186832
89652.6 108.825 0.203813
75905.5 103.874 0.211498
69456.4 105.266 0.23575
60802 101.44 0.252567
58449.4 106.848 0.284905
52383.4 106.665 0.301308
50022.6 109.703 0.336486
44469.1 105.594 0.344556
41062.3 105.214 0.370081
39260.1 108.472 0.414355
35489 102.933 0.429612
32542.1 103.953 0.443288
30515.5 102.997 0.473271
27871.4 99.9643 0.490882
26658.5 103.296 0.535241
26709.8 107.87 0.586299
24006 104.74 0.605854
22814.5 103.97 0.640759
21410.7 106.341 0.703773
19961.2 102.092 0.705454
18762 99.8582 0.714844
18583 104.479 0.797972
17627.7 107.093 0.857015
16168.3 102.42 0.845391
16351 109.825 0.958937
14916.4 105.91 0.958354
14141.3 101.156 0.957831
13844.8 105.925 1.06775
13280.8 106.862 1.1126
12401.2 105.223 1.13359
11868.6 104.743 1.17803
11945.7 108.959 1.28261
11306.9 109.974 1.34043
10447.5 103.531 1.31867
9768.52 102.195 1.34213
9754.43 103.627 1.40614
9283.18 103.475 1.47251
9201.6 104.966 1.53607
9088.71 108.188 1.64752
8383.9 103.21 1.62863
8538.38 108.241 1.76949
7787.32 102.43 1.73088
7418.84 101.097 1.76284
7174.1 101.89 1.84009
7418.96 105.908 1.9649
6956.62 103.3 1.98861
6710.45 102.343 2.03373
6695.79 108.891 2.20466
6403.18 104.108 2.18268
6296.57 104.632 2.27753
6182.4 108.397 2.43133
5607.93 100.995 2.3212
5558.81 104.214 2.4652
5358.79 101.062 2.46034
5488.94 106.582 2.67429
5075.03 99.668 2.56051
4884.02 102.842 2.7212
4928.18 103.273 2.79008
4792.46 106.761 2.95708
4600.44 101.338 2.89302
4418.19 101.697 2.97826
4501.19 104.229 3.12987
4376.2 106.083 3.25206
4355.79 106.226 3.35148
4043.62 103.631 3.33446
3938.83 101.958 3.35792
3830.17 100.487 3.41366
3752.11 102.385 3.55153
3570.26 98.017 3.4796
3658.91 103.712 3.73658
3529.71 102.606 3.81283
3454.03 101.256 3.80409
3420.77 103.332 3.99534
3278.04 105.515 4.18953
3248.2 103.498 4.20078
3168.79 102.491 4.21292
3006.06 100.333 4.24141
2989 99.5963 4.30908
2916.96 102.183 4.49374
2940.2 104.095 4.67489
2996.05 106.619 4.89517
2824.02 101.263 4.72301
2748.54 103.43 4.89777
2511.53 98.6769 4.81983
2624.39 100.051 4.96409
2597.78 99.8345 5.03098
2515.26 97.9206 5.05008
2481.82 100.051 5.27504
2379.43 100.672 5.3753
2433.1 104.367 5.68876
2298.31 101.208 5.62995
2247.41 98.2355 5.58121
2162.7 96.5214 5.54399
2236.79 103.335 6.07053
2136.69 99.6792 5.94963
2117.63 99.328 6.05936
2133.42 99.9263 6.18261
2066.57 101.135 6.38301
2002.08 98.7927 6.35054
1875.08 95.5287 6.2192
1868.46 98.4855 6.5094
1918.83 101.699 6.83401
1849.04 98.8175 6.76116
1838.38 98.6598 6.91868
1788.54 96.9844 6.81867
1734.07 97.1292 6.99587
1705.07 98.5454 7.1854
1630.28 94.595 7.03907
1664.34 96.6837 7.28551
1659.32 99.7723 7.67891
1669.56 100.062 7.7642
1605.56 97.4075 7.71789
1635.16 101.701 8.19097
1569.86 98.6488 8.02332
1541.89 100.512 8.32426
1470.03 96.5556 8.07111
1465.97 97.536 8.3024
1471.58 97.4688 8.45272
1398.05 95.7733 8.41558
1403.02 96.0958 8.53217
1393.04 97.0369 8.78841
1369.82 96.2819 8.7891
1298.25 94.3615 8.73433
1275.28 95.8399 9.11153
1314.58 99.3496 9.43969
1305.82 99.5191 9.62054
1250.19 94.0763 9.23719
1251.69 95.5501 9.48538
1279.15 97.5837 9.83606
1174.15 94.5565 9.71634
1172.84 95.049 9.81028
1176.05 99.6004 10.4823
1146.47 93.7499 9.95016
1103.38 93.449 10.0924
1128.53 96.0458 10.5061
1105.71 95.2657 10.5795
1084.68 92.7273 10.383
1052.49 93.1738 10.5347
1069.58 96.3902 11.037
1029.59 92.5791 10.7692
1015.99 94.8962 11.2226
1015.39 92.9956 11.1291
988.638 92.1092 11.0877
1022.37 96.7244 11.8296
1008.6 96.1271 11.9303
971.591 94.112 11.7385
989.175 97.0822 12.2662
939.916 95.9042 12.3348
908.484 90.6635 11.7749
914.238 93.9727 12.3743
905.455 92.5528 12.3072
861.846 89.0075 12.0448
872.886 91.3646 12.4895
881.457 93.807 12.8992
861.845 95.1279 13.1921
820.552 90.5552 12.7685
849.1 94.2287 13.4452
815.296 93.1463 13.5167
848.751 94.2832 13.7535
809.597 92.207 13.5831
811.845 90.9457 13.5974
776.495 89.8718 13.5959
741.767 88.4991 13.5278
773.555 93.4913 14.3991
764.714 92.8331 14.5002
761.355 93.0018 14.6504
761.272 92.514 14.6977
767.318 94.2334 15.1458
707.624 86.926 14.2317
701.852 90.0913 14.9229
712.963 92.1933 15.2398
702.975 89.1369 14.8584
652.593 84.8158 14.4222
665.85 89.4008 15.3541
701.148 92.8673 16.0066
672.237 88.8683 15.4514
636.553 88.05 15.6549
645.042 89.5562 15.9824
613.485 84.7541 15.2858
622.594 87.8919 15.9238
622.13 86.4092 15.9293
627.579 89.2797 16.687
603.949 85.9157 16.0634
617.886 90.57 17.1246
597.509 87.819 16.8432
584.205 85.1132 16.457
569.531 86.6351 16.9171
596.321 90.1682 17.6417
558.888 87.5938 17.5932
577.459 89.7219 17.9986
586.204 89.3452 18.0665
561.419 89.2501 18.1079
546.909 85.8013 17.7854
559.602 87.832 18.2944
538.257 85.8775 17.9462
529.365 86.6647 18.4445
512.268 86.1755 18.4982
501.369 82.273 17.8833
513.626 84.295 18.359
514.013 88.2479 19.3293
511.048 84.4899 18.868
496.35 86.3879 19.3185
517.609 88.1697 19.9912
490.158 87.2293 19.8695
491.405 87.4521 20.3221
493.238 86.8219 20.1616
488.893 85.8461 19.9917
460.953 82.6586 19.5983
461.445 84.6298 20.2617
457.934 84.3825 20.2073
463.856 86.5424 21.1456
446.706 81.3169 19.9067
444.956 81.8024 20.2774
450.023 79.8273 19.7216
443.647 84.2272 21.2837
428.979 83.2594 21.0546
429.92 83.8766 21.2998
424.872 83.8664 21.5174
424.075 82.5189 21.4843
431.454 83.5036 21.8624
420.345 84.361 22.3712
409.7 82.6763 21.9355
407.05 82.2514 22.0542
392.736 81.0028 21.8912
411.154 86.2601 23.3876
399.749 83.0058 22.9538
407.944 85.6628 23.7265
391.857 81.4115 22.584
377.072 80.9545 22.7047
390.728 82.6822 23.546
383.591 82.3932 23.5839
383.557 83.3896 24.123
365.147 79.9694 23.1938
371.05 82.0852 24.0993
360.221 79.8004 23.4132
359.336 80.0895 23.908
355.647 79.1979 23.6105
366.704 82.3869 24.7966
340.569 77.3811 23.6346
346.556 80.479 24.3444
348.954 82.324 25.4605
341.303 85.1934 26.4812
346.642 80.3164 25.2825
331.78 79.0573 25.076
330.095 78.1481 24.8201
338.78 83.1263 27.0201
327.52 78.1507 24.8117
320.922 76.8959 25.0231
320.358 79.0772 25.7521
317.806 78.3723 25.944
322.721 80.2756 26.6284
311.683 78.699 26.4146
310.087 77.5412 26.2975
300.068 75.2289 25.4461
309.006 79.2271 27.0226
303.021 79.5454 27.4703
309.804 79.3381 27.4833
292.688 75.9506 26.7006
304.789 77.6427 27.1302
302.374 77.7717 27.5424
289.369 73.4113 26.6154
291.714 75.2076 27.0962
289.006 75.8828 27.1567
289.619 78.6105 28.6691
284.569 77.067 28.414
264.415 74.5692 27.9058
286.204 79.1158 28.9563
268.903 74.5754 27.9354
271.349 75.1702 28.3071
260.784 73.4096 27.8431
257.834 73.2821 28.0047
263.15 75.8939 29.4309
267.978 76.9447 29.6993
265.589 74.9336 29.2331
262.774 73.4306 28.9056
266.793 77.9715 30.9498
256.448 74.0467 29.6062
251.519 73.838 29.3649
251.54 74.3857 29.9977
248.563 74.7622 30.5589
250.773 74.487 30.0746
240.072 73.7136 30.2585
246.19 74.9685 31.0946
236.606 72.022 29.9851
235.186 70.7761 29.624
235.161 72.7827 30.8016
232.372 71.0604 29.7509
230.621 71.0908 30.3113
223.194 73.0351 31.3782
230.425 73.7803 31.6443
232.067 73.7509 32.7091
233.441 73.7895 31.8847
226.443 73.1059 32.31
229.101 73.5055 32.5736
218.666 72.0475 32.2484
230.393 74.5332 33.3221
229.948 72.5052 32.9077
222.323 73.4946 33.0249
212.146 71.1437 32.5355
218.144 72.3852 33.4305
214.779 72.1966 33.2572
207.54 69.4005 32.6687
206.799 69.9158 32.4267
206.432 73.5723 35.0365
216.536 74.131 35.1412
208.761 72.5621 34.4004
208.828 73.2973 34.9384
203.332 71.0365 34.7786
202.484 69.7076 33.5304
199.3 68.9273 33.3869
196.878 69.4679 34.0058
194.164 70.2775 34.9299
203.442 72.6757 35.5314
191.526 70.0971 35.3716
187.517 67.3834 33.7863
188.641 68.5619 34.5661
185.986 69.9833 35.5374
185.407 69.0349 35.2125
184.635 69.8689 36.3049
183.868 69.6955 35.7761
179.966 67.0322 35.0531
178.342 68.0344 35.3288
181.215 66.6399 34.8302
175.263 67.2009 35.987
176.589 67.8479 36.2542
171.932 65.1653 34.8084
175.897 70.0567 37.4418
177.016 69.8496 37.6004
170.544 66.46 36.4837
173.709 66.6873 36.512
171.758 66.9343 36.6836
173.809 67.9604 37.8911
173.237 67.5358 36.9798
176.964 69.6551 39.4456
180.809 72.043 39.9883
165.485 63.8798 36.0345
167.684 67.0917 37.7766
163.258 66.3408 37.9072
162.6 63.8084 36.5488
156.149 65.5873 38.271
163.032 67.6721 38.7357
163.634 67.7754 39.2194
164.66 68.3525 39.9846
156.585 65.2529 38.6214
157.07 64.5182 37.8648
156.753 66.239 39.8033
161.009 68.1686 40.2076
157.59 66.2542 40.426
150.964 64.7999 39.3192
151.695 66.0247 40.1418
147.108 63.5 38.832
150.229 63.5294 39.1294
147.295 65.0742 40.0724
147.863 63.659 39.083
138.156 60.4851 37.6881
148.319 66.044 41.522
148.055 66.0841 41.988
142.873 63.4979 40.0506
139.465 60.1887 38.3246
143.047 64.1329 40.5262
133.768 63.3409 41.3819
136.316 59.681 38.7631
134.134 62.6794 40.8472
138.185 62.0234 40.4117
131.621 60.6205 40.0291
134.495 62.0263 40.7797
140.71 61.8124 40.3601
132.454 59.1768 39.2034
129.832 61.2043 40.889
129.173 59.0812 39.6306
129.545 59.5289 40.0155
128.613 61.6137 42.5169
130.595 60.5951 41.1743
134.884 65.3455 44.8792
132.699 62.8533 43.2278
126.767 59.6293 41.0284
126.12 61.5728 42.492
129.329 62.2637 43.8129
125.01 62.8642 43.9072
127.33 62.4518 44.3465
127.423 61.3761 43.1535
124.852 61.4622 43.2267
123.288 61.3171 43.8504
123.944 61.4934 44.1043
119.808 61.8606 45.0374
122.488 59.5126 42.7799
121.118 62.7803 46.0471
120.309 57.9267 42.2645
114.912 58.9626 43.033
113.377 58.0095 43.063
113.47 57.3742 42.6656
120.514 61.2761 45.0965
119.094 60.6437 45.5926
115.33 59.4676 45.0175
113.763 59.3949 44.7433
112.458 60.088 45.2186
107.194 57.1008 44.0589
109.769 58.8038 44.9088
113.864 59.2282 44.9682
112.234 59.7302 46.3962
106.372 57.1792 44.4285
110.707 58.9421 45.4099
109.419 57.9355 45.2083
108.194 58.0821 45.3691
105.548 58.0425 46.588
107.768 56.4236 44.4352
106.149 57.3608 45.3797
107.121 57.8616 47.0846
106.14 57.931 46.031
104.08 56.0246 44.7895
102.514 56.4229 46.5166
104.246 57.4318 46.8235
99.6559 56.2368 46.1251
101.794 54.8177 44.6825
100.822 56.713 46.8976
97.8831 55.2703 45.6531
98.4262 55.4304 46.1497
97.2513 56.6125 48.0504
100.233 56.749 46.6367
98.5581 54.721 46.549
97.4013 55.8038 46.9936
94.0595 55.4075 47.1683
98.3811 57.3201 48.8193
98.9847 56.4114 48.7747
98.6511 56.6973 48.3125
95.6911 54.5459 46.5865
97.2931 56.1202 48.6228
94.3684 56.135 49.0429
95.4216 55.9902 48.8921
90.1051 54.1889 47.6936
91.5805 56.1968 50.205
90.9891 54.8802 48.6073
90.6904 55.7692 48.9636
92.5329 56.9 50.2896
96.2924 57.0974 51.7076
92.7615 54.9314 49.4109
94.7424 55.9953 51.0389
91.0364 56.5302 51.3892
90.2012 53.8316 49.197
87.9051 54.1086 50.0196
86.7994 53.1075 48.7086
87.6949 53.0652 47.7146
84.1602 54.1415 50.4583
88.4232 52.235 48.3359
89.0148 55.2664 51.5382
85.6937 53.3084 49.1
84.0507 53.4685 51.5246
88.8798 53.7913 50.7658
87.2586 55.333 52.0256
84.1033 51.1528 48.6724
84.8441 53.4579 51.0067
84.0472 54.1506 52.4211
82.926 52.1776 50.4577
83.5503 53.2584 50.6845
83.4573 51.7267 50.2452
83.0725 51.5334 49.71
79.8356 50.0926 49.7874
81.7682 52.5017 50.3995
79.2738 52.0181 51.1519
77.9303 50.2517 49.673
76.9604 49.6203 49.3042
76.8071 50.7712 51.3523
82.2454 51.1479 50.4787
77.1621 50.3537 50.5327
75.4979 49.5895 50.5995
78.4529 51.6236 51.9135
76.5772 50.4081 50.8083
77.9205 52.6381 53.5103
77.8275 51.2413 51.748
75.6661 49.6022 51.2548
76.8597 50.6641 52.7989
74.5522 50.2678 51.1455
72.9121 50.2349 52.5365
73.9838 48.7578 50.4387
73.893 50.3631 53.4587
74.0752 51.6988 53.2556
71.1662 50.0545 53.458
72.4946 48.7582 51.9184
72.3868 50.4953 52.8887
72.159 49.308 52.7139
74.7708 50.5274 54.1259
71.2885 48.6771 52.2437
73.4505 50.6213 54.3382
69.472 49.1265 53.294
70.0257 48.6864 52.2966
68.9221 46.3184 50.8517
70.8171 49.0802 52.9344
69.2047 49.1876 53.6962
69.8695 48.8254 54.4098
68.9752 49.1443 54.4356
68.8869 48.9953 53.656
67.2738 48.068 54.2831
67.0387 47.7614 53.3493
66.4443 48.8044 53.5347
65.5274 46.1342 52.1474
64.9584 47.7416 55.156
64.7502 46.7928 52.8306
65.1525 46.9012 52.8157
64.6924 47.574 54.2252
66.3237 48.1208 54.2369
64.6582 46.1514 54.045
65.1643 47.4696 54.946
65.1836 47.1184 53.9225
61.8849 47.903 55.2783
63.8773 47.8634 55.6408
65.1532 48.8795 57.1179
62.305 46.9219 54.8531
62.0967 46.2969 55.1135
62.2194 46.7553 54.5602
62.0359 45.846 54.8228
63.0774 46.3044 54.2197
62.0087 48.113 57.3221
60.525 45.1889 54.6636
64.1024 46.0284 53.6477
60.4196 47.9543 57.463
59.4431 44.8908 54.5689
60.0204 46.0092 54.8419
57.7766 44.6465 54.3276
58.7831 44.2817 54.484
58.6361 45.8599 56.7623
58.2338 46.5544 57.0541
58.6588 44.6405 54.2196
59.4894 47.3594 57.2624
58.267 46.1575 57.0837
54.4914 41.9282 52.2978
57.1058 44.0972 54.5256
57.7446 45.7178 57.3964
56.4544 44.083 55.5029
56.8597 44.6349 55.7772
55.787 43.564 54.1828
54.223 44.5462 57.0137
54.9851 43.1425 56.121
55.1878 43.1124 54.958
57.0154 45.488 57.3848
55.3257 44.3947 58.0949
55.0767 43.9972 56.2702
54.8443 44.3445 56.4644
52.8797 43.9672 57.6476
54.6815 43.9912 56.3416
55.1277 43.5469 56.7889
53.4209 42.327 55.8533
52.4553 44.3415 58.5514
54.5621 43.4012 58.2684
54.7734 45.0506 58.7386
52.9801 43.0721 57.2567
52.9546 43.5093 57.4325
53.512 43.3737 58.3
53.5162 43.5026 56.2605
51.2369 41.2804 57.0955
52.3958 43.3472 58.8249
53.619 42.7714 56.5798
50.7741 43.8884 59.5224
51.7641 42.8399 57.9793
51.6817 43.0237 59.1978
52.1413 42.1849 56.8639
50.1518 43.1923 59.8805
50.5083 42.45 58.2121
48.3472 42.7876 59.1589
49.8515 41.1435 56.905
48.6536 40.8619 55.77
47.8149 41.5143 58.7206
50.9631 42.8935 58.7596
49.9517 41.5072 57.6888
47.2384 40.8272 56.9706
48.4518 40.8809 57.7155
48.7081 42.2203 59.1727
48.5395 41.275 59.4413
46.7617 41.0924 58.8408
47.8946 40.5433 57.85
50.3827 42.8469 60.3131
47.6288 40.1396 57.6964
46.6041 39.9714 57.5415
47.6063 41.5923 59.2978
47.1663 40.6408 58.8572
48.7337 42.2215 61.8186
48.5351 42.2211 60.1566
46.7708 41.6584 60.018
46.8915 40.8874 60.614
45.1673 39.7725 58.1213
45.8482 40.5805 60.5159
45.9272 39.9336 58.3378
44.1645 39.3906 58.2388
44.7503 39.4087 57.4469
44.7889 39.1967 57.4718
44.1595 39.5942 59.9232
43.6443 39.0763 58.0726
45.0476 40.6951 59.8681
43.5192 38.6468 59.0345
44.2784 40.4347 61.153
44.1325 39.8166 59.8215
43.5812 39.3824 60.5736
42.9234 39.0479 59.2635
44.8807 38.693 58.7088
42.355 39.6265 60.7882
42.858 38.8918 59.054
41.5883 38.0756 59.447
45.1402 39.832 60.034
42.0418 39.0696 60.98
43.9103 38.1091 59.0045
42.5138 38.5066 59.1821
42.185 39.4097 61.7379
42.6078 38.9039 60.2818
41.531 37.2864 58.4361
41.8988 39.0006 61.4828
40.8671 37.6558 59.1121
40.4676 37.9384 60.6871
39.3159 37.6435 58.9815
40.1311 37.1669 60.4993
42.6684 39.4633 62.5611
41.5227 38.7046 60.8092
40.3613 37.5938 60.5453
39.5598 37.2739 60.3068
40.5728 37.8094 60.2651
39.8517 37.9503 62.1388
39.4384 38.0596 61.8061
40.1314 37.7941 61.6466
40.1577 36.441 58.0982
40.1987 36.7578 60.285
38.8239 37.7974 62.4417
39.2048 36.6126 58.6933
38.1866 36.3102 60.0804
39.4299 36.9138 60.9995
39.8349 36.9293 61.1855
39.1927 37.0711 62.2181
37.883 35.1706 57.6982
37.8036 36.3161 59.7043
37.8256 37.1754 62.3902
37.0345 35.7033 61.0623
40.1099 37.6087 61.8277
38.407 37.0804 63.4679
37.864 37.3364 63.3991
37.0411 36.0535 60.5072
37.4405 36.1405 60.6152
36.7783 35.3666 60.1622
35.7728 35.3434 60.9656
36.8685 36.5035 62.452
37.9486 35.3973 61.1384
36.5527 35.9815 61.0462
37.828 36.3347 61.921
36.0013 35.3853 62.0093
36.0955 36.1354 62.8242
37.0054 35.8781 60.3473
34.509 35.7229 61.8493
35.9066 34.9541 60.8769
34.7794 35.7969 62.2578
34.9764 34.9502 62.6648
35.8773 34.6487 60.6802
35.7843 35.9305 64.0329
35.5829 35.4926 61.6078
35.7798 34.4861 61.858
34.3835 34.6109 61.851
35.2938 34.6477 62.5935
35.6668 35.5148 61.2213
34.9723 36.2257 63.6169
34.3787 35.0081 62.8789
35.0914 35.6137 61.6759
33.0338 34.5819 63.1218
33.8432 33.7311 61.357
34.2065 34.8877 63.6745
34.1887 35.9566 66.1966
34.3373 34.9487 63.2094
33.785 33.8582 62.6736
33.8292 35.5671 65.0828
33.9666 33.7598 62.577
33.539 34.6573 62.9515
33.2512 35.1316 64.0549
32.7776 33.3027 61.9838
32.983 34.7145 63.0151
32.2971 33.6038 62.4725
32.0821 32.8472 60.4036
31.987 32.8509 62.3079
32.3225 34.57 63.8406
32.8833 33.0348 61.7922
32.7762 34.6721 64.1678
31.6487 33.3501 62.7811
32.499 34.8091 64.2605
32.3361 33.1405 62.4619
31.1182 31.2883 59.5044
31.0698 32.3173 61.5613
31.0979 31.657 60.2221
30.4422 31.8562 61.6775
31.5473 31.8918 59.7335
30.1418 32.4968 63.9521
31.1641 31.6471 60.0394
31.485 33.1729 63.1687
31.0122 32.1856 63.1008
31.3015 32.3621 61.4453
30.8409 31.8332 60.6851
30.0706 33.441 65.812
30.9492 32.61 63.6525
30.5469 32.2239 63.1553
30.342 32.4814 64.079
30.7979 32.3525 60.5849
30.3597 32.308 64.8332
31.0619 32.7283 62.9799
29.5424 32.5882 65.6926
30.5116 33.1402 63.403
30.4203 31.2804 61.7851
29.392 32.587 64.079
29.8366 31.9145 63.9708
29.8921 32.0313 63.835
29.4821 31.6026 63.852
30.1255 31.8552 64.2302
29.6077 31.1745 62.0082
29.1868 30.1429 60.6472
29.3646 31.1771 62.8519
28.6124 31.4135 63.3392
29.3725 32.1496 64.3378
28.3153 31.171 62.4726
28.3112 29.7032 60.7747
28.8146 31.4954 62.9605
29.2267 30.4996 63.7625
27.8796 30.7239 63.0853
29.7639 31.4974 63.4563
28.9922 31.6892 65.0889
27.4697 30.9466 62.6155
28.7008 31.6354 64.8364
27.8541 29.9516 62.8013
28.0507 30.3159 63.7017
28.6708 30.9135 62.9495
27.494 31.842 65.9335
28.0949 30.529 63.5228
27.9208 30.8488 64.9592
28.6742 31.4426 65.3368
26.7986 29.6904 61.1157
26.236 29.4168 62.7213
26.7122 31.0373 64.9392
27.1805 29.7414 64.1965
26.8138 29.7948 62.5574
26.3253 29.4857 62.5369
26.4142 28.9536 61.4644
27.0309 28.4309 60.3184
27.3236 30.992 65.3898
26.3921 29.1049 63.7093
26.2856 30.0759 62.9256
26.6073 29.6991 64.7109
27.2034 30.4481 63.6225
26.3009 30.2608 64.5646
25.8216 29.3032 65.2804
26.2441 29.1258 64.0843
26.0966 28.2689 59.5905
25.2979 27.4795 60.9498
25.3897 28.8897 63.3814
26.461 29.8854 63.2579
25.842 28.475 61.9194
25.8903 29.0686 63.4337
25.892 28.0293 61.3924
25.7832 29.5603 63.364
24.4065 27.6051 63.6866
25.5945 29.4498 65.4164
25.7772 28.8758 62.8467
25.7914 29.7967 65.5191
25.5848 27.6934 61.2119
25.1048 28.3103 63.3758
25.2746 28.8982 63.8379
25.2772 28.8094 64.1738
24.7035 27.5689 61.7246
24.4266 27.3417 61.0543
25.4907 28.6163 63.3791
24.6901 28.954 64.1488
23.7959 28.7801 66.2768
24.986 29.6357 65.8925
24.586 29.23 64.9834
25.2268 28.1317 65.0824
24.4264 28.0081 63.4791
24.2007 27.9842 62.614
24.2959 28.2541 65.6623
23.4894 27.3504 63.0463
24.9029 27.3837 62.5721
24.4009 27.682 64.0238
23.5618 27.2912 64.1731
24.4125 28.9072 66.0522
24.2984 28.3336 64.2835
24.5127 28.5937 65.5194
23.6226 26.9297 59.7963
22.4015 26.6181 62.2001
22.6202 27.1371 63.9575
23.179 27.0487 62.9652
23.3718 26.685 62.6817
23.2785 27.7721 63.1985
23.233 26.8155 61.9908
22.0845 25.7785 62.53
23.1131 27.7558 64.534
24.3097 27.4513 64.3227
23.6734 27.4434 64.6507
22.6192 27.8299 66.8346
23.5089 28.1192 64.4906
22.7248 27.2432 65.7945
22.7774 27.4919 65.0227
22.3903 26.7949 63.4858
23.1312 27.7717 66.8552
23.0023 27.0593 63.2873
22.2463 26.5003 63.102
22.5286 27.2972 64.4184
23.4383 26.3975 63.144
22.451 26.5725 65.5031
22.8445 27.3862 64.6942
21.9022 25.4125 61.3216
22.1052 25.8798 64.6212
22.577 25.7774 61.6779
22.4815 25.8977 63.9775
22.0438 25.6825 61.6708
22.5052 27.0864 65.6665
21.8325 25.9319 62.5135
22.6702 26.4911 63.9559
21.4122 26.4455 64.7689
21.2633 25.0079 61.0583
21.3666 25.1436 63.6474
22.3673 26.1853 63.687
21.1518 27.5799 66.7829
21.3901 24.9338 62.4578
21.7357 26.046 64.7713
20.826 25.457 62.0456
21.5197 25.3749 63.8863
21.3244 26.2152 64.5738
21.2217 24.5371 61.3512
21.1943 26.0597 61.9031
20.2139 24.3734 62.6489
21.0641 25.0127 62.3634
21.7379 26.8413 66.1477
20.9958 25.4032 64.4265
20.9738 25.4772 64.1714
20.7858 25.4124 64.3439
20.5977 24.4268 61.0482
20.3109 25.1489 64.4561
20.8443 25.659 65.6486
21.5222 25.5842 64.1257
20.8948 25.4895 64.4691
20.2434 24.1982 60.8474
20.7982 25.6557 64.71
20.3907 24.4323 63.0556
20.4706 25.7608 64.5582
20.7683 24.3937 62.5485
20.3978 24.9277 62.6908
19.7455 24.3645 65.524
20.8559 23.7892 59.9752
20.074 25.9883 66.1674
20.9289 25.5952 65.7314
19.7055 23.6277 61.4686
19.5241 24.7163 66.3984
20.3368 25.6533 64.0144
19.6046 24.0016 63.5782
19.9208 24.7011 64.3735
19.8056 24.6393 64.0137
19.8867 24.2709 62.6671
19.5669 24.0258 63.1669
19.8695 24.0587 64.1198
19.7382 24.0004 61.8091
19.3593 23.8714 61.7902
18.9143 23.1285 60.0197
18.7979 22.9605 61.8418
19.7377 24.9965 63.4212
19.6223 23.6469 63.4512
19.4921 23.3792 61.2265
19.547 24.1896 63.573
19.5517 23.5355 62.8147
19.1386 23.9444 62.6165
18.8136 22.7294 59.2617
18.6109 22.4198 63.3214
19.2777 24.7283 66.3052
19.3564 23.8773 64.7081
18.7397 23.8298 62.5926
18.2156 23.3886 62.5405
19.4798 23.2083 63.4841
19.034 23.5588 63.456
18.497 23.0637 62.0259
19.5485 23.6399 63.6712
18.3012 23.4445 61.4406
18.0735 22.0872 61.0388
18.9254 23.3066 62.4742
18.1559 22.6501 60.3464
18.4433 22.4476 61.5503
18.4337 22.8169 61.4065
17.7378 22.2021 62.5927
18.4112 22.9565 63.1413
18.78 23.9829 64.3818
19.2044 23.2584 61.8357
18.1108 21.996 59.7804
18.1147 22.7181 64.3507
17.6865 22.2324 64.3934
18.4547 21.993 59.5434
17.9586 22.8543 62.8259
18.0452 22.379 61.5877
18.2535 22.7207 62.4384
17.7872 22.9124 63.317
17.4927 22.0601 60.5926
17.3276 22.5726 62.7597
17.8188 22.2028 62.5172
17.3766 22.2925 60.5678
17.1861 21.4004 60.8713
17.1899 21.8382 61.082
17.7157 22.9457 63.7159
17.4784 21.9479 60.6371
17.5133 22.1157 61.5722
17.3249 21.5114 61.2591
17.3295 22.7185 62.4238
17.5853 22.1328 62.6767
17.4034 22.2423 61.5435
17.1643 21.9827 64.0778
17.2454 22.0488 65.789
17.6127 22.5607 63.7067
17.4129 22.4968 61.1222
17.208 22.076 63.5538
17.2869 21.3569 59.6569
17.1284 21.8316 62.466
17.4367 21.7724 62.2589
16.708 21.4386 61.5816
16.9378 22.1723 63.6249
17.0957 21.9764 63.023
17.0628 20.2223 57.972
16.775 21.4801 61.3431
17.3415 21.5676 62.3256
16.7086 21.7322 61.6141
16.5903 21.072 61.5182
16.6857 21.6485 65.5508
17.2721 21.3177 60.081
16.2873 20.8079 62.2241
16.6654 21.1109 59.5126
16.2851 21.1468 60.8494
16.3105 21.313 61.6954
16.2248 21.4135 64.3702
16.8508 20.9748 60.763
16.4255 20.1005 57.226
16.0187 20.4335 61.1392
16.9471 20.7006 60.2013
16.0301 21.1187 60.5808
15.9554 20.3908 62.0045
16.6745 21.326 62.777
16.5434 20.1915 58.4956
16.0653 19.8423 60.5291
16.2674 20.8773 59.5264
16.0254 19.7494 59.3638
15.6758 20.9531 61.1595
16.3598 19.9441 60.8063
16.1516 20.4777 60.2691
16.1345 21.4009 62.9099
16.1354 20.8148 61.4875
16.3234 20.3601 60.4392
15.521 19.8562 59.2963
15.8769 19.6654 59.9964
15.5479 20.451 62.2598
15.8653 20.3264 60.398
15.9534 19.6539 59.6045
15.9768 20.6597 61.7299
16.4518 20.4792 60.8563
15.5376 19.2038 57.7674
15.9517 20.7171 61.924
15.715 19.3523 57.5472
15.3444 19.7927 60.8774
15.3111 19.7084 60.2458
15.7443 19.9733 60.27
15.6609 20.6822 61.2464
15.3057 19.9413 60.3127
15.642 20.1323 60.2781
15.5427 19.5531 60.1656
15.6266 19.6728 61.4527
15.96 19.5616 60.0403
15.7435 19.3461 57.9012
15.7712 20.7252 61.7897
15.7494 20.2957 61.2548
14.9288 20.1861 61.645
15.0625 19.8103 60.99
15.0844 18.7914 56.6535
14.9658 19.3678 61.529
15.491 19.8691 62.0586
15.5123 19.7426 60.8678
15.2665 20.2049 63.2549
14.9491 19.1348 59.6931
15.3777 19.942 61.8711
14.8013 19.5431 59.3777
15.1562 19.1189 57.815
14.2757 19.0803 58.9323
14.7791 19.3878 60.1297
15.1645 19.3159 60.5829
15.2391 19.7124 61.9307
15.019 19.3932 62.3175
14.5053 19.3585 59.9892
15.0121 19.3144 60.4224
14.6875 19.7909 59.4976
14.7236 18.866 61.0392
14.9819 19.2876 60.1911
14.8458 19.6664 62.524
15.0405 18.8103 59.8812
14.5394 19.5669 60.6942
14.698 19.2495 60.1453
14.002 19.2281 60.5879
14.139 19.0877 60.0805
14.0077 18.038 56.9388
14.5346 18.1267 56.9386
14.4072 18.1284 58.1876
14.1405 18.5423 57.7491
14.2804 18.2542 59.1545
14.3468 19.467 61.5681
14.5223 17.3603 57.0809
14.394 18.991 61.6191
14.3465 18.1681 57.335
14.4094 18.6683 59.512
14.1968 18.7125 60.0387
14.6681 19.3147 59.9097
13.775 18.0676 59.5364
14.4095 18.8376 59.5406
13.6464 18.8773 59.3653
14.385 18.1022 58.5497
14.1491 17.6211 57.1503
13.8474 18.6571 59.9944
13.9449 18.2832 57.7377
13.7902 18.7335 61.6801
14.1095 18.5225 57.9474
13.9109 18.1584 60.1982
13.7873 18.0197 57.2078
14.1693 18.1196 58.6939
13.9054 18.7733 60.9069
13.9287 18.1087 59.2992
13.9001 17.7385 58.8615
14.2364 19.7331 61.8805
14.1403 17.5144 57.9244
13.3919 17.6063 56.9244
13.3554 18.2537 61.4869
14.1895 17.4431 56.3827
13.5402 17.989 58.9903
13.7891 17.8273 59.0072
13.7019 17.5202 58.6002
13.6011 18.5634 59.8853
13.2241 17.5776 57.117
13.2882 17.1398 55.5161
13.5452 17.0088 59.614
14.0017 18.7243 59.5094
13.2992 17.8268 59.816
13.6925 17.5239 58.0439
13.2509 17.5263 57.4948
13.2078 17.1613 57.4261
13.3774 17.6619 57.509
13.5741 17.2717 58.6008
13.4619 17.8405 57.7962
13.8564 16.9911 54.9453
13.3116 17.0197 56.6298
13.1831 17.9811 60.2408
13.7047 17.0545 57.4494
13.3694 17.1135 56.6496
12.8463 16.8072 56.5444
13.1404 16.7911 56.4052
13.501 17.321 57.2262
13.4285 16.8599 57.7097
13.3084 17.2251 56.4798
13.217 16.6151 54.5194
13.0302 16.5902 56.9848
13.1547 17.5815 57.4921
12.819 16.6286 56.3309
12.9583 17.035 57.1133
13.0147 17.1847 57.2987
12.537 16.1782 57.244
13.2896 17.1173 58.9526
13.6095 17.3828 56.2681
12.8788 17.1787 58.5443
13.3156 17.2021 55.6259
12.6946 16.6802 56.9324
13.1385 17.9331 61.0603
13.1497 17.0649 57.0243
13.2919 16.9622 60.0291
13.4167 16.7268 57.1991
12.9038 17.0403 56.2466
12.7816 16.555 56.8559
12.406 16.8415 57.4595
12.838 16.2189 56.526
12.6624 16.619 55.9588
12.7831 17.102 58.1697
12.8494 16.5095 56.0616
12.2603 16.4497 59.0731
12.8786 16.5614 56.0303
13.1073 17.0774 57.6214
12.8508 16.6781 55.3854
12.2974 16.5744 54.8552
12.1794 16.5107 58.4772
12.5498 16.9025 57.7324
12.5123 16.0866 54.5741
12.2348 15.7058 54.8209
12.2969 16.8829 57.0504
13.0103 15.9215 55.8226
12.6916 16.2319 58.5886
12.6721 16.556 57.4077
12.7393 16.0221 53.8486
12.2659 16.051 56.4128
12.3643 15.7608 55.4844
12.2972 16.6382 55.2861
12.8546 16.2638 56.5039
12.1836 16.2456 57.4975
12.7685 16.0729 57.0221
12.7176 16.4471 55.2793
12.4923 15.6238 54.0606
11.9989 15.872 57.3414
12.5216 16.4281 57.373
12.4009 16.0982 55.1693
12.3498 15.8689 58.3724
12.688 17.2272 58.7474
12.5362 16.0107 55.5635
11.9277 15.6644 54.5221
12.3362 16.0658 56.4073
12.2147 16.2391 56.1268
12.0951 16.0803 58.727
12.3193 15.746 53.9673
12.0865 15.9572 57.0884
12.0129 15.9789 55.156
12.1591 15.5047 55.6374
12.3822 15.8627 56.0104
12.3348 16.4243 56.6796
12.1584 16.3079 57.7047
11.8133 15.3371 57.4153
11.7976 15.5356 54.299
11.796 16.3432 56.775
12.0198 15.7545 56.2681
12.0046 16.28 55.0354
11.9159 15.0772 57.2988
12.2318 16.0742 58.1608
12.3661 15.9159 54.327
11.7202 15.4624 55.7316
11.8243 15.1773 53.1937
11.55 16.0179 58.0918
12.2905 15.5943 55.7211
11.7293 15.694 55.7727
12.113 15.9738 56.2805
12.1352 15.4201 55.2842
11.5134 15.1164 55.0078
11.8652 15.2614 53.4183
11.6385 15.2504 55.0532
11.7214 15.6286 55.7933
11.772 14.9081 54.0262
12.1884 16.0686 57.1639
12.2915 15.9135 57.4506
11.8668 15.717 59.1563
11.7725 16.0655 55.6156
11.6478 15.0098 55.4141
12.1118 16.3726 58.4811
11.866 15.6271 57.6362
11.6188 16.4408 58.7407
12.0262 16.1411 58.4866
11.888 16.2771 60.7816
12.3627 16.0518 55.015
11.4733 15.4722 56.5291
11.4915 15.5622 58.4202
12.0358 15.1798 56.7833
11.9182 16.1991 57.4985
11.8886 16.4737 56.5554
11.4537 15.6582 58.311
11.7427 15.9461 56.9606
11.4186 15.0056 53.0201
11.6159 15.8163 57.0104
11.9564 14.5242 56.2256
11.4637 15.4865 55.8239
11.6156 15.6163 57.2001
11.5509 14.9139 53.1472
11.4494 15.8969 58.329
11.2472 15.313 56.3072
11.5173 15.0476 54.6045
11.2102 14.0679 52.3491
11.139 14.999 54.1517
11.2916 14.5936 54.5367
11.4217 14.9695 53.1672
11.1127 14.8531 54.8794
11.3309 13.8385 52.676
11.4019 14.8973 55.9568
11.2822 14.8935 54.4812
11.5347 15.0425 55.1373
11.3621 14.8508 53.865
11.0911 14.8491 53.0059
11.2791 14.3433 54.313
11.2775 15.1783 53.6564
11.2162 14.4483 54.9131
11.2122 15.0575 56.9181
11.5893 15.249 56.4949
11.3005 14.7018 54.0808
11.1603 14.5239 53.2641
11.1979 14.4884 53.6734
11.1313 14.6668 53.9201
10.9442 14.531 54.1083
11.6204 14.7234 56.2081
11.1964 14.9921 54.3985
11.1257 14.4561 53.8036
11.3825 14.9474 57.1042
11.4556 14.6287 53.3165
11.1389 13.9904 52.6745
11.3999 14.5452 55.0372
11.2119 14.0835 50.3741
10.7658 14.2542 52.5374
11.0503 14.2969 54.7858
11.395 15.0999 55.4042
10.9395 14.7362 53.7622
11.315 14.4788 53.7521
11.008 14.1549 52.7887
11.167 14.2167 51.5115
10.9141 14.036 55.0269
10.9642 14.4008 51.9623
11.1611 13.5742 51.6615
10.7987 13.8857 55.0503
11.0447 14.7909 53.8239
11.0482 14.6097 53.5387
11.0712 13.7659 51.8392
11.0133 15.0297 55.0052
11.0059 13.9299 54.0691
11.062 14.1138 54.1028
10.8326 13.8671 53.4056
10.8098 14.6402 53.1647
10.6181 13.9396 55.156
11.4568 14.2639 52.9666
10.8035 14.8781 54.9751
11.1449 14.6602 52.6604
10.8685 13.7794 55.0841
11.2043 14.6087 54.4162
10.845 13.9162 52.0768
10.7528 14.4149 54.2488
10.8905 13.8538 54.5737
11.0092 14.2119 55.523
11.0236 14.4685 53.4065
10.9627 14.2234 52.9235
10.5975 13.8832 51.8101
11.0167 14.2718 53.9875
10.8299 13.488 53.5943
10.6767 13.8842 52.4566
10.8412 14.3102 54.1661
10.895 14.2805 53.6002
10.8093 14.2374 52.7787
10.8551 14.1556 53.9379
10.601 13.9505 54.0202
10.6738 13.5669 49.7237
10.3132 13.3713 53.6908
10.9274 14.9214 54.5524
10.7488 13.7285 52.9765
11.0088 13.8001 52.323
10.6927 13.4141 51.3612
10.4093 13.6907 51.6852
10.6214 13.2598 50.5348
10.3383 14.1385 54.0474
10.5264 13.8848 53.9057
10.8375 13.8611 53.8349
10.6021 14.1357 53.0799
10.5187 13.8954 54.49
10.6421 13.8838 52.0324
10.5219 13.6995 51.5501
10.4831 14.0584 54.1008
10.83 14.1188 53.9957
10.4515 13.4279 54.2799
10.6851 14.2737 53.6072
10.8534 13.6869 50.0397
10.4412 13.24 51.3732
10.3471 13.624 53.9205
10.6663 13.7303 52.2845
10.2076 14.3742 53.9084
10.7681 14.0455 54.0241
10.4944 13.2982 53.5641
10.9346 13.7834 51.2038
10.3559 13.5207 52.0426
10.5762 13.3425 52.6501
10.6829 14.3468 54.9794
10.6964 14.0141 51.9952
10.5524 13.8584 53.4321
10.2541 13.1962 51.7745
10.3282 13.2217 51.0375
10.5267 13.4116 49.9705
10.2828 13.0134 51.1156
10.479 13.4723 54.3377
10.7065 13.783 52.092
10.4809 13.3485 53.4878
10.5384 13.79 52.3738
10.7711 13.5801 52.8105
10.3541 13.2609 51.3297
10.4254 14.1706 54.4482
10.3894 13.8201 53.2621
10.5029 13.0924 52.8004
10.3598 13.29 50.2356
10.3755 12.8593 51.7779
10.2103 13.3446 50.932
10.2834 13.5777 54.0483
10.6009 13.5693 51.1165
10.1443 12.9227 50.4745
10.1311 12.6696 49.183
10.1375 13.2076 51.4349
10.1778 13.1584 52.8841
10.4479 13.394 48.4743
10.2207 12.1044 49.6077
10.2239 13.5063 52.2975
10.4177 13.6768 53.5047
10.4807 13.2741 50.3611
10.2083 13.2697 53.449
10.2545 13.5552 50.2996
10.0301 14.0252 54.508
10.0459 12.7349 50.3738
10.2924 13.7795 53.7558
10.3501 13.7719 52.704
10.3944 13.7767 53.8344
10.284 13.6273 54.1668
10.1426 13.0389 52.3424
10.4056 13.611 51.2393
10.3626 13.4371 52.3353
10.8021 12.9264 51.5916
10.2238 13.1459 52.3562
10.2563 13.5986 52.0231
10.4766 13.0221 51.8774
10.6353 12.7376 48.9411
10.0485 12.9704 50.1746
10.0681 13.2048 50.673
9.91198 13.4431 52.1104
10.0152 12.6821 50.3289
10.258 12.7456 50.5096
9.99523 12.4655 51.5023
10.1828 13.4409 52.2755
10.5399 13.4926 52.3983
10.1648 12.906 50.1051
10.2134 13.0661 51.9805
10.1738 12.4677 49.4186
10.2982 12.8752 51.413
10.239 13.2469 52.3127
10.2311 13.165 51.7552
10.0851 13.0222 50.4971
10.2635 12.4316 52.1461
9.98965 12.992 50.5477
10.322 12.9686 53.9624
10.1794 13.8536 52.6949
10.1455 13.6833 51.0115
9.86536 12.6021 53.5373
10.1232 13.7412 53.0676
10.1198 13.1386 51.3961
10.0899 12.8581 52.3456
10.2519 12.9889 49.8697
10.1037 12.8645 50.9499
10.0355 13.36 49.9106
9.89594 12.6937 50.6464
9.56077 12.7122 52.0136
10.3026 12.9158 50.0148
10.2262 12.7439 49.4478
9.75598 13.2102 53.8606
10.4021 13.4344 50.7456
10.1597 12.7485 51.6736
10.0418 12.6431 50.9303
10.0567 12.9489 51.7048
10.0761 12.7119 50.8418
10.2768 12.5904 49.9176
10.3575 12.8893 50.9627
9.80739 12.9794 50.453
10.1419 12.6597 50.6184
10.0424 12.7554 50.5263
10.1174 12.9473 52.4083
10.1973 13.0305 50.7352
9.80567 13.0173 50.2859
10.0993 12.7225 52.3699
10.0276 13.3742 50.9705
10.2349 12.9572 51.187
10.0651 12.8216 51.0423
9.77224 12.9879 51.3923
9.8449 13.3352 51.0924
9.92939 12.4419 51.0825
10.2847 12.2803 46.6266
9.49129 12.3999 52.2318
9.95462 13.1378 48.8268
9.54907 12.195 51.0477
10.2003 12.7825 50.323
9.92996 12.8283 50.9864
9.83619 12.9999 50.7886
10.0782 13.0226 52.5325
10.2858 13.0834 52.4831
10.1152 12.586 49.4987
9.87793 12.4702 51.2992
9.97541 13.1037 51.2002
10.1161 13.0023 52.0371
9.77232 13.279 50.9356
10.0463 12.997 53.5941
10.2351 13.5581 50.8659
10.0847 12.7193 52.8169
10.0439 12.4799 51.3292
9.79665 13.1424 50.1839
10.1447 13.1975 52.2754
10.1463 12.9674 51.0652
10.2562 13.0368 52.5999
10.0653 12.9426 52.1288
10.0713 13.0768 50.1187
9.71357 12.3293 50.2592
9.82465 12.1166 51.0874
10.0335 13.4367 52.0884
10.1702 12.7446 50.0889
9.90015 12.5614 50.1573
10.0733 12.5252 48.2403
9.67372 12.4913 53.0074
10.1228 12.9484 48.2719
10.1473 12.3997 51.0286
9.97203 13.242 50.3739
9.63701 12.4079 51.2129
10.2873 12.7766 50.6815
9.64239 13.0435 52.4964
10.0012 12.8954 50.4464
9.92036 12.6366 51.111
10.0226 12.8122 53.5988
10.2764 13.238 51.5747
10.2389 12.5251 50.9127
9.93251 12.9594 49.2341
9.73145 12.5674 49.2588
9.89892 12.2738 51.0007
10.1752 12.3511 49.523
9.89282 13.034 51.0596
9.89212 12.5496 51.54
10.0464 13.0179 49.8118
9.59881 12.726 52.4587
9.86839 12.7646 51.1835
9.70125 13.2456 53.2756
10.0104 12.7254 52.8643
10.0412 13.3419 49.8823
9.99505 12.5825 51.4445
10.1552 13.0648 51.7791
9.90483 12.4675 49.0595
9.6679 12.8184 48.5737
9.66384 12.1885 51.3824
10.0229 13.1663 51.1501
9.74379 12.6398 51.7831
9.8997 13.4518 54.0148
10.0492 13.2022 52.1007
10.0528 13.1149 51.3301
10.0988 12.4549 52.6641
10.2448 13.3296 51.9379
10.0232 12.6876 52.4031
10.1731 12.7649 51.1016
10.0624 13.2632 51.9652
9.99935 13.1908 53.5079
9.6935 13.7542 53.3102
10.1807 13.4541 55.235
10.0069 13.5161 55.5722
10.193 0 0