# pn-170911/CsIIA-38-KOKB-1280-1959.psd
# Power spectrum* (dif=0,1,2) (really just |FT|^2)
# NOTE: only the first half! (symmetric)
# weeks: 1280-1959
# 6 clock-days, 1 excluded
# PSD: 1441
4611.71 0.216497 0.0134771
1.0814e+06 48.4486 0.0140173
2.67541e+06 74.339 0.0138981
1.92828e+06 43.2034 0.0109939
3.07307e+06 205.179 0.0199797
741616 64.6337 0.0135519
422231 52.367 0.0269654
333147 47.4456 0.0284503
171828 64.0841 0.0276517
262603 69.6483 0.0566049
242489 70.5807 0.0604184
114004 34.1717 0.0162135
108146 38.5235 0.0549112
67508.6 34.3494 0.0284069
85627.2 43.8253 0.0617461
103856 54.7414 0.0706065
69337.1 58.4862 0.10081
51952.1 39.5548 0.0852484
48218.3 43.229 0.0533949
44127.5 68.721 0.172011
47045 52.4979 0.105467
30030.4 76.2539 0.194985
22736.5 67.5078 0.131068
32391.4 70.0098 0.190273
37803 64.8389 0.171343
30992.1 42.365 0.175279
20475.3 34.7568 0.131528
12106.7 27.5068 0.11175
27888.2 59.3595 0.22322
8675.25 30.7394 0.128377
7156.13 68.7108 0.333865
14558.7 49.2799 0.275343
17607 48.8126 0.287366
22691.2 87.5279 0.493344
14715.7 68.6738 0.448901
10218.1 24.9269 0.160632
9967.05 62.9167 0.417193
11952.5 73.5564 0.439406
11246 62.215 0.436506
6565.38 61.5046 0.507863
7689.42 67.4884 0.414199
7308.21 58.6391 0.480204
5410.48 48.5704 0.348987
5052.25 17.9487 0.228357
3741.55 32.7168 0.328395
10409.7 90.0646 0.913922
4867.05 38.6015 0.329335
7475.56 56.2996 0.662697
10440.2 78.5012 0.817463
4462.69 37.1185 0.382665
4312.05 21.626 0.27842
3355.87 37.9819 0.479176
8684.68 68.1233 0.885456
6799.79 55.5484 0.788084
8080.36 60.8682 0.803383
2795.75 43.3685 0.630929
4360.74 70.2231 1.2009
4970.88 48.8714 0.713902
2970.16 19.8009 0.280712
6395.05 49.0772 0.750254
4455.67 68.7628 1.18914
5078.43 57.527 1.07391
4176.61 47.9153 0.822834
2064.54 22.0003 0.426902
3465.15 36.5477 0.696424
4103.91 38.4443 0.712202
3924.51 86.4838 1.71999
2868.95 31.461 0.696918
3455.16 80.1932 1.76109
1778.75 41.5535 0.941968
3964.85 71.1249 1.50413
2007.24 23.3644 0.611189
1688.51 34.2868 0.882531
2160.93 49.4401 1.23096
1704.97 28.2649 0.781369
3640.52 68.4065 1.94484
1832.9 38.3049 1.07397
3467.62 61.7801 1.97086
3239.49 33.8272 1.16226
3098.41 62.6396 1.74932
1844.04 52.1135 1.58179
1875.53 29.3062 0.822618
3500 50.2062 1.68391
1638.93 28.9937 0.975331
2997.81 47.7525 1.62812
1440.62 34.6475 1.00552
2654.83 67.4712 2.36062
3434.79 83.3645 2.94449
1784.13 57.4665 2.13261
1418.98 59.6842 2.13023
1286.11 37.2269 1.46287
2068.35 54.2185 2.01599
2162.27 35.4086 1.43397
1886.91 49.3528 2.00446
1794.29 29.7752 1.44195
1211.64 34.4244 1.42834
1184.29 31.161 1.23517
1780.39 38.6947 1.76871
1450.37 40.7249 1.95342
1858.76 33.9102 1.37993
1653.29 44.73 2.13883
1983.77 52.9468 2.66178
546.313 15.7821 0.868455
2360.54 91.7524 4.57772
1410.73 30.4328 1.44158
949.639 20.4253 1.12565
1694.75 67.1427 3.59144
1012.37 51.7351 2.92618
2998.04 116.679 6.26863
1295.57 63.6971 3.80489
718.777 35.2229 2.04337
2254.76 76.7125 4.16783
2172.02 66.7012 4.11199
1601.11 39.9285 2.65761
943.227 28.7784 2.10833
684.995 53.046 3.49009
844.199 46.0013 2.59428
1267.86 55.2032 3.19835
794.014 55.0229 3.59876
712.871 20.9391 1.31001
809.848 31.7651 2.16098
1208.5 47.7631 3.34967
910.536 24.2992 1.9124
884.078 64.1718 4.77054
886.082 30.2677 2.27969
1823.56 78.3597 5.81619
332.046 22.0914 1.75723
372.497 24.8755 1.70289
852.651 49.5794 4.08162
954.715 51.8182 4.14995
1030.98 24.203 1.88262
2128.55 108.821 9.02588
608.865 29.8457 2.37128
627.854 32.4458 2.74101
651.414 34.2073 3.04393
930.991 75.4587 7.15314
1040.59 73.1945 5.91286
432.04 28.8295 2.63774
1232.93 84.8754 7.0563
693.077 48.3746 4.55152
880.744 58.4708 5.30055
592.442 26.1009 2.42682
596.208 43.4066 3.93659
455.284 57.1983 5.68659
957.271 45.9701 4.04208
875.199 54.4177 5.93841
972.026 54.3457 5.62988
236.376 10.1671 0.997646
331.794 26.5667 2.61404
717.141 52.2076 5.58291
1683.53 118.691 12.9642
728.014 44.1675 4.8818
652.223 66.8572 6.52545
578.504 48.8263 5.7231
501.767 98.5575 10.8147
677.846 38.072 4.40523
402.257 21.2259 2.90548
406.645 24.3714 2.76333
1014.89 66.5733 8.08316
395.424 28.3289 2.91925
224.672 21.568 2.48653
578.973 61.7664 7.88398
810.666 68.5978 9.31308
547.517 46.499 5.09204
402.69 25.6016 3.46858
718.015 59.9631 8.74691
845.163 64.2944 9.12586
569.985 41.7397 4.46924
457.845 78.5781 9.62066
234.036 19.8831 2.53842
294.014 60.1771 8.23074
456.382 57.1431 7.35043
358.243 22.5632 3.45185
113.976 22.018 2.97756
312.278 53.7158 7.99939
965.555 67.9829 9.71555
453.754 46.3496 7.14225
586.364 48.4391 7.7031
428.469 22.5217 3.61867
288.259 27.4161 3.49413
541.333 48.5682 6.69948
569.753 54.8436 8.80426
236.536 45.7717 7.98532
405.814 35.8214 4.73108
309.664 36.4872 4.98598
839.742 90.0984 15.0142
291.332 25.6072 3.64996
367.655 41.7444 6.90062
342.829 74.5346 12.6733
150.268 54.4468 8.8907
370.388 26.9016 4.71544
165.009 47.9221 7.63437
556.412 96.7504 17.1019
322.183 52.4958 8.63345
119.088 14.3414 2.89784
383.198 68.3386 11.6929
280.713 32.5504 6.74457
216.251 31.9859 6.2484
286.618 22.3457 4.70367
263.914 44.6645 8.11565
523.181 58.9383 10.6802
378.327 36.6251 6.75102
383.769 54.8403 10.2431
278.042 48.616 9.95258
395.061 52.7374 10.0273
280.038 44.2686 8.45547
298.213 40.539 7.46693
291.283 59.838 12.8718
247.161 42.1918 9.0204
484.335 48.9444 9.30166
117.158 6.37944 1.67048
239.942 59.9131 12.9582
368.382 32.5981 6.69139
243.126 32.2007 7.29965
277.303 53.3258 11.3325
278.498 50.9292 10.7643
578.083 89.6529 19.7059
459.424 49.3898 11.4498
200.093 11.0245 3.18344
210.168 40.6838 8.88432
384.753 76.9318 17.7602
283.196 41.4879 9.36005
311.464 53.4402 12.5985
482.846 58.6038 13.278
97.3124 21.2941 5.27894
397.517 53.9399 11.9504
401.486 52.4667 14.8054
271.011 39.5431 8.31003
291.148 89.5366 21.6381
312.513 77.3761 17.4865
128.271 58.3566 15.2483
363.699 45.6999 11.1306
238.625 35.1103 10.1351
293.627 44.3445 10.1896
246.643 34.5907 7.91996
174.834 27.0044 7.30256
292.263 48.583 11.7999
333.876 53.0243 14.2127
277.755 31.6778 7.42358
265.325 30.8415 7.93659
398.056 45.4661 12.3974
331.088 32.5702 9.09113
280.109 48.4345 12.2209
320.029 77.7515 22.2838
318.732 46.5005 12.9363
213.891 45.9584 13.8919
163.563 39.8571 12.9964
151.927 53.2622 12.8221
226.831 41.0232 10.3331
222.747 49.9312 15.0328
188.958 23.8401 8.60334
350.434 68.6542 18.032
197.261 37.9743 10.0863
104.106 28.1558 8.99249
216.068 65.4595 19.2957
184.879 31.0123 9.76103
268.659 46.7882 16.1346
243.612 43.802 12.8952
206.492 52.3637 16.336
183.346 36.1754 11.0931
294.336 64.7632 21.2786
346.787 51.0558 16.2055
245.309 32.993 9.9363
176.146 36.7956 11.4064
330.242 70.1891 22.3617
173.211 19.4465 7.14482
392.104 99.9287 35.4024
289.397 70.9538 23.081
111.876 24.5231 11.0712
189.617 74.7313 22.3539
208.847 37.174 11.1298
98.3604 22.7626 9.3952
191.003 20.0955 5.99413
195.56 46.903 16.0424
182.075 49.1246 17.5336
195.376 44.5468 15.3775
196.107 55.2498 21.5301
107.231 42.4866 17.2026
331.493 61.6022 16.6701
127.383 31.9172 12.5625
330.727 62.3822 20.6729
200.233 33.9297 12.6829
225.245 40.1553 17.4978
182.23 27.9422 7.98229
108.576 46.6572 16.7194
126.655 37.1681 13.6481
107.545 15.5057 7.51333
184.119 39.9718 15.1608
216.099 52.1446 18.1086
136.254 32.0952 12.8045
100.875 34.476 14.3853
69.3007 20.6837 9.44334
196.297 32.8893 14.2845
144.029 35.4446 13.2066
189.634 27.1536 11.188
228.674 38.8051 13.0987
289.935 71.7113 30.8894
213.609 48.9144 16.1691
152.041 45.6341 20.2859
116.149 36.01 13.4689
267.354 89.0383 33.407
212.56 60.7156 29.2133
99.7752 43.6129 23.9642
120.396 24.4983 10.6235
382.904 100.442 38.8458
202.799 56.9793 21.6867
139.909 62.0619 25.7359
128.941 35.3309 16.9543
129.655 28.3237 9.62932
148.257 36.669 15.2405
184.076 68.6928 30.1531
101.254 21.5493 11.3972
95.3231 37.9699 15.3832
151.26 34.256 17.174
127.135 37.9452 17.3142
143.691 59.5526 25.999
159.327 72.3761 33.8314
171.615 55.7807 25.0201
106.873 36.6502 16.4025
206 54.0827 27.8623
223.627 56.0995 25.2551
143.836 33.7937 13.4991
167.785 36.3442 14.4297
69.1391 11.5667 5.1342
191.411 51.1346 22.9434
34.4715 23.1094 13.8875
136.592 37.9917 17.1757
156.684 51.2652 25.4283
70.2745 38.1408 19.2294
91.2896 47.0026 21.1418
88.801 12.8576 7.38992
85.6269 14.674 6.40082
99.7187 21.4633 13.5999
115.555 19.3286 8.65337
89.1042 25.8263 12.7728
128.586 41.1033 20.3923
104.71 39.7077 21.967
169.729 36.3704 21.7748
55.9833 11.8237 6.83914
199.479 91.1179 43.467
129.431 28.048 15.2997
103.988 31.6843 18.1105
157.56 54.7505 33.7726
163.543 44.3231 20.8997
53.2606 15.9065 7.21036
96.9241 70.8612 35.4954
89.0072 24.5544 14.354
61.5128 16.8245 11.9113
176.436 37.0937 20.958
138.954 58.7143 35.5232
95.5276 41.5651 22.1804
216.477 49.2422 24.7566
140.674 43.7861 26.7511
71.0382 42.6528 20.6442
78.9491 36.5972 22.662
112.58 32.0761 16.8778
109.482 45.0692 27.8461
113.381 28.6673 20.607
156.27 39.6229 21.994
76.0431 25.9003 14.9631
133.91 56.7442 31.4634
103.393 42.6525 23.4814
113.742 36.5795 21.5435
89.9407 38.3503 23.9113
142.651 39.8528 22.3975
117.965 50.8322 28.3329
81.9147 43.6209 28.8477
189.166 57.6007 33.815
158.436 29.8007 15.8875
196.277 74.6947 46.4975
92.4922 35.4863 19.0203
60.087 19.2856 14.0429
182.656 61.3823 35.2356
132.523 45.047 31.8851
141.777 70.9916 46.1528
79.8821 38.4808 21.581
67.418 40.7134 23.1288
70.083 24.2152 15.5323
127.282 31.2158 23.9539
117.091 46.5976 31.1771
54.4125 35.7662 23.748
106.429 30.343 19.4923
89.6384 55.0157 39.028
105.066 45.0135 26.7768
73.9979 24.433 14.3312
108.971 74.0733 44.8765
102.542 52.5849 36.2639
138.298 60.9284 42.8901
86.0775 25.4716 19.3193
61.0389 21.9467 14.1877
129.813 57.265 41.14
95.7888 28.8491 18.0477
68.7424 35.0896 23.2352
72.6202 29.6249 22.7592
44.4453 9.35546 6.61286
158.228 70.1829 41.5888
45.717 22.3113 18.5563
90.2286 16.3818 12.4945
129.853 37.306 26.3972
85.1541 53.5894 43.6299
104.587 30.0145 25.9123
128.499 68.0559 35.4313
80.0877 39.535 29.8862
114.587 47.0546 35.6889
37.4798 14.4438 15.6745
134.108 36.3634 22.5576
44.284 41.7176 32.7919
65.3906 45.7887 33.4163
103.753 35.8416 23.9781
65.4425 27.7271 20.3674
44.6737 28.4976 19.3958
74.8801 28.0252 22.7439
109.542 39.9023 29.9414
47.7249 11.8602 9.82256
63.0665 23.2601 22.9809
96.4663 23.6764 9.93495
75.4243 26.9359 15.9083
48.3212 26.072 22.5586
94.8734 54.5151 49.2718
141.306 57.008 40.4495
45.8497 28.4583 20.0545
104.344 50.839 36.5154
126.149 58.3113 51.7754
35.7225 27.4104 20.1364
109.103 46.0884 33.3871
56.0835 44.9113 40.009
160.946 92.0539 72.3849
51.7895 28.9333 23.6788
39.3311 41.932 37.1274
76.5909 54.0765 61.6344
158.53 80.8504 55.5265
79.8627 42.5409 35.2417
89.004 30.0264 18.5191
83.0397 34.4886 27.7757
114.263 52.0001 49.6377
105.085 52.3174 40.0087
73.633 30.3401 29.901
64.8581 46.5663 31.1793
85.8534 45.6898 40.7597
57.3605 19.4415 22.0633
53.2126 31.1488 17.4058
77.1895 30.7427 27.4235
69.5783 56.8922 56.2826
82.3975 36.4302 21.484
80.2929 30.0167 30.2315
101.097 50.8978 37.3282
35.3806 31.8783 33.4352
67.6356 17.7745 22.6407
78.0219 33.8145 23.9439
54.9434 49.9702 52.8832
89.6722 48.7704 44.385
75.478 29.8404 24.1275
91.9441 38.6072 39.2177
43.1824 22.763 19.6351
58.4264 54.2427 44.6629
66.1502 13.8439 11.9805
55.3253 36.7199 30.4735
96.551 42.2394 39.6736
60.8404 31.2516 32.625
106.243 46.7937 37.3192
39.6021 16.4817 17.6023
63.5432 16.8477 16.4704
32.9639 20.8481 22.7251
44.9019 13.4952 16.8885
54.4765 56.1253 51.0422
59.5252 29.7696 22.2154
36.2584 20.0778 20.4972
48.0392 22.1663 20.287
66.3779 42.4958 36.4462
61.4102 16.7776 15.4867
58.0384 19.6862 19.7294
50.6555 37.4999 33.0423
69.2256 47.0844 60.3161
98.6333 35.9852 26.8815
45.8412 17.8979 12.2353
55.8708 29.8699 30.2376
44.7209 43.7132 42.0157
36.2582 23.3579 31.785
49.1624 12.61 18.5601
67.6914 24.8516 38.8704
55.2447 40.6585 35.0459
47.2728 31.4459 21.8433
30.9829 21.1205 28.5661
46.7554 36.7782 34.4534
48.0315 18.3764 25.547
45.5806 28.5355 27.1671
32.7325 25.7196 32.4695
64.9901 50.8224 51.6139
51.2124 21.5106 20.5861
103.239 55.1757 58.8584
90.5486 59.6547 64.403
53.3948 51.6115 47.4976
64.0057 25.8139 30.5864
40.8232 34.4528 44.1267
33.0554 52.3758 52.0804
84.8986 33.6178 34.5905
48.5561 48.6181 49.9548
67.2238 36.0947 22.8301
37.932 67.09 65.8447
22.1329 26.7937 36.3114
64.4537 52.8175 71.2066
97.5849 50.9036 50.1688
52.05 33.0033 32.1569
51.1969 32.0644 42.1792
73.135 26.455 24.3831
62.1242 27.5494 28.4987
53.7467 50.3287 49.3835
34.9155 20.4406 30.5255
76.6254 33.3431 35.9821
81.3098 37.3565 32.8236
65.1263 23.604 24.179
64.5184 43.2948 44.4567
52.8727 9.11898 7.27833
72.901 31.8102 31.9048
33.3511 29.2966 41.6857
56.5504 37.039 44.0462
62.4507 22.7255 15.3517
57.8402 30.675 38.8115
52.1177 36.8617 37.6611
30.1168 12.2813 14.3659
96.0112 46.0507 45.7422
41.9871 20.3805 28.9313
55.6133 39.7924 37.4845
48.6865 22.2074 33.4935
45.4494 28.3286 34.6285
49.006 26.7098 24.1558
42.2935 14.4572 20.0575
54.0075 24.3076 33.0134
26.1252 25.2231 25.3617
45.6765 34.4212 40.9034
49.8638 26.3834 23.4617
51.9106 25.9409 34.9637
39.8002 22.0242 22.8417
42.134 42.0157 57.1062
24.0492 17.072 42.3021
58.6665 45.863 63.1894
35.3196 21.0619 15.3579
30.2978 38.6338 43.871
23.8391 36.6768 45.3322
24.3275 26.6261 29.9934
39.4273 28.8754 39.984
55.5464 26.5785 27.7099
56.3573 45.9956 61.5119
99.8793 44.6161 43.0703
26.2725 19.4959 20.8349
28.4231 12.8318 21.449
44.6922 18.7668 26.1902
41.4915 21.54 23.2289
31.4169 14.1678 15.5403
35.5796 33.8047 57.1308
28.4188 32.4058 37.8459
33.0677 25.0326 43.5884
57.5466 44.2634 49.703
28.4349 34.5657 36.2302
41.2018 40.3371 51.1918
17.5243 19.0802 36.1218
29.2157 24.9773 35.7644
35.4703 17.5698 27.8215
47.2282 31.4221 39.0671
34.7345 33.6289 44.5481
34.5592 22.1661 27.5416
29.4143 20.0574 24.52
41.2876 25.4672 34.0997
31.3201 25.5548 36.9296
65.8896 39.9873 60.9609
63.6389 37.3398 38.3442
34.9109 35.2995 48.5053
54.074 29.0332 38.9197
45.7584 30.5783 52.7664
34.9311 52.0502 61.2545
56.9502 43.001 54.4907
62.3898 52.6537 68.2539
37.4013 36.6713 57.7087
31.76 19.2006 23.3764
17.5417 29.8333 43.2522
28.2214 25.7326 35.1199
50.9595 28.6417 35.1049
28.0751 23.5388 40.3201
18.9964 20.2947 22.5976
57.1475 28.5872 38.3245
31.0922 25.5522 26.1329
21.2993 14.6871 23.074
34.1255 28.9695 49.4987
35.2291 26.7296 26.3037
36.7237 42.779 63.0187
38.7534 18.4621 33.2469
27.8002 21.7658 42.6915
36.4559 27.1177 37.8381
44.7592 38.053 49.0414
56.3754 24.9783 25.938
41.8817 30.7526 56.4488
46.5321 33.2146 34.0323
56.2563 42.2164 63.8474
51.0311 50.379 64.4161
28.6804 26.2005 53.9924
24.6603 10.8338 13.3436
41.1028 19.2039 23.0157
49.99 38.3765 51.9459
19.4828 12.7131 23.9957
61.3886 42.4371 63.861
19.1804 16.3523 13.2095
19.3878 29.2301 48.3147
31.5373 24.2865 30.9361
30.1346 14.9355 36.4261
29.9836 26.8012 40.7718
30.6038 17.3826 28.9545
23.0885 24.6611 30.5649
10.0852 30.4463 45.9826
43.2375 30.0909 39.9849
45.7628 26.468 44.3507
30.637 30.4664 50.7173
16.1194 20.2767 49.2924
61.1961 31.0222 35.0292
47.4554 38.5456 56.8798
52.5051 35.3263 50.9404
40.3292 36.0061 58.3854
33.1943 30.2716 37.0605
11.934 15.5656 28.0385
35.6645 35.3299 46.7145
25.7982 25.3621 58.815
43.4449 17.7425 20.3105
44.9712 37.3195 56.3815
16.6423 25.7204 47.6659
25.474 22.2417 28.1395
31.3634 33.1201 53.3941
29.8501 26.6073 40.0413
28.3408 10.3917 9.91947
44.9611 32.7626 53.2683
34.1194 38.585 74.5529
22.0212 25.9358 43.0567
34.0639 20.1418 35.3334
17.6032 14.4209 53.1806
31.4646 46.5757 41.278
15.3063 31.1405 45.3578
34.5259 30.7071 72.3296
27.8666 56.073 71.7137
12.7257 14.195 34.9243
33.4276 25.9338 46.1321
39.2897 20.014 23.3129
20.4594 12.2663 18.8329
19.8394 47.3044 75.2123
36.504 28.6938 37.7592
32.1154 19.2724 39.9077
35.6985 34.1027 57.5408
30.5863 33.9998 66.2968
62.3278 35.3075 48.9392
21.1947 16.9451 18.2565
11.1487 17.684 47.2127
44.7116 34.1925 46.6904
29.125 19.8181 36.3972
18.2326 14.1944 32.4951
32.5666 21.5155 23.746
17.227 31.8007 43.3041
48.6243 32.5493 44.0963
18.7287 27.4524 57.0747
34.4312 16.5431 56.4991
52.9265 34.1011 37.1779
22.7327 20.6169 36.5098
27.3191 19.3754 48.3338
42.4117 45.9373 68.0489
23.5942 12.2178 19.2703
15.8245 27.3789 65.1202
42.8093 48.0095 87.0968
28.5347 32.8981 50.3931
31.8545 16.7268 34.0759
14.4367 38.1878 53.8036
27.6036 20.9573 49.6118
15.1982 20.2221 32.7389
19.3364 17.5104 37.6235
20.8577 16.3333 30.4272
42.0478 27.3505 39.6084
16.0354 15.7255 38.8834
21.8375 28.4792 47.7088
34.295 30.1668 48.664
30.9114 18.245 31.0162
23.7163 24.289 39.2783
21.8891 14.784 17.8992
26.0305 21.9845 35.1355
26.8193 35.9864 88.1727
24.8237 22.1806 36.3465
10.2972 18.8785 53.0386
28.8417 30.3795 47.4099
19.8363 29.7715 50.0603
16.2653 14.3471 16.2682
24.3975 44.1571 83.3079
43.4298 30.1021 42.9834
29.1074 19.854 32.2583
18.3017 18.5453 46.5664
37.5101 23.9769 38.2207
21.8731 30.2212 62.4755
14.0351 22.0823 40.9633
27.5351 30.9235 48.1604
39.9572 43.4355 110.839
29.0501 35.6525 31.6761
18.9775 9.19952 20.64
29.8415 41.6656 58.9059
18.4894 19.2557 57.4705
14.849 18.11 37.6823
31.8565 26.4451 70.8253
28.4161 29.2042 29.0836
23.9926 21.9431 39.1195
18.1516 31.1257 69.4201
26.1513 37.6289 75.112
31.4336 19.2196 48.0481
28.8157 21.6401 21.3099
13.0334 23.3991 47.0628
24.5465 8.67214 9.12889
15.3307 13.4495 37.1004
35.8946 41.1345 81.6433
32.7549 17.6672 14.6558
17.1531 15.0457 31.068
37.4397 28.7108 49.2251
22.3932 24.848 42.3717
18.6246 20.4211 66.6579
21.6349 14.4393 37.8458
26.4969 21.5611 53.5517
28.8851 14.5308 20.2257
36.8396 44.6864 74.0218
28.7446 27.2259 53.0174
20.5554 29.3673 81.0685
30.7131 13.3905 25.2476
10.8387 9.60047 24.2264
25.144 26.1129 57.2786
34.5689 28.8551 50.7929
12.5264 15.8944 28.9505
20.4939 33.8375 79.8023
21.9635 34.5537 86.4672
30.5259 24.9849 45.9936
14.0608 6.27469 22.2822
23.688 36.2152 48.076
7.92789 29.7092 47.2047
18.2337 31.676 59.4681
13.9099 10.0289 53.5659
29.2237 44.569 101.001
24.0139 36.4038 44.3416
9.60148 43.1525 106.143
44.0514 29.267 71.8861
49.1926 44.278 74.0969
14.4022 23.5808 50.9618
20.2247 28.8296 50.4805
34.8269 44.4673 114.825
32.7738 34.2686 44.3313
18.5283 19.9705 71.4652
23.5585 13.5863 34.653
32.3626 28.5623 39.7099
31.4654 24.4445 42.9015
13.7752 6.95441 24.1616
23.506 23.6645 57.4269
19.5219 18.0768 39.7945
15.1858 35.4009 67.773
29.5371 26.1091 52.9121
13.2581 8.20334 25.0641
16.5737 43.0606 95.1077
21.521 14.9707 29.69
18.3025 15.155 32.3735
14.7704 17.983 62.518
18.4856 15.5294 28.0531
33.1376 34.5517 46.9368
19.4839 27.8108 69.3425
15.0532 7.74897 21.7757
15.2952 21.7127 31.0574
10.0032 22.4571 32.3594
9.6665 17.215 50.9119
29.06 19.713 50.589
19.4649 14.4391 41.3123
20.716 23.6583 52.2831
21.8054 28.7596 42.2811
12.042 15.7619 36.1063
16.4817 12.0129 35.6053
33.59 23.0182 48.5343
24.8511 23.3323 50.1102
17.8932 20.0911 39.6989
17.8365 13.6601 23.3619
14.2087 28.0691 60.3984
18.7858 14.7124 26.9222
20.0619 15.7726 42.5667
15.2646 17.5094 41.3507
15.3438 19.9533 50.6578
18.0532 21.3989 61.147
24.0616 27.0608 43.3477
17.2519 17.4634 52.0858
9.09356 19.4247 25.7462
15.7603 19.3442 56.6663
34.1715 37.9673 91.2324
16.8082 11.572 30.2481
31.0982 23 31.7177
14.4466 7.06064 10.6583
14.3486 16.0066 40.0004
17.9139 21.2983 58.616
16.6853 26.6861 52.9315
17.7169 19.9238 65.3112
20.3633 13.5496 31.9518
29.4594 44.6884 66.4244
10.3564 17.4529 42.3457
12.6295 22.0662 51.0461
18.311 48.9946 113.412
24.2503 10.6321 39.9896
20.5678 13.8127 17.1043
12.8611 15.2614 35.2868
25.2948 21.1214 87.1947
15.8377 25.9605 36.6085
21.4731 15.42 45.8841
23.4219 16.3853 24.6922
13.5628 10.7654 29.2309
21.9173 17.6682 43.1551
9.68262 33.5579 73.0915
27.0522 19.5249 48.9279
21.2552 22.9632 52.6144
19.616 22.3952 67.0064
22.0782 13.0753 25.9292
15.0499 13.0919 44.4122
15.6284 19.275 25.5208
16.3577 14.0233 39.4078
8.97265 22.9813 47.5363
19.8795 6.5771 29.518
10.8361 11.5366 15.8193
9.28474 21.6356 51.8078
24.8746 12.9746 36.6858
27.9958 25.6827 78.8532
15.2905 15.0761 36.8383
19.8639 12.3148 27.5976
16.4041 24.0525 56.7913
25.6199 22.3606 52.0191
16.7566 16.5346 57.5665
31.3995 22.8517 45.9583
25.1472 18.9053 38.852
16.8578 25.5075 89.4466
24.374 16.9913 15.86
16.0116 13.0198 23.09
16.209 14.845 26.6774
8.24136 18.4424 45.2649
22.5826 19.1032 61.3891
8.41978 15.868 47.5793
18.1963 15.7299 20.5712
7.32958 16.8263 34.4253
15.6321 16.6711 56.2835
22.9591 16.598 28.6811
20.0893 16.5686 69.4155
29.7892 29.9081 46.5897
12.025 17.8409 58.5944
23.7968 18.4015 78.5493
20.4083 21.1516 38.3049
22.8817 23.6863 52.9586
26.4975 21.7409 43.1763
19.8844 41.6911 109.911
11.6947 19.5442 43.9167
7.50987 8.38962 17.677
7.9654 17.2003 50.6531
13.5592 29.5383 73.0978
31.5456 38.726 107.605
13.2845 15.5855 62.3571
20.3958 17.6547 45.4328
24.2675 20.8441 50.9785
32.1014 22.1068 40.3532
11.0919 5.45532 23.5314
19.1869 19.0062 40.1863
15.7366 21.8452 55.9151
15.712 21.1851 57.0485
16.8657 18.1326 66.9914
12.7015 25.2604 41.3084
18.0579 18.6854 54.5281
19.7101 28.5413 86.09
13.7939 26.6628 75.2594
28.7613 26.0279 36.9961
11.4081 26.9802 88.1891
29.8783 46.5056 106.734
22.1982 11.0237 37.6155
31.3841 25.4715 63.6965
19.5011 27.4985 64.4272
13.2472 9.06627 17.8077
13.9105 8.73805 37.2189
7.15372 17.4065 40.9089
18.0705 8.04179 36.3511
15.5875 8.16605 24.4458
20.8593 20.0732 79.0036
13.2652 37.8744 75.4193
19.1407 11.559 39.0295
25.9825 25.8717 66.9039
14.0517 14.1831 40.6508
10.7563 19.6929 35.8305
12.5784 10.2506 34.6917
15.5161 32.2234 133.508
30.4856 33.8144 53.778
27.9605 27.6722 75.1974
13.7922 10.1611 23.9323
13.795 16.7175 63.2361
18.7002 18.1282 24.25
14.1848 14.595 56.7866
12.3945 10.352 26.2219
8.83334 29.366 76.4164
19.7013 14.1524 22.8092
22.2617 21.8912 66.7439
11.5196 15.7265 43.9372
21.1237 10.1495 22.3907
14.7286 16.209 58.5479
21.0439 26.5342 61.9326
7.80201 13.6344 24.5627
21.8105 19.6544 48.9675
5.50281 11.0027 33.6932
7.66468 5.34137 18.1152
12.4219 15.5571 28.7856
18.091 28.3455 65.2524
7.21482 14.8622 65.9709
9.91669 26.6091 64.8229
21.0595 27.4954 75.3835
14.6656 11.8469 58.0673
21.6577 15.8579 30.0852
12.8234 17.6578 58.1096
19.7226 24.0929 53.0626
18.3704 21.0876 79.9138
19.4694 35.9411 72.8757
17.6567 7.68928 25.1529
17.5248 11.6502 28.8992
12.1493 6.91099 15.8974
12.8421 4.08086 15.3131
15.0075 23.9341 53.253
15.7377 14.2192 30.2624
8.42028 7.42024 38.8566
19.8305 19.0252 39.7581
12.7625 25.3158 48.0671
7.97891 17.2407 75.4487
12.4498 21.0208 73.2173
21.4471 10.931 73.9201
38.16 42.0118 116.362
20.3193 19.3186 31.0698
6.60415 20.7039 44.0113
18.7963 10.9087 21.9744
12.2876 23.2066 91.7513
13.9891 23.5517 66.5748
18.1874 10.1286 34.3878
14.5598 27.0209 60.886
19.2475 14.7674 29.6613
14.9986 18.2502 59.2874
25.0938 34.978 103.877
9.71782 19.7447 42.2272
7.42705 10.6086 51.5973
14.3812 19.5735 62.162
14.7542 10.2393 25.714
20.5583 15.915 41.6598
10.0423 14.5896 47.1227
14.1625 24.6706 77.8644
17.438 15.3177 57.0269
10.7086 7.13494 22.7085
9.38181 23.3095 42.4482
14.3321 10.7505 58.7493
18.5476 32.0524 83.0457
9.49022 9.23664 21.6789
14.09 7.81998 28.3933
16.3368 13.3439 44.1343
15.1302 13.6991 43.6619
12.0407 10.642 37.7075
11.9932 12.5212 32.318
10.3749 11.0688 28.5886
17.3675 23.7481 70.5376
9.71613 20.1187 50.9557
13.6875 24.223 72.4886
14.0537 14.0099 65.0771
14.4609 33.3919 57.528
20.9559 22.1372 74.7308
17.2311 18.8778 64.4654
22.0188 20.2886 57.532
18.126 20.498 55.693
10.5868 10.6406 29.8116
12.0643 22.9133 77.9065
10.4522 28.9592 53.1063
12.7146 13.504 33.5499
13.7375 20.8379 63.0367
19.7324 15.7687 36.7572
14.3068 23.3031 75.5508
6.76905 27.8196 68.2674
10.2342 7.54942 23.9065
8.74345 3.15983 16.6191
8.74205 17.6391 59.8835
15.6909 12.8788 41.8563
20.5758 12.9455 26.643
14.7674 21.9902 101.215
10.9024 10.059 29.7452
11.2972 16.6934 63.1301
17.3854 13.6599 45.0353
8.7345 11.9157 64.6231
17.6522 13.1836 23.6778
8.33326 12.8332 35.8834
13.4319 25.2463 65.3395
13.7531 18.1946 42.6511
8.56296 11.7784 51.305
9.84205 12.0449 40.935
14.2982 9.56956 58.6006
16.5751 28.7122 81.4484
20.1448 32.36 54.3505
17.2289 26.469 128.006
17.2045 13.9987 21.3562
13.4763 21.7684 61.9102
14.4859 5.26489 28.5784
15.6894 11.2406 37.8542
15.5242 15.4036 33.1093
11.0027 10.6144 56.7202
12.1182 17.1684 48.0372
10.227 21.6278 64.3815
19.697 25.4507 55.7487
11.1021 3.1563 14.6791
13.0095 20.7092 64.112
15.2329 18.1407 46.4091
12.9837 9.51788 54.5667
11.8189 6.46706 36.731
17.0822 17.5814 34.1445
19.53 38.1389 105.738
18.2724 31.0304 106.697
16.4418 14.4738 39.2887
6.83327 10.7557 29.0656
9.65351 9.22905 32.3663
12.5455 18.7083 74.8801
16.5827 22.7867 69.4232
15.205 10.2629 54.719
11.471 13.8627 73.0606
14.0629 29.9796 75.8318
10.412 14.9418 45.8569
8.10478 9.79565 27.6047
9.832 15.2326 67.6545
21.6429 22.6392 36.7177
9.67793 12.5028 73.5745
10.4224 20.3864 29.4509
7.74678 9.97184 33.3036
12.7149 7.49263 22.3822
12.1005 8.74957 52.3563
9.88312 26.132 79.2973
14.7565 10.5573 18.8799
11.4685 15.0851 67.4969
10.1369 30.2614 120.793
16.0823 15.218 44.6327
12.4054 21.0805 52.4597
6.20605 11.0278 24.2156
9.28981 19.2346 38.3049
11.4848 17.349 45.4094
10.6287 32.9847 128.937
21.5702 12.1841 67.7589
15.9495 16.0681 67.185
25.7884 25.6884 55.9823
13.7497 6.36503 25.0215
10.6058 14.3726 41.1225
14.3915 14.8354 31.8801
20.9928 32.7943 107.417
11.3716 17.8214 46.0177
10.7038 9.53679 36.8097
11.7176 16.8856 32.6908
8.86921 6.21003 16.813
11.8101 25.0898 41.5122
7.02549 16.6666 98.8985
17.0638 6.46259 26.0506
14.137 18.9058 64.1082
16.1327 20.7244 52.7013
10.7814 14.1576 68.3671
11.2628 9.60615 44.4465
19.36 25.1034 52.0749
8.95918 9.44436 48.2164
10.4097 19.6057 70.6991
13.9766 24.2154 103.302
12.8865 15.882 68.4618
16.3162 16.5805 81.9869
12.897 14.2627 54.3282
10.3514 12.6059 26.944
9.91007 8.80725 37.2388
7.91035 8.16762 17.5994
6.41818 4.40461 15.3807
6.98436 16.0177 35.1519
14.9592 6.523 23.6226
14.045 12.2733 37.9301
6.38257 22.2365 33.6324
7.83918 14.1758 53.0489
12.6521 13.7545 52.5118
12.3604 10.9283 69.1625
18.4127 10.1856 37.248
13.4411 19.3554 37.1041
16.0328 21.4674 78.1521
15.7158 13.7128 76.7595
19.5478 14.6964 20.4789
12.9077 22.0325 65.5228
7.62889 15.9747 111.164
15.1439 28.2996 68.0638
14.7386 19.3969 37.1494
12.9064 8.46043 28.5786
7.24553 11.1431 29.2776
5.52589 12.312 36.1378
14.1597 8.42792 37.5938
12.5618 16.502 66.3308
13.234 18.7437 70.6582
10.5757 15.9468 37.7567
11.7637 21.6337 91.3089
19.8637 16.2003 50.2834
13.8696 10.7568 16.9965
13.5935 16.6361 63.0581
8.28979 19.2698 42.7084
8.05018 12.0159 48.1586
11.436 11.6388 28.6903
8.01322 12.104 59.2057
8.71089 6.72403 39.3334
13.3341 14.1496 25.5016
15.4916 24.0697 88.45
4.58447 14.3019 33.71
7.0075 6.81808 40.7105
7.48555 9.09361 56.0733
7.69586 5.26725 25.3929
10.2221 15.1553 56.7263
7.55979 10.6715 50.9516
9.72068 18.529 56.1942
11.4395 14.8925 40.1999
6.38826 21.5489 70.2228
16.7961 13.3022 49.8545
8.98318 8.88849 26.5467
13.1184 9.65325 33.6272
7.91829 13.2058 39.1522
11.313 12.1572 54.9788
7.73186 12.6059 50.2008
13.1206 10.346 40.7177
8.51651 9.33217 30.0863
11.9955 22.2293 65.8897
8.92275 15.8814 72.0631
6.89663 9.90556 30.0322
7.72581 10.3623 20.7393
9.11368 10.3563 37.4581
13.5077 9.2816 35.8158
15.3231 20.0815 49.2451
8.27464 17.6176 89.2285
14.1683 13.112 37.1845
7.54034 19.5834 49.1567
7.49351 6.64367 56.833
6.59136 10.404 33.7038
4.86205 19.7861 71.6029
11.953 7.78302 16.1978
5.00768 17.7667 80.3579
11.1421 15.0611 59.1226
17.9745 21.7639 67.1936
13.131 23.3819 77.4084
13.2583 8.06517 33.9405
10.5046 8.14583 45.1401
6.58008 10.7971 24.6563
7.12246 12.5825 48.6586
12.3831 28.6892 81.2339
14.4526 14.3886 105.233
12.7147 17.8297 39.3881
7.24104 23.6169 111.171
12.798 21.3563 40.6521
8.36913 7.66203 32.4881
10.0688 12.072 48.3975
13.5005 4.78085 11.5941
9.0657 3.93408 31.1806
8.18453 7.23884 42.131
10.7 11.6909 28.3361
6.77496 17.57 42.3568
11.0088 11.3 24.146
7.05352 8.68967 51.8591
13.9906 9.16591 25.6172
9.67229 10.4099 49.6622
9.00192 14.6225 32.3963
4.65376 19.4771 64.7622
14.4978 7.14961 16.3886
9.58883 16.8035 91.2379
13.1099 10.7737 52.012
12.1212 11.327 54.7054
11.9686 19.5753 65.9355
8.57682 27.6358 98.3088
19.2455 17.5576 56.3989
15.8072 16.6327 27.556
7.69984 18.5385 85.5309
10.1788 14.8465 46.6492
10.843 23.7491 92.3136
15.5959 19.611 41.6356
6.73529 11.5866 77.9332
8.18064 22.402 61.3684
14.7256 9.70995 74.7693
12.3763 11.8759 21.9479
12.8046 15.9695 45.6563
10.7255 6.59611 23.6847
7.97565 16.7599 62.8514
5.46132 10.4492 51.1129
8.35983 19.6829 62.8112
6.13434 7.01187 20.9516
8.18496 11.6089 55.6736
12.4676 21.8153 36.4117
7.36464 27.3985 83.2744
14.0728 13.9689 61.311
12.6061 8.11669 51.0805
11.5991 5.09213 39.7245
8.86692 9.41167 21.7555
7.4844 9.29847 26.3566
8.08165 11.8304 77.313
10.6812 19.7174 35.8022
12.9283 6.66202 29.7692
6.31268 11.0675 41.567
11.0395 6.41773 25.5575
11.3931 20.7525 65.7697
10.3188 13.4656 57.6712
8.69448 10.2661 38.5122
12.8674 4.59443 27.8272
6.59518 21.7277 53.6431
8.00363 7.72135 48.8377
10.2835 11.9749 66.2862
17.8826 26.1226 65.9689
10.9952 18.5385 81.1187
6.10078 47.3059 163.13
20.9563 13.2105 55.3405
8.6994 14.339 36.4327
10.583 6.23371 37.908
9.77813 16.2535 66.6197
11.7191 24.3267 80.4357
10.362 11.9396 27.9135
10.711 7.88342 65.0079
9.50773 22.3176 59.3029
13.273 16.1302 63.2447
11.2822 20.1472 52.8541
6.92096 14.7177 58.734
9.24612 7.40381 22.65
8.15993 8.19552 57.5956
12.8658 15.4135 52.9288
13.8828 28.2017 80.3262
15.165 9.77479 55.5942
8.9884 10.7064 18.7271
7.35025 2.20938 14.1542
9.17349 20.98 129.235
12.2329 22.78 70.1565
13.2919 10.3005 25.1231
5.8087 7.7591 60.159
10.3384 16.3221 31.2574
9.78338 8.59021 32.6652
6.08705 6.00738 39.8874
4.86309 9.06979 17.5795
7.43775 18.6665 111.785
17.1304 15.8135 37.4481
13.1735 12.6743 60.5567
12.9041 11.6431 39.6395
12.3088 13.3218 35.7124
10.9892 15.9507 38.6682
4.47439 5.91154 49.8028
14.0776 14.976 28.7632
5.88017 8.15615 23.6599
6.52303 5.46235 47.6829
6.57641 17.3777 42.1439
4.74073 11.2009 116.379
8.11123 10.2965 38.1771
5.78357 12.4356 31.3818
11.194 18.805 60.8015
5.78448 7.41322 25.3323
5.26642 9.13105 33.9849
6.73312 15.4099 55.1113
9.28422 10.6501 31.6374
6.14898 11.6893 52.5947
7.01851 16.4868 45.4712
7.45538 7.89339 54.8025
11.7497 20.8931 41.2975
9.45182 12.179 79.2658
13.4167 22.7896 56.9859
9.653 4.55069 17.4576
6.38686 3.91303 23.1453
4.84596 12.852 45.0088
11.9903 14.1659 40.6689
11.993 6.03845 27.4167
8.59305 13.7698 34.2853
11.8411 11.326 81.9386
10.4473 17.0214 47.7257
11.4985 12.6457 55.8682
10.5075 12.3553 50.6675
10.6843 27.7495 86.2025
13.2246 13.2911 79.1284
19.7141 16.4531 55.2187
8.77508 8.62414 30.1989
9.92937 10.2634 71.7084
8.74326 19.353 85.3253
20.7792 23.3274 37.4897
9.21488 14.7106 75.5858
13.7329 12.2433 65.7714
10.3514 18.2298 52.4304
7.37322 8.64742 51.2712
9.93347 23.0607 88.8952
11.3196 20.9456 64.4741
11.6746 6.4624 28.0867
7.22285 11.9287 47.9881
9.59476 15.24 68.2673
10.4033 4.64647 51.8208
14.0506 25.8849 68.347
11.0213 12.2456 40.0196
2.84766 18.3325 36.1587
10.0043 9.0983 54.765
10.9982 17.3121 68.1907
14.3152 15.1506 41.1706
10.2833 5.93274 35.2914
10.1777 15.8252 70.5226
8.93525 15.99 75.9569
12.5523 12.6223 37.2856
8.67724 10.6607 49.3293
7.68787 15.0233 40.566
5.76617 9.00692 36.564
6.77863 15.4731 41.5944
9.00745 19.5054 97.474
15.8213 18.9324 119.419
11.3868 27.1567 53.6063
7.9135 5.69873 59.3516
8.51333 12.2538 34.4858
8.63594 8.68577 36.1213
8.26708 8.7869 74.4826
9.48162 35.9521 111.757
20.2035 14.2219 15.6675
9.64225 5.7093 23.4782
9.157 8.30625 41.9315
8.97646 9.1769 33.1375
12.041 6.99706 37.391
11.2519 7.05995 14.929
6.21911 5.34471 37.1882
11.4149 23.8249 89.0917
5.91538 15.9792 59.4042
10.817 14.0194 81.6147
11.4383 18.9795 24.2535
8.22498 6.96684 72.9147
10.0088 19.2613 35.8769
6.56498 11.1691 42.719
7.93654 12.4845 72.7242
13.7013 19.2288 73.0686
14.5109 20.5101 64.4815
5.44897 15.0393 41.0381
10.372 6.03072 50.5212
13.4337 12.2663 34.7535
5.76386 11.9526 41.0513
7.0029 6.41202 28.1081
11.1017 15.3128 113.705
18.3386 23.9527 34.2647
5.26545 12.0625 38.0122
6.32057 5.74732 40.5555
11.5453 10.4574 54.3506
13.1942 17.5495 49.7659
6.93159 14.4857 52.0918
8.36876 6.99983 39.2916
6.59451 5.96551 63.3446
9.09591 20.6612 70.5145
11.6048 15.4843 39.3257
4.16517 13.0302 62.6205
7.13605 8.09973 34.562
6.30058 14.792 52.8
14.5392 12.115 77.5039
11.8015 17.0853 23.7563
5.38634 5.91786 36.8558
8.77311 16.6627 76.3702
12.0552 18.6162 68.6015
12.7725 15.789 59.772
10.5426 12.632 53.7085
12.6591 17.7619 98.7559
10.9524 22.9255 25.0628
6.32434 6.4295 38.043
10.127 9.2353 33.4187
8.12795 8.63231 78.1463
13.8815 18.0432 22.8415
5.92195 10.8003 66.0122
11.6696 14.9883 30.1651
5.97156 11.8249 89.4687
11.7435 21.5449 98.0133
19.2472 27.4424 58.7423
10.5971 15.8254 33.3175
3.68312 4.41898 38.3502
5.548 10.3853 54.9122
14.4078 13.1322 33.6473
4.40198 8.37927 47.2298
10.9753 8.05608 32.57
4.19091 12.9916 36.2521
10.1835 5.76414 25.8032
4.97978 2.61942 37.3402
9.933 14.6509 26.7532
7.34924 8.42326 71.2534
7.7842 19.3042 48.4302
6.01234 8.15145 16.7938
5.8303 10.6324 105.817
10.465 18.7164 42.6548
7.78597 17.9076 31.8782
4.51623 24.3084 114.159
19.5972 19.1466 50.8875
5.97223 12.4403 54.0593
11.649 15.0134 92.9851
18.1922 11.0691 28.428
4.38121 10.7624 38.4723
10.313 11.4251 38.7603
9.548 11.6285 81.0213
14.566 11.4158 48.4492
7.77755 13.8351 54.0974
12.5308 17.5472 90.0432
18.3955 8.29884 9.65615
7.05268 4.81219 41.5721
13.6648 15.8322 49.6357
14.941 22.8464 47.7471
5.65034 6.74457 29.1385
6.27144 12.2869 39.398
8.72412 8.62313 108.39
8.29625 27.8805 53.7062
11.5889 5.44594 38.9231
8.24003 7.79783 53.3047
12.9821 11.3957 32.8189
5.66168 7.1849 75.6361
5.56891 22.4287 40.9583
9.58531 14.4948 67.6024
16.4151 6.25126 40.0406
9.24017 7.63694 90.1612
14.4874 17.1342 37.4807
9.46521 8.54376 23.2812
9.71466 8.33803 30.7987
10.7983 11.9515 24.0438
5.30638 14.8949 81.0601
9.88742 14.584 40.1076
8.25699 14.1869 70.253
16.1733 13.2798 70.2123
11.0693 9.73227 75.354
11.5318 29.2715 53.3222
11.5063 13.1422 91.3785
12.2594 16.5482 27.6579
7.34623 3.21857 17.5792
7.50786 5.82315 58.7118
10.491 18.006 67.943
9.5756 11.7078 27.2036
4.80406 17.901 36.8409
8.23691 7.67006 35.6291
10.1736 11.3555 58.4698
3.15095 19.6311 58.0158
10.8511 12.4166 48.0395
7.87989 7.37101 38.6431
10.883 9.59395 49.8372
6.42249 20.8287 99.2079
19.4538 10.6967 41.4223
7.86772 10.5282 25.1952
7.18958 8.63131 76.738
10.8406 19.3852 48.6469
7.56404 14.5475 81.9027
10.2327 11.6499 28.7162
8.91969 20.7507 99.0509
14.35 13.2713 30.1552
7.80069 10.5804 43.1048
7.85631 9.35938 21.955
5.9816 15.9683 81.6864
8.86266 10.9193 52.4326
12.5462 7.62846 19.584
8.48337 14.6431 79.6664
14.7341 15.5648 71.6414
10.0696 14.102 31.3385
5.21278 12.4225 39.1302
6.12624 7.37936 50.47
11.1982 12.4928 48.1763
7.09068 13.7635 35.6105
12.2606 0 0