# pn-170911/CsIIA-38-CsII-1280-1959.psd
# Power spectrum* (dif=0,1,2) (really just |FT|^2)
# NOTE: only the first half! (symmetric)
# weeks: 1280-1959
# 513 clock-days, 255 excluded
# PSD: 1441
178287 5.16101 0.071263
4.47858e+06 74.6774 0.0881913
2.84219e+07 556.246 0.0924663
3.84342e+06 146.647 0.0840425
2.84006e+06 196.479 0.0922822
1.41038e+06 137.18 0.0982729
991911 150.466 0.108269
701312 141.34 0.121929
591067 147.665 0.124197
392413 129.009 0.123526
399831 148.37 0.15163
293784 132.83 0.153548
254880 135.385 0.171963
209380 138.359 0.189583
201287 137.778 0.200425
155615 122.829 0.210319
156437 138.711 0.261148
132969 141.924 0.27316
116752 131.034 0.274384
98044.4 130.397 0.309339
95567.3 127.4 0.306016
78297 128.721 0.34192
82334.8 140.754 0.398841
70146.8 138.994 0.444399
67110.7 139.15 0.453918
61307.3 140.878 0.514391
61313.6 142.943 0.554793
52942 138.416 0.548269
51958.6 141.723 0.617411
40360.1 125.687 0.562806
41980 140.07 0.691756
38595.9 139.227 0.720017
36704.8 128.967 0.703379
33879.7 137.156 0.787934
30099.8 129.124 0.79903
28469.3 130.423 0.848534
28055.6 132.784 0.923943
27336.2 141.287 1.01061
25162 126.384 0.9184
25535.4 137.79 1.07354
24480.2 143.017 1.17936
21965.8 136.257 1.17374
20046.7 131.151 1.19706
18473.5 128.526 1.20177
18041.9 132.732 1.30333
19550 139.025 1.36947
17707.1 136.188 1.4822
16879.7 134.992 1.49293
17313.6 136.722 1.61259
14872 130.846 1.56067
14803.4 140.894 1.70179
14349.8 133.101 1.73932
14321.6 131.491 1.79298
12995.1 136.732 1.89083
11506 119.09 1.69892
11916.3 132.835 1.99927
11657.1 134.117 2.06355
12337.7 145.474 2.37691
10306.7 118.797 1.98201
10120.8 123.496 2.09434
11322.5 136.531 2.41991
10322.1 132.723 2.44415
9616.03 124.46 2.34749
9076.86 129.92 2.48376
9683.43 132.862 2.63409
8770.02 129.913 2.65716
8371.66 128.994 2.70183
8158.37 128.995 2.86033
8452.28 126.487 2.89151
7899.9 137.351 3.21337
6839.28 114.638 2.73852
7175.26 125.995 3.12905
7325.18 126.09 3.14526
6791.49 134.535 3.40578
6478.63 122.359 3.2717
6727.38 130.903 3.54255
6698.26 133.32 3.73609
6269.91 133.432 3.7996
6080.76 127.516 3.78139
5458.69 121.441 3.69623
5938.71 133.914 4.13275
5782.81 138.794 4.26859
4899.79 117.81 3.85429
5001.28 132.062 4.43771
5447.78 134.079 4.59002
4607.98 123.735 4.26088
4754.99 125.172 4.50049
4558.82 126.099 4.55841
4371.9 119.653 4.46238
4282.73 122.21 4.64372
4523.04 123.527 4.86048
3836.97 121.016 4.78323
4164.45 124.078 5.03641
4077.13 124.965 5.25714
4071.43 128.116 5.47343
3790.25 121.199 5.36307
3891.17 116.318 5.20191
4048.67 130.326 5.89518
3558.67 118.9 5.51275
3685.47 129.003 6.06924
3604.36 118.23 5.68356
3596.95 126.028 6.17201
3202.48 110.663 5.57337
3085.65 114.336 5.74203
3369.5 117.092 6.0749
3431.61 122.521 6.46482
3269.15 124.835 6.72743
3004.16 115.263 6.25853
3255.42 123.247 6.92496
2830.18 114.479 6.48543
3034.27 123.633 7.17591
2754.37 114.016 6.71928
2620.57 113.199 6.77226
2702.83 121.409 7.40224
2706.4 115.974 7.19201
2473.82 111.232 7.08696
2570.39 111.699 7.11908
2565.46 120.81 7.88586
2549.67 118.726 7.93967
2372.69 112.7 7.64169
2445.78 116.371 7.94203
2111.74 114.809 8.08262
2342.02 119.792 8.55408
2239.28 115.85 8.43104
2180.63 114.282 8.24464
2191.76 116.396 8.65033
1972.29 110.149 8.29244
2160.16 122.555 9.35279
1984.95 117.457 9.22551
2062.18 119.87 9.40043
1906.28 109.218 8.77932
1843.2 104.677 8.5509
2046.34 118.308 9.89884
1854.81 119.29 10.1121
1888.99 115.782 9.8763
1914.46 120.266 10.4003
1850.82 109.305 9.51334
1910.33 108.911 9.68893
1710.02 109.475 9.92168
1698.9 107.361 10.0048
1775.87 109.409 10.1406
1667.72 104.472 10.0042
1670.72 114.781 11.0805
1798.41 115.747 11.3387
1698.76 110.66 10.6719
1694.01 115.539 11.5278
1603.08 113.119 11.5015
1612.23 111.306 11.3332
1511.98 110.023 11.5521
1512.96 104.962 10.9949
1558.38 110.366 11.6839
1473.27 109.874 11.9256
1518.6 106.573 11.7959
1457.7 104.305 11.6133
1327.3 98.8532 11.0711
1347.04 108.49 12.3164
1403 113.557 13.1358
1225.62 98.7394 11.6855
1312.36 106.524 12.6053
1377.38 113.9 13.7541
1248.29 109.819 13.2104
1296.04 107.924 13.3108
1176.71 104.502 13.0901
1216.2 104.394 13.0495
1138.23 100.966 12.9528
1202.93 100.469 13.0552
1134.09 107.736 13.8069
1198.82 107.215 14.1207
1085.61 100.486 13.2096
1046.24 104.673 14.1336
1084.24 105.667 14.499
1027.3 104.13 14.4494
1013.34 97.8317 13.4308
988.669 100.998 14.2662
1048.6 100.878 14.3462
1030.71 105.731 15.1552
954.504 92.6926 13.6452
1102.47 111.836 16.4186
970.692 102.71 15.3796
1015.19 101.55 15.3125
1044.04 101.598 15.5165
968.842 99.7157 15.2905
1071.54 103.825 16.1207
907.028 96.508 15.2669
946.689 97.1751 15.3892
898.975 99.4031 15.9569
976.38 98.2983 16.0273
967.608 99.9999 16.212
862.315 98.5453 16.4422
826.404 96.4788 16.3602
886.52 97.3826 16.5293
818.04 98.4968 16.9318
901.241 98.2311 17.3203
814.635 95.8054 16.7348
814.463 92.0515 16.1451
829.672 96.4036 17.3111
857.588 104.238 18.7749
815.68 100.916 18.2956
844.533 102.939 18.9549
746.345 93.7478 17.3778
735.017 92.1335 17.262
727.76 93.7086 17.8468
753.735 98.6885 19.0612
725.015 92.2525 17.6311
689.453 90.773 17.639
712.376 95.3523 18.7586
687.901 94.0274 18.5833
690.12 93.7702 18.8252
694.859 93.0362 18.9984
629.101 89.5037 18.2523
632.225 94.5181 19.4492
642.348 93.394 19.3862
655.201 95.9001 20.305
626.405 93.2175 19.8485
596.811 87.4312 18.9235
625.666 95.3469 20.4051
619.169 88.8297 19.5155
662.802 91.6237 20.0217
624.372 91.5146 20.3986
649.953 94.5759 21.1619
623.933 86.989 19.7617
606.466 92.5601 21.0446
630.069 90.0072 20.7266
588.981 89.6921 20.983
585.919 87.4516 20.6133
617.741 93.0217 21.8179
591.436 86.749 20.8563
551.15 84.5751 20.3284
578.587 89.4146 21.6736
580.362 92.8436 22.5743
576.475 89.6993 21.9419
549.168 88.2038 22.2463
547.176 87.5294 21.9054
509.385 85.4661 21.9107
560.225 97.6571 25.0794
551.16 91.766 23.8199
553.117 89.0965 22.8879
463.679 88.262 23.4173
493.587 83.541 21.8731
486.756 82.5888 22.2157
519.623 85.7566 22.9215
485.415 91.4385 24.7336
482.069 82.3449 22.3427
470.583 84.7878 23.5133
469.177 87.8071 24.5889
427.476 80.9082 22.6793
447.531 85.3576 24.3958
463.282 89.3142 24.9296
456.511 83.1488 23.5771
469.005 88.0166 25.3204
419.582 86.5993 25.0678
464.111 89.4211 25.8492
395.826 79.2014 23.684
416.047 83.5956 24.8812
415.187 81.1195 24.2525
394.711 81.3924 24.8606
422.466 81.6579 24.913
423.94 83.3154 24.9733
430.344 84.4853 26.1026
410.256 87.3098 27.1703
397.985 85.3612 27.4572
387.631 82.4589 25.3554
364.562 73.2739 23.4223
365.141 78.6856 25.4142
430.028 81.9098 26.0849
378.426 81.7156 26.4436
427.915 86.8891 28.1481
385.424 84.6753 28.0508
407.892 77.6546 26.2389
369.198 83.9361 27.9525
378.978 75.7808 25.4148
348.901 75.5059 25.8776
402.317 77.0276 26.118
354.418 80.8536 28.1418
405.962 82.4626 28.5689
344.237 79.5294 27.9082
357.998 80.4698 28.0712
333.528 81.8805 29.2097
368.599 74.3695 26.6585
353.296 80.8674 28.5965
346.832 79.7679 29.2138
314.564 76.6275 28.3039
333.221 74.6314 27.2791
299.556 74.647 27.878
324.171 70.7628 26.0792
293.805 80.5354 30.3215
308.861 75.5175 28.2454
328.695 82.1931 31.3548
294.552 76.1937 28.8234
293.775 78.6401 30.0175
269.756 76.5237 30.4358
274.591 70.3013 27.4428
298.694 79.8875 30.974
284.927 75.8911 29.7887
293.999 76.4909 30.5382
282.424 80.9994 32.7782
288.093 75.45 30.0119
263.888 72.6198 29.3612
261.29 70.1959 28.9086
252.331 75.1168 31.506
256.602 71.9588 29.907
261.284 75.075 30.957
285.482 76.1607 31.6925
280.708 78.6715 33.1793
270.359 68.5967 29.5325
278.791 71.9735 30.7018
279.097 73.7173 31.4695
249.787 73.0116 31.6626
292.113 78.2626 33.644
263.132 72.4041 31.6682
296.728 77.6059 33.8623
245.966 68.5969 31.1034
279.643 73.0004 32.2997
255.254 71.9641 31.7527
271.593 73.8413 33.6927
224.16 69.2629 31.5052
282.954 77.778 35.6806
249.329 74.1831 33.2676
254.856 69.0443 31.6641
246.511 75.0856 35.4203
265.013 70.8873 34.2264
235.645 72.027 32.9013
258.142 73.0719 34.6311
229.664 72.5508 34.8586
232.528 68.5753 32.3312
224.691 68.1927 32.8553
233.158 72.3669 35.5764
226.014 67.9375 33.1386
220.918 69.9244 35.576
225.001 72.4819 34.743
222.298 72.9318 36.3466
203.046 68.7327 34.8182
216.09 68.6438 34.034
208.266 69.0493 34.9551
215.748 70.8309 36.6965
210.262 66.632 33.5469
212.398 73.8004 37.1119
190.761 64.945 34.992
200.965 66.3469 33.7897
199.487 73.3592 38.1065
205.361 65.6624 34.3074
201.501 67.2734 35.5082
205.559 69.2339 36.2257
213.488 72.7923 38.9476
213.42 71.6961 38.7194
196.335 67.6119 37.254
210.221 65.5988 35.0543
199.182 68.3668 37.0315
214.255 68.3985 37.0342
197.606 68.3839 38.2464
192.322 64.5698 35.5871
179.922 67.5542 37.3185
212.357 65.6579 37.3246
190.636 60.8081 34.1581
201.676 63.5909 36.0138
194.136 65.1718 37.9439
210.737 72.1982 41.5931
200.67 67.1936 38.5496
197.779 61.175 35.3004
190.599 67.1168 38.9026
200.449 66.6782 39.4932
191.147 64.6747 38.717
192.311 61.8993 36.277
176.844 62.7886 37.6233
200.251 71.5363 41.435
180.41 65.443 39.5229
171.383 61.3038 36.7176
178.913 67.2902 41.396
169.3 65.6157 40.3305
176.512 65.6168 39.6367
176.481 63.0528 40.0841
168.219 62.33 38.5137
176.999 64.9135 39.3725
166.99 63.5118 39.5961
167.433 66.0327 41.8005
157.59 61.6181 39.1556
164.013 61.8964 39.3395
165.058 63.4666 40.2231
167.422 60.6911 39.3898
157.481 60.8724 39.1516
159.999 57.9555 37.1894
152.082 60.3435 39.9813
174.067 64.3111 41.9278
161.432 65.8645 42.8704
171.699 62.0506 41.9956
154.34 63.2208 42.2054
167.907 60.5306 40.5021
159.924 60.8453 41.1649
155.518 60.6854 41.248
158.076 63.9078 43.6462
160.752 60.3579 40.6001
153.671 63.6617 44.641
172.059 60.1437 40.3975
153.671 58.444 40.5094
173.503 62.2805 43.2705
153.147 59.4849 41.5997
176.887 63.6408 43.6755
158.59 60.9314 42.4778
165.859 62.7813 44.0404
159.797 61.7831 45.0054
168.367 63.2694 45.1055
149.665 59.7827 42.5687
153.448 60.1207 43.3539
158.977 60.2614 43.2311
151.56 60.8874 43.8156
142.201 58.6123 43.1525
152.242 65.8469 47.9638
142.306 60.5851 45.851
142.667 57.0325 42.0475
131.792 57.9027 44.0093
139.637 60.8159 45.5379
140.669 61.4531 44.5877
129.548 57.1993 42.6137
133.633 54.0598 40.952
142.117 62.7972 47.5328
128.259 57.8567 45.8209
137.97 62.1451 46.5959
127.234 56.2525 44.8806
137.684 58.646 44.7934
127.307 55.5372 43.6022
138.02 59.7326 46.0332
119.156 57.2219 44.3362
135.754 60.3118 47.3658
139.881 61.2063 48.8049
135.522 58.7623 46.2724
138.765 58.8208 47.0472
133.456 57.2739 46.6266
129.894 55.7167 45.0221
129.661 56.7899 46.7259
124.914 56.9499 46.6125
124.524 54.5148 44.2546
133.484 59.833 50.4996
134.489 54.8708 44.3457
132.142 55.9584 46.5272
129.017 52.9466 45.4946
132.706 56.5833 46.1131
127.268 54.3957 46.3148
121.488 58.4799 50.1594
138.612 54.9804 45.5494
127.94 59.3801 50.2439
139.48 56.8689 47.7938
120.072 56.2796 48.4067
133.644 60.9152 52.3821
113.946 54.6436 46.3994
117.66 50.6369 43.938
116.844 52.6857 46.046
117.239 58.2447 51.8986
121.55 58.188 50.0273
115.856 54.019 47.1211
117.433 54.2285 47.1797
115.81 54.2621 48.3554
107.873 53.6287 48.3281
119.364 55.0137 49.2953
112.496 53.655 48.7602
109.339 55.9221 49.6161
113.009 53.0745 50.0729
116.249 57.0974 51.397
113.119 54.6798 49.806
113.369 59.767 54.1043
111.841 55.0172 50.664
105.128 52.4133 47.9705
115.498 54.3565 50.7538
102.159 48.7753 46.4679
101.514 54.9178 51.3561
117.268 57.0231 53.875
106.861 53.9376 49.7602
100.913 54.8672 52.0871
102.109 50.4635 47.3465
97.1187 48.8072 48.1707
104.683 52.522 50.1773
113.534 55.3568 51.2343
100.271 53.6726 52.1878
116.703 52.9226 51.6597
105.43 52.9039 53.0898
115.644 55.191 53.2811
103.019 47.2751 46.9223
107.596 49.2998 48.3887
102.243 54.2457 52.2962
114.045 50.3926 50.1487
113.115 54.5804 54.8249
114.68 55.625 56.1339
93.2477 48.4473 49.0018
113.627 52.5888 50.1842
100.777 49.3688 51.0549
103.544 48.7885 49.8749
98.3056 53.076 53.9707
100.42 51.1666 52.9761
102.957 53.7107 54.076
101.519 50.0677 52.3365
106.328 52.691 53.2198
92.0762 49.4129 52.5028
86.8529 47.7304 49.5551
97.6062 51.2023 53.2559
88.1025 46.6847 50.1903
98.4547 51.2114 53.6901
87.325 47.7141 50.0436
93.159 50.8902 54.5888
87.2476 47.4901 49.4305
88.1102 51.2153 54.4513
85.4241 49.4766 53.3207
89.4476 54.2551 57.7114
88.8886 49.9505 53.1886
83.0508 45.5776 50.9575
88.1628 48.4028 53.6492
89.2122 49.8326 52.7059
85.0623 52.5812 58.0288
84.0705 46.7137 51.298
91.5478 47.88 52.9679
92.1146 51.6741 56.523
91.8447 51.9693 57.7666
91.5118 54.5736 61.3555
88.0274 50.3462 56.7984
88.1968 46.8241 52.8296
98.0169 53.1253 58.0555
89.7907 52.0591 59.7807
85.0275 47.3679 52.9204
92.2789 50.6411 57.1161
84.7036 45.5063 53.6506
90.204 49.8456 57.2127
89.5636 48.3415 55.2767
86.193 47.6048 55.0171
88.9584 47.9566 54.6379
90.8483 47.0208 54.56
81.2985 45.3691 51.2163
87.8623 46.7408 55.7652
82.5596 48.0307 55.6519
94.4579 48.6561 57.8963
72.7968 42.1226 50.1404
87.3276 47.0538 55.9104
80.4936 48.9071 57.2796
80.0271 44.1624 53.6981
80.2439 46.1511 55.5767
81.4 42.7288 52.1402
82.1594 53.6885 63.2209
81.4762 51.044 63.9227
75.4195 44.3682 53.6171
77.5018 47.5425 57.757
75.6224 46.8734 57.8746
71.0838 42.8868 52.8341
73.8524 46.9012 57.4263
74.7275 42.7945 51.83
73.2755 46.13 57.7862
73.9379 47.2577 59.1144
71.9777 48.5799 57.5198
74.8418 45.343 57.639
72.8563 47.7456 59.2303
75.2694 43.9374 55.2388
65.6587 43.4142 54.9167
76.8597 45.3367 58.155
70.9947 49.3006 61.3403
74.0677 46.8788 61.3795
72.0395 44.6719 56.9573
76.8787 44.6261 57.9083
66.4025 43.0047 53.9146
75.9291 43.5193 56.1461
67.9458 40.7274 53.2149
75.6041 46.3071 61.0209
69.6662 45.3107 58.8319
80.0511 44.3971 57.334
68.1987 45.6442 59.4754
74.564 42.8824 57.205
69.801 44.543 59.566
77.937 45.2368 59.6813
68.2977 42.3345 58.4173
76.7724 43.9819 58.0176
68.1258 44.6945 58.9955
74.6131 45.8182 60.388
65.445 42.0471 58.7349
78.8744 46.0357 58.9403
66.1376 44.1069 60.6189
70.0946 41.2348 56.7531
67.7402 42.8583 57.8685
70.583 43.0253 56.5197
61.6798 43.6832 59.493
66.9778 45.0196 63.6245
65.1175 42.4509 57.2586
64.5085 41.4916 55.5278
59.6874 42.7788 60.8448
59.6769 41.8254 58.0828
62.3394 45.6169 63.619
66.1599 43.7779 59.3655
53.5155 41.5956 59.9235
60.4373 41.9114 59.8269
59.3379 41.9689 60.3685
60.2607 45.3664 63.234
55.8114 46.4177 67.2359
56.7373 42.0593 58.578
61.7735 43.7383 61.0542
59.1207 42.4188 60.9512
61.9683 41.1138 60.7601
61.1291 46.6188 66.1671
55.5228 43.6058 62.1031
56.9659 40.3759 58.8394
60.3436 45.6464 64.6707
63.1053 39.9811 59.2951
56.0469 40.2184 57.7104
60.9243 42.8171 63.4934
55.9714 38.7225 59.3445
59.5833 40.4944 58.3702
53.1185 38.8446 56.9706
59.5489 39.7635 58.9842
55.2946 40.2327 58.7594
59.022 40.6764 63.1412
58.9686 42.8185 61.5886
64.1951 39.1135 59.0558
53.6237 41.0061 61.8927
61.3634 37.3615 53.7116
56.1267 40.7035 62.9203
60.7808 41.5191 63.7307
51.7727 41.9644 67.1575
61.8669 42.1564 61.184
55.1008 42.149 65.8497
58.4426 39.3955 56.283
58.2189 44.1884 68.3693
63.7977 40.0789 59.8694
51.0261 42.837 66.5056
53.8963 36.651 56.379
50.6812 40.2693 63.1977
55.9782 41.6913 66.4229
51.5935 41.257 65.0473
48.3274 36.3698 58.8719
52.5803 40.6497 62.6238
47.662 39.1588 61.3868
51.5242 40.4325 63.3683
51.3148 41.2713 64.8788
48.0953 40.1956 64.1713
49.9856 40.6152 64.1594
53.3571 39.0554 62.8127
47.5776 37.2404 61.3256
47.7009 37.6376 60.5519
48.7692 41.3962 66.5384
51.0699 42.2203 65.6486
49.02 38.0437 61.7748
46.701 37.7292 62.4826
51.258 38.2954 62.0543
44.5175 37.5428 61.0483
55.587 39.8486 64.442
49.7124 39.2132 64.9787
52.2236 39.9059 66.166
49.3736 39.2693 64.3842
50.7967 40.2686 69.1443
50.7728 40.3875 67.1096
54.3458 40.6266 66.4909
48.7132 36.7676 59.0222
53.9452 37.4304 61.6174
46.2384 37.0037 64.1298
54.2128 39.2032 66.8681
47.4019 40.3227 66.0573
54.7775 38.5728 63.9401
49.1778 37.74 65.1909
51.5202 35.5647 61.5295
48.4488 38.4988 64.9909
52.71 38.8934 65.5084
48.7985 39.8547 68.2955
51.7657 39.331 67.816
46.8241 36.6697 63.0317
51.4822 37.6308 61.7761
43.4833 35.3772 62.7327
49.5716 35.9549 64.6448
46.1874 39.5014 67.6637
44.088 38.9931 68.7836
43.7379 36.6868 62.5282
43.8309 35.4808 64.9477
43.4043 36.8272 65.582
46.0969 36.8494 59.7676
42.8906 37.2911 65.5603
45.7299 39.5043 67.1973
38.8054 35.3191 62.8452
42.6998 37.3846 67.1072
44.1293 37.5723 67.1497
47.6313 36.2806 63.9044
42.4196 38.5211 68.0835
47.228 37.2134 66.8619
44.454 37.7488 69.7789
46.6305 37.9917 67.544
42.6513 38.5942 68.2218
47.6082 36.0869 66.6514
42.8678 36.7276 66.7389
48.5736 39.6654 71.9776
46.0261 37.666 69.0821
45.0742 35.3253 62.5863
44.0715 36.5591 67.3027
47.3206 37.3995 69.4696
43.6598 34.8893 63.9698
46.7873 37.0789 68.8123
46.2973 36.064 67.2853
48.9092 37.7459 68.3724
45.9613 35.0193 63.2404
45.5904 37.3222 70.8588
41.8256 35.8118 69.8037
46.8283 37.2465 68.7005
47.1161 36.7685 66.1456
44.3074 34.6183 64.8078
46.9267 37.3606 68.2358
43.556 35.7864 66.6176
42.687 36.9255 70.959
43.0456 34.3798 65.8142
43.0881 33.6556 65.8981
45.918 35.9767 66.1639
41.1874 36.0656 70.3148
44.9363 36.945 69.8187
43.1973 35.2151 66.5614
43.3626 34.9273 68.762
38.1768 32.5234 60.8431
38.6899 34.5303 67.3818
39.6233 35.5542 68.8649
42.3198 34.7471 65.3897
39.7209 34.3826 69.6895
42.0191 34.6296 68.243
40.1172 34.9346 69.3311
43.4025 36.9188 69.0658
38.458 34.1261 67.6223
37.9771 33.2214 64.0834
41.3662 33.0729 64.0013
38.6275 33.5322 64.9782
39.1434 30.6522 63.023
38.5489 35.1865 66.7619
37.3335 32.7272 67.1025
40.5356 32.2041 63.7724
41.5254 35.3415 67.8461
43.4519 34.8017 67.2866
38.0567 31.6415 64.8455
40.2526 31.6941 65.6643
37.7594 33.5226 69.1641
41.7557 34.2003 67.0369
39.0714 32.1392 68.2777
41.2526 35.4122 72.1476
39.6307 32.4833 68.1515
45.1588 35.038 65.3597
40.1001 32.7794 65.6218
44.2329 35.8922 74.6898
37.0351 32.6579 65.5025
42.037 31.1156 61.8832
37.8852 30.6162 64.5994
42.6266 35.2424 66.9029
38.8596 35.0979 72.3724
41.9305 31.3622 68.185
37.5895 32.6336 65.7253
38.4963 32.3037 66.1471
38.7101 32.9673 68.9168
38.1472 32.7812 72.0414
38.1844 34.0187 73.9832
39.05 33.6798 69.3057
38.2324 34.2824 71.122
39.2307 35.2539 75.1137
40.9511 34.065 70.2874
37.9758 34.2501 69.3062
35.5733 30.8831 66.629
36.7101 33.7674 70.8147
37.6609 35.8417 73.7345
35.1247 31.7709 70.3116
37.579 30.5411 64.7249
34.0865 32.9191 71.1179
35.6857 32.5528 68.6316
35.7788 30.5121 65.0929
35.2058 33.6001 71.5566
37.0399 30.9358 66.9299
34.551 31.7813 68.0869
36.1336 32.0403 69.7403
35.5073 30.3553 67.458
38.318 32.1797 67.865
34.7474 32.4054 72.8257
39.1776 30.3626 66.9014
39.9314 32.8242 66.3162
35.4281 33.9911 76.3013
35.1546 32.6226 72.3335
40.5986 32.7505 72.4997
36.2277 30.0881 66.2434
40.7661 31.2374 68.1405
34.0269 30.6997 69.0079
39.9042 32.2504 69.4052
41.1237 30.7864 69.6247
39.1659 30.9539 67.8917
37.6022 33.1249 71.8171
38.762 30.1944 68.9683
36.424 32.2741 74.1655
40.1612 31.2681 67.2508
35.2476 32.5783 75.6588
38.4064 31.0094 70.1731
35.3433 30.7958 69.2712
39.4354 30.2263 66.0998
36.8315 33.133 76.831
38.1134 32.9821 69.6078
32.5032 32.4172 78.3094
35.8958 30.1573 67.8753
34.9532 31.2717 72.3454
37.7348 30.6008 67.4165
31.0154 30.0287 70.8965
37.0529 32.2813 75.0978
33.8242 29.6229 66.9947
36.6233 30.6067 68.6558
32.8758 30.9639 69.6712
33.9781 30.3749 66.8085
32.7609 31.1548 74.1733
30.2709 27.7543 66.0247
33.6395 30.2063 72.6147
32.6691 30.2709 69.6757
33.4766 30.7406 69.4029
33.9012 29.674 66.9182
33.6939 28.3003 68.4644
34.0312 29.8037 68.8935
29.4764 28.5626 67.9976
35.2043 30.6432 70.3786
30.2999 30.3183 73.3581
33.4138 28.8505 68.884
36.3217 28.6446 65.0459
33.9959 29.9148 71.9457
33.9494 27.9991 68.6178
39.0664 30.5263 71.7753
31.9424 27.8413 64.7881
34.4845 28.3284 68.2545
33.2035 31.6854 75.6809
40.451 29.2741 68.6674
33.3222 27.8994 69.8121
39.2296 27.8242 67.5975
33.916 29.1734 71.2201
36.9782 29.8118 71.0798
31.6634 28.3548 68.2763
37.2268 29.8437 70.3959
32.1301 27.7782 66.7202
35.0714 29.0656 69.5735
31.4758 29.1739 70.0007
36.6011 29.1351 70.7098
30.3327 30.7253 77.635
34.3726 28.5188 72.1987
33.1604 29.7571 72.2588
31.1946 27.6214 69.7866
32.7195 28.7274 67.287
32.5501 29.6692 69.7418
28.8766 25.8585 68.2803
30.0163 30.0989 70.705
28.7469 28.9899 68.2707
31.4269 27.386 73.194
30.4156 28.7587 71.2864
32.3296 29.2746 72.6128
30.8059 28.3194 74.1282
31.5834 29.1746 70.0784
29.4972 29.0829 69.5608
30.3553 27.7472 70.9883
28.995 25.0625 65.5408
31.5793 28.9038 76.073
29.7851 29.7206 68.9328
31.7457 28.563 72.3497
29.2174 29.0634 74.5846
29.2696 26.3524 65.6404
29.9363 29.461 71.0089
31.7308 26.5945 69.2
32.1783 29.4274 72.7921
35.2132 29.6889 76.363
28.887 24.4557 63.0977
33.2446 29.1519 78.6581
29.4151 26.6875 67.6787
32.5365 28.1646 69.2634
28.962 29.1162 74.8364
33.465 27.7983 69.5767
29.2953 27.1626 71.5222
33.7738 26.7502 70.5835
32.5217 28.7384 73.1903
35.6666 28.3896 73.6333
28.3192 26.1571 67.1135
30.5479 26.0653 67.9247
27.4571 28.9404 75.9507
33.2621 27.5188 73.4447
30.4019 26.1945 68.7457
31.7214 27.758 73.196
28.2202 25.6415 69.7951
30.1864 27.5311 71.0544
28.9206 26.4024 67.3553
29.2796 27.0867 70.2206
29.6994 27.6977 73.0474
28.5827 26.8109 72.7008
29.1387 26.7254 71.5953
28.48 26.4855 68.3158
24.3424 25.66 65.8863
26.6228 28.0507 77.3926
24.9616 25.8492 68.7553
25.6959 29.1894 79.7399
25.3574 27.5067 74.2695
26.3395 26.6268 69.9506
22.8403 25.2328 69.0012
26.0117 27.7572 71.3676
26.5826 29.1542 80.97
27.4691 28.1207 75.1983
26.0282 26.5834 66.8342
25.9854 26.1942 74.6634
26.5975 27.0888 71.8244
26.6182 25.8455 67.6348
24.455 24.9375 67.0256
25.9744 25.2601 68.6408
23.3384 25.078 66.2548
26.3199 25.5876 72.7268
25.064 25.2445 73.3183
29.4306 27.7847 73.7854
25.2262 25.1706 65.7254
28.7728 26.4577 71.9442
24.6617 26.0831 68.9314
27.2913 25.2817 72.6637
25.3914 26.6326 74.2704
31.2531 23.5478 65.8243
25.8976 24.8196 69.5069
28.5183 25.6463 68.8149
24.6155 24.3429 67.0934
29.1841 23.615 67.6533
23.8111 26.4821 75.7341
29.2642 25.737 70.847
25.2967 25.661 69.4377
27.4224 25.5033 73.1636
22.9739 23.9807 63.8572
25.232 25.5302 74.7017
23.3459 26.3591 72.501
24.5931 24.5758 69.3374
23.212 25.5477 72.5165
25.0544 24.0345 71.7092
25.6663 26.598 70.97
22.253 26.2845 69.9603
23.1941 25.9471 73.3299
23.2662 26.13 67.4245
23.0273 25.3278 75.8372
22.5432 24.6633 69.0307
23.0289 24.1978 68.3707
22.9598 23.5729 66.8356
21.0942 24.7956 73.7594
22.1832 26.0065 70.7071
21.7322 23.1244 63.2063
22.4204 24.2202 67.6374
21.6366 23.3913 71.0343
24.3441 23.0913 66.6217
24.2205 26.6572 77.8182
25.3204 24.9379 73.0563
22.7877 24.3017 69.0738
23.9421 25.1395 73.3373
23.3016 24.0203 70.7386
24.5198 25.2898 72.8964
23.9616 25.6658 76.5019
27.8532 26.0654 72.0732
22.1382 24.6911 73.3468
27.8538 23.926 71.3043
23.8544 23.3364 67.2762
25.8701 24.8954 73.885
23.4026 23.4479 70.3483
27.3162 26.4534 73.6751
25.3736 26.0683 73.8542
25.6517 23.4137 69.7205
21.5908 23.3295 71.7459
26.2872 23.931 71.2881
23.8639 25.18 71.3094
23.4484 23.9736 70.312
23.6004 23.3602 71.7577
24.6328 23.332 68.0243
22.3818 26.1072 74.4931
22.8001 25.2099 73.7607
21.3114 23.2753 70.9869
21.9581 22.9495 69.9719
22.6188 25.033 67.8525
22.2657 21.4719 67.1199
22.2563 23.3883 71.4724
22.4125 23.8748 68.4181
21.7212 22.7895 67.3625
19.9022 22.5032 65.435
20.1407 22.3261 67.3952
20.8017 23.224 69.1265
19.916 21.2941 66.8122
23.6073 22.3558 68.4144
21.0519 22.9136 64.6694
20.7908 24.4868 78.1897
21.8205 27.1626 75.1698
21.2053 24.0223 71.8221
21.9133 23.5749 68.8171
22.2649 22.0543 71.075
22.1267 21.8788 66.9476
22.6417 22.3406 69.3613
22.2567 25.2424 71.808
22.6303 24.318 78.2731
22.7369 22.945 68.3905
22.1012 22.4026 69.0435
22.7597 23.3004 68.3975
22.6482 21.3557 65.4507
22.9118 22.6535 70.8253
24.2487 21.9599 66.021
23.5801 22.6524 72.9895
23.2856 24.493 73.6396
22.0451 22.283 69.2404
22.7791 22.4319 71.6971
23.065 24.3709 71.4851
25.1325 21.6668 69.3723
21.6922 23.0827 68.5356
24.811 24.292 71.6463
22.0437 21.6202 71.1344
23.2761 22.4211 68.3889
21.3537 23.7211 75.0218
24.1975 23.0678 74.4216
23.3122 23.8547 72.2974
21.5457 23.0672 67.9985
20.5805 22.4593 68.1644
22.1433 22.6897 73.9591
19.5715 22.8129 67.4645
21.085 21.7855 68.6406
18.8211 23.0458 71.005
21.3464 21.2177 67.9462
19.8644 21.4659 65.5602
20.1477 22.8771 75.7267
20.7809 23.3903 73.9927
20.8318 21.2578 65.3952
19.6623 22.8676 71.9766
19.2659 20.9234 68.2059
19.4757 22.8712 73.6157
21.393 22.4437 68.5941
18.3521 22.5498 71.5643
21.1811 21.8015 70.2288
20.1437 21.5916 68.6121
20.315 23.5588 67.6841
19.8202 21.7408 71.616
20.3531 21.7025 68.6549
19.4109 21.4065 72.5837
22.8011 22.8698 75.7873
21.0288 21.8283 69.3541
23.9556 21.0455 69.1268
22.0144 20.653 66.3569
22.8001 22.3149 68.7972
19.5189 20.2233 62.7741
23.2281 21.8636 67.9333
22.6153 21.5948 72.5872
21.4474 23.0055 71.022
22.349 22.102 72.9773
22.8614 22.8806 76.3622
21.1426 21.1777 69.3791
22.6999 21.0248 69.4513
20.9027 19.8037 62.1144
21.25 20.9124 68.5667
20.3253 20.9114 67.3522
22.5322 20.7425 71.7525
21.5087 20.9925 65.4461
21.9509 23.4621 71.4086
21.1141 21.6219 69.5264
19.7809 20.8245 68.3493
18.7929 21.9176 74.021
21.5994 20.9996 69.8201
20.8265 20.9829 68.2021
20.0547 18.9195 62.0464
19.7586 21.5216 71.4887
20.3076 20.3038 68.6691
20.2816 20.8376 66.44
19.1036 21.7392 67.8394
18.0424 21.0138 72.1065
19.746 22.4063 76.0567
20.0095 22.3673 70.6
19.2814 20.3842 65.642
19.1237 21.4337 69.3035
20.3955 21.6296 72.5324
19.9534 22.227 75.3856
20.7909 19.8059 66.3172
19.2235 22.2646 70.9623
20.1826 19.4547 68.3398
20.3561 21.3692 68.3177
21.9953 20.3125 67.6627
21.1088 22.6663 74.9454
20.9028 21.8192 76.2562
20.3219 23.0696 72.4497
21.8215 20.1024 67.9915
21.2433 20.8253 71.3709
21.6921 21.4027 69.6915
20.0131 20.1039 68.8314
22.2698 19.8498 69.3624
19.5953 23.0424 75.4447
23.4252 20.6199 73.8432
21.262 21.392 70.453
22.298 21.5363 67.7628
20.2803 20.3561 68.4429
22.2866 21.7295 72.0785
19.8883 20.8444 73.6102
23.3703 19.6676 66.5596
21.6417 19.9568 71.8227
20.768 20.0825 64.6259
19.3063 19.2294 62.3372
21.6067 21.3846 72.8905
19.3176 20.9118 68.3751
20.5252 18.8622 64.153
19.6652 20.1843 72.6283
19.9842 19.681 66.479
19.8073 21.1588 70.081
21.4529 21.5425 74.6301
18.2992 19.8276 68.8532
20.0995 20.6069 70.0414
20.9356 19.3724 64.6476
19.2694 19.6278 68.0496
19.7961 21.325 71.5744
18.4036 19.485 64.6538
19.8354 19.0544 69.3048
19.6417 20.53 71.2116
19.3807 19.9098 68.2549
20.1919 18.9299 67.5484
19.5714 20.607 70.6815
19.5273 19.712 76.673
20.9155 20.54 65.1946
19.4452 20.371 69.0775
20.22 20.3201 71.0388
20.9583 21.3127 71.0953
20.2942 20.038 69.1501
21.7338 19.5196 65.1025
19.3563 19.167 67.4599
21.5957 20.6428 72.676
21.7752 20.4429 66.6418
21.7315 19.1364 70.9478
19.8184 21.672 74.3708
24.8048 20.6144 69.7779
20.2364 20.9274 74.9616
22.7803 18.6604 64.8329
19.0284 19.9687 67.6447
22.7028 19.3312 69.2671
20.0675 21.0926 72.4964
22.6212 20.6412 70.83
20.0534 20.7888 70.2638
22.0403 17.087 61.656
18.5691 19.7182 66.1566
20.4208 21.7199 73.6549
19.3621 18.9418 70.626
22.3808 19.3043 64.9046
18.2981 19.6851 70.009
21.4134 20.3343 72.6884
18.7053 20.2508 68.2046
20.6193 19.721 70.1234
20.6148 19.6978 67.5363
19.0486 20.0822 72.0674
19.9192 18.6146 70.7417
19.1961 19.0389 67.9969
17.584 19.9201 68.6256
19.7089 19.6713 68.9658
18.896 19.3384 69.3016
18.6465 19.7568 65.0984
17.517 18.1107 69.1816
18.7377 18.953 66.7559
18.8021 20.0436 69.6478
18.7313 19.19 70.4752
19.3152 19.4058 70.2012
19.347 21.0119 71.252
18.2259 19.6539 69.3052
20.6745 20.6077 72.4923
18.0768 18.5147 70.462
21.2384 19.6664 67.6319
18.0805 19.611 71.1922
23.0393 19.7378 70.8585
19.8054 19.1027 64.5509
21.0677 18.1746 71.2899
21.0649 20.7454 67.5157
22.7563 19.645 71.9876
20.6894 19.8506 72.2542
22.936 19.5306 68.4397
20.1161 18.5437 71.2441
23.0168 19.7418 68.4011
18.5435 20.0574 73.7847
22.6068 19.2282 72.3623
21.364 19.1899 71.7154
23.1876 19.9202 72.4215
20.9511 19.8074 70.2696
20.8165 19.6847 68.7715
19.9378 19.2451 68.4351
20.9949 18.9194 72.9533
18.9757 18.8746 67.4511
21.6101 19.318 69.7076
19.9508 19.318 65.939
19.1558 17.5801 65.0328
17.7536 19.0675 69.4899
18.6729 17.9411 67.5614
18.4933 18.9965 65.4045
18.0502 19.3074 71.4982
17.2374 19.1636 68.7717
18.5735 18.4171 66.3411
16.0657 18.6604 70.569
18.6027 19.1729 67.3649
17.0834 17.7121 64.0976
17.5848 18.4401 61.7689
15.8031 18.6238 71.9416
17.5026 18.6722 74.0443
18.0247 20.446 73.8825
17.2262 20.47 71.0435
16.0728 19.0082 73.8494
18.9224 19.8044 71.2405
17.2619 18.426 67.253
18.3594 18.9079 68.7677
17.3663 18.7165 69.4993
18.1006 18.3927 69.6772
17.0902 17.9978 66.25
19.188 18.5231 69.7657
18.7425 19.7345 69.174
18.0268 16.8704 70.0217
17.7446 20.0871 68.9966
21.2946 17.5419 63.2012
17.3259 17.7219 69.6635
20.2739 18.2591 66.414
16.529 19.8732 67.2181
21.6503 18.5202 70.7291
16.4657 18.2092 65.2907
19.6799 16.9733 65.4656
17.4641 16.8865 59.1795
20.2556 18.2284 70.1915
16.9571 20.3748 73.2409
18.2482 17.4736 67.0114
16.6109 18.6782 66.7262
18.5279 17.5697 67.9031
16.63 18.0791 68.3098
18.4146 19.5016 73.6481
16.6954 18.2406 62.9556
16.2434 17.6394 66.868
15.4205 18.3513 71.4612
15.9844 19.201 72.253
15.9004 17.5567 65.2793
14.9343 18.439 65.4916
17.0133 17.3181 65.6245
15.8248 17.6018 71.7408
16.248 18.8533 66.675
14.795 18.1069 67.0449
15.6293 17.9556 70.642
15.6398 18.2385 68.3258
16.7571 18.4609 63.1521
16.5256 17.166 67.2905
16.22 18.748 71.4893
16.3574 17.9187 68.5104
15.2167 18.0134 66.6374
16.7204 17.5461 67.1066
15.2414 17.0629 67.7175
17.6271 17.9365 66.6233
16.1547 17.1725 68.5436
18.9734 19.4972 73.4625
15.6686 18.5535 66.5332
18.2864 19.1166 72.8595
17.2222 18.2304 67.6456
18.1128 17.6122 62.4865
16.4216 18.0798 74.5459
19.222 18.8951 70.9255
16.3985 18.274 67.3804
18.248 16.7735 64.0421
15.4603 17.0922 68.058
19.3231 18.9008 69.8162
16.5847 17.5989 66.4704
17.0403 16.6227 63.2743
17.1893 18.2481 69.9726
16.8898 16.8182 64.8917
16.2517 17.8776 68.239
16.9654 18.2985 68.3044
15.5903 18.6347 70.4714
17.123 18.3845 70.0377
15.1391 17.3239 62.1225
15.6152 18.1036 71.0235
15.9322 18.1949 71.9014
15.5989 17.2485 67.6739
15.1034 18.4776 68.4153
15.259 18.7796 68.249
14.7911 17.5229 70.9264
16.9082 18.319 63.0987
14.2951 17.3375 74.1685
16.8856 18.1459 63.6484
13.2742 18.8915 70.9432
14.4915 16.8798 64.7244
14.4838 17.9029 69.2077
15.7287 16.5237 60.7634
14.0932 17.5116 66.9588
15.6614 18.5913 67.3369
15.1973 16.8692 68.7736
15.66 18.6585 70.2949
15.0508 17.1504 67.5353
15.5479 18.2377 69.6713
14.5268 17.8911 68.883
16.3088 17.9096 66.0253
16.7401 17.8914 66.9185
15.6156 17.533 64.0334
16.185 16.4945 68.5911
17.0769 18.0553 65.3357
16.8221 17.8254 68.2562
17.7935 17.8847 66.361
16.2888 18.2037 72.4159
18.0958 16.7853 66.9691
16.1334 18.4047 67.9521
17.0272 17.0096 66.3638
16.5329 18.3707 68.6725
17.4225 17.6335 68.6769
17.4325 17.3467 65.5896
16.4758 16.6639 67.7575
15.7345 16.8934 69.942
17.3366 16.9365 65.9883
16.2412 18.4336 66.3954
16.7225 16.7131 65.1061
15.5724 15.6184 63.0735
16.8585 17.1967 65.3002
15.5984 17.314 64.0088
16.2221 17.2433 72.4686
14.6533 17.433 63.8724
15.3398 16.8838 65.0451
14.8768 17.2373 70.737
15.3495 17.3601 64.4234
13.894 16.0485 62.2734
15.603 15.6662 62.1069
14.7381 16.6248 64.2606
14.316 16.0128 61.402
13.2136 16.5691 64.4563
13.2597 16.0421 63.8707
13.5186 16.2797 62.6391
14.4788 17.3382 67.9426
14.2807 16.4879 62.7853
14.9326 16.6267 65.1138
14.587 17.3712 68.4974
15.2754 16.754 66.3222
14.8882 16.4612 62.7467
15.3826 15.6981 62.2015
14.2289 17.35 70.1472
16.3167 17.313 65.9149
15.5948 16.8047 67.3992
16.0724 16.8311 64.616
14.5891 17.3486 62.4178
16.8355 16.3743 68.0146
14.5806 18.1971 66.2473
17.8066 16.9478 66.6547
15.1461 15.8406 63.4229
17.425 16.7637 64.7217
16.8066 17.0883 66.8596
17.5857 16.8283 66.7296
15.952 15.8648 66.2099
16.4317 17.5045 65.6885
16.7294 16.6424 63.366
17.164 17.1111 71.6752
16.898 16.787 64.8137
17.6665 17.4379 61.7298
15.2903 15.5161 67.6485
16.8334 17.2716 68.5044
14.9619 16.877 64.106
16.5321 16.9696 70.0244
16.3978 17.7394 63.6334
15.9363 15.9375 64.4176
14.9623 15.508 62.2315
16.4788 17.0642 68.782
14.8626 16.2532 65.22
14.1595 17.4705 65.3514
14.1469 16.8933 65.4667
15.0093 15.3434 63.1432
14.6411 15.5262 60.0919
14.3131 16.5116 62.5701
14.2824 15.6666 65.8932
14.4961 17.3991 69.2483
14.1761 17.6839 65.7515
13.8848 16.525 63.7179
14.2078 16.0938 66.1268
14.3429 17.2127 72.2794
14.822 17.391 70.0961
16.202 18.4727 69.4739
14.6623 17.2445 67.0116
14.7911 15.8415 63.5395
13.919 17.6403 66.5829
16.0858 16.1719 64.3231
16.7454 15.8769 64.812
15.4663 17.2439 66.7127
16.4297 16.8148 69.1333
16.9285 17.8458 71.9001
15.5538 17.0678 64.1807
17.3919 17.0006 67.4883
15.6733 16.0959 61.0765
16.951 17.436 70.3093
17.0493 16.7894 63.4809
16.7563 16.4925 65.1999
15.5875 15.99 66.2483
17.6956 16.3604 66.7136
15.1021 17.6447 71.881
17.3839 18.4584 69.7256
17.0934 17.9696 68.478
18.5229 17.1903 60.5411
14.9887 15.4224 69.6751
17.4668 15.776 62.963
15.0344 16.9766 66.2459
16.2318 17.0665 71.111
14.9023 17.9731 69.3154
18.3537 17.2545 64.1305
14.527 16.6912 71.1367
16.5416 17.66 71.3685
15.648 16.1336 62.0437
15.8772 16.7369 65.9268
13.9731 15.9905 68.0162
15.0632 16.6278 61.4518
14.9152 15.7559 69.7566
16.2415 17.6059 66.9447
15.2093 16.9217 68.3215
15.9443 17.6972 69.7546
15.0901 18.0694 65.2051
14.466 15.8856 63.1522
14.9207 17.0488 66.802
15.4278 16.1859 62.2247
14.769 16.0308 60.815
16.3741 14.8091 62.2747
16.4522 15.9668 64.098
15.0673 17.2844 68.4364
15.7127 16.5678 70.1915
17.7 16.84 64.8131
17.0019 16.6934 67.66
17.4949 16.714 63.5308
16.5215 17.5342 71.8396
18.7595 16.7087 67.5997
16.7838 16.624 68.7373
18.5592 16.5366 65.6408
15.3375 17.1819 65.6885
18.4703 17.2106 66.7809
16.8885 17.1499 67.6069
20.1903 16.658 68.555
16.356 17.9291 69.1635
19.4496 16.229 64.8766
15.6528 16.5386 66.0944
19.7302 17.0204 64.318
16.3325 16.063 63.3921
19.1358 15.3179 67.2258
16.9941 16.7929 62.7666
19.0001 16.3115 68.7874
15.5191 17.1053 64.9733
17.0026 15.8291 71.0304
16.3919 17.7093 67.4859
16.957 17.5546 68.9055
16.4161 18.8503 69.1353
15.9891 15.8994 69.7137
16.0617 17.0776 66.0621
15.8317 17.2606 67.9924
14.5998 16.7695 64.2571
15.4838 16.5765 69.6847
15.2843 17.5513 69.186
16.9224 15.7612 64.5246
15.2589 16.3939 65.1118
15.6982 16.6895 66.5953
14.5316 16.3909 63.9919
15.0171 17.3262 66.8366
15.5455 16.8948 65.8604
17.5148 16.8407 71.4672
15.7927 17.2444 66.0803
17.2244 15.5573 66.8561
15.2341 17.9826 67.3872
17.6384 17.4481 67.681
16.6626 16.1544 65.6271
17.5239 17.0416 68.1629
16.4084 16.1977 67.2717
19.8711 16.5577 66.9878
18.3557 16.7627 64.52
19.513 18.0334 70.5062
18.1546 16.9122 63.4002
19.9055 14.9474 65.7466
17.6351 17.0965 72.539
20.1984 17.9149 69.4057
19.049 18.1586 75.6579
22.5486 0 0