# pn-170911/CsIIA-31-CsIIA-1280-1959.psd
# Power spectrum* (dif=0,1,2) (really just |FT|^2)
# NOTE: only the first half! (symmetric)
# weeks: 1280-1959
# 50 clock-days, 43 excluded
# PSD: 1441
154890 5.04519 0.0610993
6.82636e+06 148.495 0.0813434
3.33528e+07 604.206 0.101641
7.28079e+06 222.663 0.0760788
1.40626e+07 1036.67 0.155097
2.88514e+06 245.324 0.117029
1.82174e+06 281.035 0.116922
1.26902e+06 226.052 0.12857
1.0537e+06 256.554 0.164883
645134 228.128 0.144876
709507 290.495 0.244684
480720 241.642 0.25123
432403 278.428 0.281649
453962 277.545 0.288303
313932 234.421 0.336961
340867 281.86 0.39522
262094 267.995 0.416171
271231 264.015 0.452777
146579 210.134 0.397122
243872 322.481 0.651301
140934 216.388 0.461831
219931 387.459 0.860668
107446 214.524 0.58859
134918 295.023 0.805701
159513 337.588 0.92288
117078 300.909 0.977215
74396.4 188.426 0.608586
101918 286.299 1.08594
76551.9 229.155 0.917739
85164.1 278.135 1.22446
87833.6 315.222 1.41554
55150 238.499 1.16253
89662.1 367.646 1.91698
61844.2 258.043 1.40307
56792.3 208.608 1.23266
49710.7 213.777 1.39206
48737.3 258.742 1.76641
57976 247.352 1.70119
44449.8 243.219 1.76346
39844.5 247.669 1.81122
41780.4 233.697 1.72476
33158.9 244.437 1.98979
31948.8 206.701 1.76175
43480 311.968 2.70365
27915.6 233.733 2.20363
40836.5 302.651 3.19841
42458.6 379.431 3.88564
28219.6 250.921 2.68054
32303.3 284.762 3.27298
23383.1 175.599 2.01202
26817 253.852 3.05152
21258.3 221.313 2.6495
29593.4 312.939 3.9996
18647.5 182.657 2.68261
19238.3 250.819 3.64312
16928.6 206.766 3.12905
20940.7 240.866 3.68832
19692.1 267.678 4.24905
21427.5 297.544 4.67658
16771.4 204.969 3.49288
18023 248.336 4.21174
15084.2 201.269 3.68673
16974.3 228.702 4.07698
17073.4 255.734 4.87066
14958.1 216.511 4.14024
11091.1 169.195 3.48185
14724.5 230.932 4.90751
16866.2 289.262 6.29252
17407.5 312.491 6.71769
11853.8 229.961 5.09554
12527.5 234.028 5.44126
10343.1 208.057 5.10625
11579 225.145 5.47065
9815.24 222.499 5.65183
11812.1 258.908 6.70308
11151.9 238.187 6.11746
10573.9 216.982 6.22709
10943.9 215.613 6.2503
8733.23 210.966 6.01153
9154.74 230.648 6.87399
11877.9 281.892 8.65297
8344.44 205.98 6.48652
7793.02 174.555 5.25851
7572.42 164.977 5.3045
7256.04 221.654 7.48317
7528.99 232.82 8.07503
6630.52 158.419 5.38888
8849.04 213.924 7.66339
5928.73 174.413 6.63923
7335.97 189.582 7.07327
8137.11 238.962 8.9591
6133.73 183.793 7.23991
5379.59 158.142 6.30345
6948.43 185.87 7.71394
5289.84 173.173 7.04782
5372.2 169.315 7.17663
5660.93 182.796 8.0082
7191.67 235.55 10.4782
6546.01 226.598 10.4589
5574.31 205.101 9.69079
4409.79 164.027 7.70274
5017.22 170.782 8.46937
5134.93 204.792 9.85132
5392.12 181.533 9.71993
4733.53 165.32 8.716
4917.65 211.796 11.3446
5725.61 224.135 11.6492
4939 212.8 11.2916
3554.63 158.258 8.81359
4453.7 181.11 10.9299
4317.01 205.769 11.3272
4827.11 208.339 12.1989
3897.52 183.969 11.0588
3954.82 179.965 11.3557
3820.23 162.959 9.71902
4470.6 207.55 13.2474
4234.27 184.072 11.6212
3118.69 157.846 10.1188
3211.17 161.678 10.7467
3178.67 159.673 10.6076
2476.08 143.05 9.79938
3217.76 178.972 12.2765
2583.08 138.095 9.81992
2640.28 154.21 11.3195
3077.47 182.117 13.4964
4225.87 223.495 16.7306
3119.18 164.757 11.751
2605.08 156.357 11.9647
3681.53 198.055 15.8401
2462.19 175.48 13.2547
2660.88 161.715 12.7497
2997.89 148.693 12.1291
2845.02 174.25 14.4773
2117.02 139.243 11.5241
2907.01 191.136 16.0997
2676.89 191.395 16.6244
2824.58 160.877 14.0227
2360.41 145.103 12.6033
1739.74 126.281 11.1621
2453.78 169.58 15.9607
3024.48 201.199 18.4955
2252.39 145.344 14.0871
2264.72 152.505 14.0944
2150.27 158.541 15.6009
2225.32 166.184 15.6537
2726.87 205.951 20.1991
1604 146.123 14.864
1751.65 158.498 16.7282
1852.26 108.365 11.1024
2003.94 140.201 14.7303
2045.04 161.455 17.0246
2013.65 125.334 13.7542
2319.12 174.917 18.5686
2215.06 178.512 19.6684
1944.61 133.607 13.9844
1386.71 115.594 13.1833
1764.9 119.929 13.8703
1887.31 152.902 17.6087
1619.1 122.394 14.3918
1698.83 143.802 17.541
1774.65 140.677 16.6807
1643.11 144.405 17.8444
1679.43 143.977 18.2686
1281.73 120.038 14.9428
2008.13 149.963 18.3736
1349.63 115.473 14.8252
1583.24 154.077 19.8323
1370.11 109.941 14.8006
1975.17 165.969 21.3802
1496.12 151.331 21.4628
1607.92 136.991 18.3304
1247.86 155.222 21.6036
1441.05 137.142 18.6291
1193.16 142.137 19.7468
1443.19 159.574 22.9505
1262.99 122.332 17.0577
1132.71 120.963 18.0574
1381.25 139.873 20.0228
957.123 112.349 17.2616
896.847 105.958 14.7977
1265.41 134.723 21.6472
1291.83 136.835 20.4877
1232.19 127.433 19.348
1213.16 104.986 17.0292
1264.11 121.629 19.0196
859.609 112.565 18.4774
1285.02 122.129 19.663
1229.42 128.126 21.0429
1200.57 118.867 19.2644
1117.92 107.883 17.7883
1185.96 100.901 16.7978
1211.52 120.629 20.8525
968.204 123.127 21.5595
1075.33 86.0462 13.9248
1000.25 112.219 19.1721
1088.07 106.681 19.3426
941.056 110.318 20.3411
911.614 96.9169 16.9359
1058.15 92.8717 17.572
845.896 97.2264 17.9151
1027.38 108.506 19.863
987.659 116.955 21.9391
900.303 123.369 23.4325
872.415 123.21 23.2995
829.642 111.653 21.8215
739.119 83.0455 16.5318
881.32 122.43 23.8097
993.399 112.068 23.3013
757.989 76.0456 15.6054
745.112 93.4695 19.3543
888.903 126.252 25.8825
912.416 110.133 22.1076
880.034 90.8557 19.3337
806.268 107.777 22.5001
806.767 97.7361 20.3431
649.945 92.8031 19.5103
737.166 106.49 24.2919
827.505 100.863 21.4715
581.264 75.3647 17.2607
715.696 91.0062 19.202
778.941 114.445 25.6424
671.314 96.5536 23.1122
644.389 77.4609 18.2161
692.063 109.605 24.2151
550.994 73.7684 18.0094
780.758 103.99 24.3582
626.898 89.7024 20.267
592.033 91.5211 21.8001
645.033 69.8546 16.6393
820.923 101.631 25.0133
580.355 99.6335 25.2672
600.91 106.371 25.6319
555.363 73.9331 19.0821
626.055 75.9656 17.9955
616.003 76.4184 19.548
588.167 95.4914 23.9009
702.857 109.186 28.782
645.567 103.027 26.7709
579.608 72.1454 19.5761
643.212 98.6641 25.9372
541.502 78.7404 22.2142
565.343 102.719 26.6375
547.425 79.993 20.4524
623.69 104.247 28.4001
605.576 89.3962 24.7669
455.649 62.6322 18.5239
486.079 81.8685 21.6791
466.132 76.8565 21.7915
568.985 88.9319 24.489
503.688 80.8628 24.2589
471.02 71.8948 19.7616
542.185 103.024 30.6778
414.084 66.2217 18.6618
420.162 85.5375 25.8584
532.356 88.3817 27.6493
486.678 92.9175 27.3271
555.163 93.9905 28.3408
560.738 92.6967 27.7932
590.392 79.1629 24.5419
432.644 84.9976 25.9193
338.385 76.9614 24.5135
455.198 79.1135 25.4886
430.484 64.0741 20.2569
555.606 85.8318 26.9757
486.616 84.9321 27.2067
304.44 66.9649 21.3049
419.967 81.1207 27.0393
402.914 87.3794 29.1768
519.079 79.0048 25.0009
482.695 73.4935 24.8097
518.296 90.2948 30.0198
387.479 73.9867 23.9272
379.63 61.7761 20.834
309.186 50.6494 17.7322
353.569 74.588 24.9577
384.729 72.3409 27.3241
413.714 81.0636 27.1531
442.793 74.9668 28.2369
469.2 85.4607 29.9303
390.039 78.2869 27.096
360.269 61.5807 21.7656
387.801 51.0665 18.5182
351.37 64.6307 25.1568
413.653 70.5333 25.9543
410.879 69.3914 23.9984
334.321 78.0963 28.1452
342.501 75.8719 31.0748
378.659 76.9121 28.7584
256.744 58.0168 21.9712
350.361 67.9422 26.1247
344.463 68.3897 26.4289
374.241 81.7443 32.6957
418.874 79.4928 30.6222
310.016 61.4926 25.1685
323.348 55.0933 20.5545
317.015 54.1046 22.2804
381.163 68.4374 27.9341
310.885 58.8336 23.4914
320.454 58.1207 22.9945
311.846 67.4941 29.0142
410.256 82.542 33.8068
327.038 54.9139 21.5778
317.729 54.4998 23.0992
345.205 65.6287 26.726
281.672 56.1063 25.1924
295.37 63.705 28.8175
278.419 63.4346 26.5273
320.936 51.621 22.0646
317.391 78.6997 33.4837
231.388 48.5168 22.1655
340.381 65.6174 28.7504
240.215 49.4194 22.6212
332.965 72.9388 30.7388
308.641 68.314 31.0662
314.279 54.874 25.3066
276.604 49.1129 21.727
344.764 67.4553 29.3701
297.179 59.3354 28.8982
306.585 61.3001 28.6541
316.758 61.9227 27.8482
229.303 59.821 27.324
257.756 46.5385 24.3781
260.615 55.6149 26.0133
243.29 62.185 29.8716
288.085 51.8804 22.392
287.39 60.0214 27.9967
350.972 62.6935 30.6747
261.218 53.018 25.9887
323.965 65.8116 31.4198
216.372 52.0797 25.3604
270.228 59.3513 29.1876
275.572 66.2803 31.889
224.328 57.0642 27.3532
252.272 66.3756 34.9759
230.554 48.7198 26.5788
315.887 67.417 34.0467
224.391 57.5018 27.9007
224.972 69.1468 38.235
234.289 65.1422 31.4121
213.489 51.8284 28.1483
242.012 46.4987 24.3266
242.423 61.5595 31.2422
252.354 61.2405 33.3359
230.694 59.3524 31.6059
205.141 53.6765 31.0395
236.399 52.4258 28.0913
217.839 69.5402 37.0307
211.87 54.4651 29.8515
196.724 45.3375 25.168
176.736 48.0993 26.53
247.738 52.1022 31.3713
264.993 54.4064 31.6374
220.961 59.5084 30.2549
205.152 63.2624 35.4129
196.306 51.0282 29.0619
188.79 54.3319 29.8855
175.208 42.6367 25.5001
177.722 47.9758 27.7596
215.422 49.2586 26.6266
178.727 43.7996 27.7623
195.307 48.0789 28.5713
291.649 66.4655 39.5993
214.367 52.3601 29.4507
254.041 56.3983 32.6381
171.753 48.7242 27.504
183.698 42.6212 25.6469
192.877 58.3397 34.358
155.583 44.0893 30.554
219.513 47.9278 30.4011
211.289 58.6364 32.0915
164.144 30.6737 20.6546
216.841 58.6278 32.799
202.49 46.3951 28.7779
221.836 63.4704 39.7652
168.904 44.9457 28.8396
169.033 42.1597 30.3868
187.191 55.983 34.676
216.256 46.606 30.1048
195.366 45.7888 30.6063
186.498 53.4021 35.2487
151.833 48.8069 29.5588
146.901 43.5137 29.427
213.273 42.1877 28.15
183.307 42.372 25.2472
147.534 36.1876 23.9442
167.646 40.3808 26.1184
185.456 53.5516 33.2679
175.339 52.9463 36.2373
169.394 37.2332 26.9724
179.57 40.865 27.7278
152.54 42.23 28.4288
168.17 30.6149 23.3958
169.543 53.0383 33.3403
161.609 37.6685 25.5871
168.26 35.4943 23.4487
134.703 46.6717 33.64
187.423 51.7667 39.6462
166.278 43.1978 30.1582
192.21 42.8644 29.0503
153.493 33.1378 25.7164
180.331 42.7363 29.7735
184.103 40.4495 27.0491
166.845 44.8761 31.4212
134.319 40.7957 29.6014
162.042 51.6861 37.3557
186.892 48.8131 38.0296
166.736 54.7307 37.8068
158.692 42.7799 32.3237
134.757 41.9275 32.4784
129.594 40.2106 27.8881
176.254 41.6015 30.5261
130.318 36.1828 24.9467
159.593 27.1673 22.91
128.93 37.8308 28.6692
162.306 44.6945 35.2232
134.885 41.164 29.0867
109.594 32.063 25.1582
127.342 29.4224 23.6315
142.282 52.4597 41.9706
157.66 41.0846 33.3864
156.585 42.2112 31.0047
154.602 36.175 24.1466
145.666 34.8897 27.0338
150.051 34.9783 30.5323
145.774 37.1033 30.5316
143.556 40.8881 33.8066
173.341 45.5141 36.8235
125.507 31.7488 26.1856
143.323 42.0339 33.5105
117.313 37.8869 29.584
131.841 35.2584 27.3314
161.728 43.2775 34.2089
141.174 38.0142 31.5578
142.253 32.9071 28.6525
117.426 32.679 25.9926
131.706 30.3267 24.5804
137.375 41.51 35.656
117.594 46.393 39.1458
142.38 38.3824 30.3213
118.336 44.8161 38.2366
129.932 39.751 33.9802
118.355 33.5332 27.1757
134.391 33.3854 32.6382
126.45 39.9785 32.3684
140.56 34.7903 28.7267
161.805 30.1146 25.4817
117.549 35.8987 33.1495
130.903 30.3729 29.5883
114.639 33.6714 27.8678
103.345 34.8238 31.2409
117.383 39.8993 35.4028
107.506 36.7955 31.1591
130.441 36.8428 33.3458
97.2771 37.9179 34.6671
136.059 33.1162 31.3389
107.206 34.7985 29.7418
121.255 35.0441 33.0178
119.564 43.6509 36.8918
106.358 30.3035 28.017
111.995 33.8897 33.9297
117.99 38.6671 31.9221
131.476 36.3763 33.7459
125.836 32.0457 27.6109
112.82 36.4018 34.5184
107.73 31.5703 31.3029
103.113 22.4959 21.5005
122.771 35.2694 32.9816
112.825 45.7724 44.3316
136.383 33.3564 30.1088
98.6958 35.6388 36.641
127.015 35.6846 33.1362
110.725 25.1472 24.0187
114.59 35.3295 34.8636
137.366 34.7526 31.7255
106.833 43.0234 43.617
127.389 28.9147 25.0799
104.468 38.3241 41.0509
95.0329 37.3214 34.9535
127.407 41.8787 42.1231
94.5672 24.2903 24.3364
137.253 44.3426 42.7221
98.5661 27.2364 28.1046
118.707 29.6938 28.9389
96.3859 25.843 30.5316
99.9331 30.2799 28.6674
105.295 27.1206 28.2048
90.8443 31.486 34.7702
116.037 35.0269 33.1997
83.1028 28.2274 30.4028
86.7895 21.5494 20.9741
85.1607 22.2996 24.1919
105.342 33.8981 36.5992
130.592 33.97 35.3717
121.881 34.4643 35.4255
127.553 35.2462 35.1085
93.6081 30.6342 34.3863
97.2529 31.573 31.624
90.7442 30.0981 32.6804
80.697 28.3468 29.3442
86.5417 25.1234 27.5364
87.2602 28.6532 35.6071
111.054 32.3698 33.9955
92.9383 30.4087 32.0042
107.252 32.0341 34.0154
88.9696 26.2471 27.5557
101.683 34.4605 36.2566
91.1698 25.5653 30.931
83.7206 23.1445 25.1889
82.5941 26.4137 31.2958
113.698 35.4461 36.4182
96.9069 28.5706 30.2515
91.2641 33.428 38.1971
91.1028 31.2252 34.1592
95.4162 26.9245 30.2812
92.6853 27.1761 28.5882
93.1894 20.171 24.393
104.681 26.4302 28.2811
113.882 26.2516 31.157
96.9009 27.3697 29.9187
104.876 27.2474 30.5165
84.7503 25.408 31.6764
87.4967 23.143 30.2112
86.2838 30.3529 35.2437
76.2538 29.126 30.2916
71.0103 18.7415 23.1587
85.3142 25.7044 33.1219
85.6732 29.7366 32.3214
90.3848 27.6875 33.5738
76.5514 25.6655 31.441
86.476 26.5176 32.7159
89.0376 26.824 33.9366
100.19 26.7138 28.9215
77.5761 27.227 30.3807
83.2778 28.4975 37.1273
77.6102 22.4713 25.8047
70.2814 23.0745 29.8389
78.2123 24.6607 32.6299
83.7768 21.8771 22.6044
79.2545 22.5 28.7615
73.742 31.6121 35.056
88.5502 19.4334 25.4188
102.079 22.2879 28.9996
89.9943 22.273 26.3855
92.7146 22.0787 26.4186
58.3678 20.4073 28.5333
80.4774 20.7292 23.0301
75.9017 24.9317 31.0276
77.9095 24.2312 31.1619
88.413 25.5577 30.5397
71.7025 21.8812 29.3961
86.2027 22.2696 29.8537
54.939 19.7829 26.8753
88.7675 28.7296 36.6596
75.2395 27.8136 32.5921
86.2159 28.6906 35.0572
79.3085 16.214 21.3296
82.1208 29.7199 36.837
82.146 28.5857 36.072
55.5032 18.9978 24.7462
71.5215 22.7074 31.0113
69.3559 23.2261 29.1714
86.6418 25.4584 34.4321
84.4386 19.134 24.7572
77.2157 22.7262 30.7052
91.9028 21.075 29.4564
68.5683 17.9457 27.4598
81.0554 22.1571 31.734
71.5638 25.2608 28.0435
70.6193 18.3662 27.7322
69.2905 25.0512 28.4134
67.0953 18.4141 25.1053
76.0346 21.7579 30.1032
70.0152 22.3418 29.3783
82.5508 23.3869 32.7934
73.2193 26.3206 35.1834
90.0966 22.6793 30.9087
75.0456 21.1248 32.5496
66.8407 23.5496 28.9352
68.8496 19.3177 29.8056
65.022 21.1944 30.6423
72.956 22.9922 30.7445
56.9594 22.2721 30.2168
73.9424 22.4218 30.994
69.4524 26.1408 34.9881
63.7176 21.4941 29.6543
70.6485 21.5679 31.4644
69.0079 17.2102 27.4989
73.1294 24.9319 38.5478
79.8216 23.3612 31.2713
76.5501 21.4329 29.9357
71.5225 20.9774 31.7751
61.1168 17.6945 24.4457
67.2295 20.9401 28.8374
55.2977 18.6011 27.965
76.5483 24.7123 31.4887
56.9716 18.9748 33.0222
61.788 21.9911 32.1526
67.4054 16.7428 26.4772
69.7981 25.1964 36.3398
79.5646 25.8744 34.809
57.1824 25.2249 38.9199
67.3854 21.1192 26.2876
56.1338 17.8181 29.3218
68.9719 19.361 28.9667
65.8025 28.6901 39.7341
60.4206 19.1673 29.1221
68.1901 21.1751 36.356
64.8417 16.3949 23.9049
71.2061 22.7858 32.1595
58.913 17.6279 30.0546
66.0079 16.2558 25.4257
81.5224 22.2936 31.2712
58.4044 15.2103 22.342
75.3857 17.6141 26.4416
70.5215 19.916 31.1547
62.8348 21.7172 30.5566
55.3484 19.5099 30.465
62.8319 18.6964 32.1589
61.1392 21.794 33.4015
55.6342 20.4966 32.943
74.0383 23.8246 34.1348
51.2043 23.4789 35.7203
56.9206 21.3812 31.6706
49.4225 18.6693 28.7732
62.0839 23.0933 37.3237
62.8645 19.5592 36.7154
61.4532 20.5403 29.4745
56.6638 17.7487 26.7713
48.8992 18.7375 28.5592
58.6027 20.3702 31.8432
49.0031 17.1227 29.0398
61.9351 25.245 41.2713
70.2313 20.4096 32.0088
63.5442 21.4811 37.5243
58.9449 16.4668 24.1654
59.6839 19.2794 35.3384
68.4727 18.3916 31.9536
58.6448 23.1864 36.0343
59.3043 16.0217 27.1949
59.6281 18.1763 29.5989
55.6923 18.9312 29.9952
53.9546 19.3141 34.8196
52.3579 19.4108 29.6803
65.6363 15.8733 24.1695
60.1747 19.829 31.1441
65.8234 23.0016 37.3609
46.4223 21.3634 40.5087
55.2827 19.9983 34.0588
62.0637 16.0795 25.0648
45.9832 22.3611 37.0079
57.1458 15.1206 25.9057
56.9297 19.8442 34.1374
62.5349 16.9102 29.4586
55.2938 16.725 27.5443
61.9593 19.3861 34.294
61.9631 18.7441 30.8351
59.5679 17.4219 31.5896
65.7097 16.3848 29.597
52.9058 17.1256 26.8171
63.9061 15.8275 28.2786
50.0578 15.8706 26.2125
59.6381 16.5695 30.4279
53.7321 18.5326 30.7162
57.2795 17.6854 34.4834
60.3849 20.6053 33.6235
48.7187 19.4937 33.4662
60.0484 18.9868 30.2926
54.9933 17.2012 31.4194
55.4663 14.0073 25.7628
56.466 16.0087 29.7693
43.8584 14.0578 27.762
57.9111 22.3172 41.5223
52.431 15.9019 29.4053
58.9199 16.4073 26.1684
47.529 9.95707 22.4765
51.3059 15.9946 29.3179
58.7976 19.1994 34.8104
40.1293 17.7934 29.4179
52.9815 16.0246 30.2589
43.5339 16.5798 23.1859
52.2909 11.6024 25.7289
50.4718 15.8115 32.7639
65.4897 14.6403 24.0133
61.3743 15.2378 29.7839
53.33 17.1009 28.9316
62.8855 9.57815 19.2067
45.9833 16.3249 29.8847
47.5054 16.7768 32.518
40.772 16.1758 32.311
47.3344 15.0729 22.7712
51.1115 14.4964 27.6751
43.6294 15.7563 26.4071
45.2144 14.9391 30.3487
47.1672 18.6325 33.7915
56.6588 13.3199 32.8628
60.291 18.15 27.5803
48.4983 11.5007 23.815
56.9813 13.8646 28.4996
46.6285 19.0467 35.7265
49.9134 16.898 31.2739
37.9028 15.206 26.5918
54.5397 17.6122 35.4394
53.7059 16.9549 31.3609
55.6006 17.1289 32.1693
60.3075 15.2355 27.1997
47.4633 14.2239 27.6546
61.7789 12.0704 23.0058
43.8378 16.2259 31.023
56.3383 14.069 30.7093
44.0301 14.3459 34.1782
54.6957 15.2351 24.1064
44.973 16.2297 29.3515
47.4906 15.8604 33.8753
60.7147 14.1807 28.1548
39.631 11.8683 22.9226
48.5507 12.0941 25.9882
49.2853 12.9382 23.4519
50.3482 14.2234 28.8284
53.1434 11.9044 21.4321
43.5573 12.8276 26.3351
54.1568 14.8874 29.2941
45.8714 17.4507 33.8669
44.8524 11.3249 22.1628
46.956 14.2343 32.6387
46.5025 14.3398 27.2426
55.0445 12.8581 23.4108
42.7575 12.5799 24.973
57.7548 16.1704 38.3922
52.8985 11.1728 21.6989
53.0711 16.8632 32.3129
46.7748 10.3057 23.4736
52.1018 14.7871 25.4805
49.1141 11.4139 24.7305
42.0192 13.287 22.4602
50.7474 13.251 30.461
43.1591 12.8637 28.2293
46.3219 11.3999 24.8888
52.8614 16.6034 30.9882
46.3484 15.7637 33.77
41.8923 13.0536 28.5305
44.119 12.1984 25.1514
42.5878 13.0916 26.101
40.5891 12.6176 22.7859
50.4342 13.4158 34.022
42.9893 13.541 29.8769
43.3878 12.2669 26.5092
48.7761 11.7012 26.3222
36.213 10.9602 23.513
51.2306 16.7733 32.476
38.9999 15.1212 33.6594
51.3232 17.3307 34.7145
45.4778 11.7962 23.779
50.256 10.8643 25.3576
46.4502 13.5881 28.4454
45.5864 15.2326 30.9828
52.3042 17.3205 39.4942
39.4281 12.962 29.981
37.8904 11.5583 27.305
43.5404 13.4809 27.8481
42.1217 11.9951 24.7992
43.4556 13.1898 30.7129
38.4666 15.5927 34.5064
48.6654 13.555 24.8574
34.5752 15.8215 35.0545
48.9147 8.5842 21.8609
37.9298 12.8462 26.9876
43.9823 12.5421 23.3994
44.378 11.711 29.6462
38.6135 12.1442 25.2771
38.7277 11.4242 25.4733
35.5532 10.2627 21.8036
39.7118 11.928 30.1699
40.2154 13.0304 27.8904
42.8738 14.6661 32.3391
51.035 15.3203 30.7251
41.3287 12.1711 31.6605
52.431 12.5822 23.9105
46.0695 10.4754 28.1829
48.2028 11.6649 19.9696
38.7987 11.1235 24.2431
38.5178 9.73127 23.2085
41.2594 12.0104 27.9709
37.9284 14.1542 30.3624
43.2028 11.6316 28.7615
39.7686 11.8932 25.3156
42.4534 11.4081 25.7281
43.2874 12.3054 27.9946
39.3841 15.0137 33.8192
45.3542 10.5273 26.6542
42.7042 13.3766 27.9081
43.4656 13.7911 29.54
33.1147 11.4739 27.289
38.8235 11.0967 25.5441
38.8696 12.2876 31.732
38.6406 15.2764 34.0345
41.7771 10.597 26.4741
37.6998 11.0588 23.9406
43.0842 12.2413 28.8553
41.7724 13.0908 33.6238
50.632 12.7285 25.2192
35.5508 9.77632 23.0065
42.8295 10.6158 28.7125
42.0763 10.8942 20.5144
32.4254 11.839 30.8135
42.1719 8.35854 20.2877
33.8521 10.2884 24.7118
38.1299 11.1013 26.6404
34.0875 12.1965 27.7618
40.5057 10.3341 25.3231
40.5905 9.60075 22.3315
34.0175 10.6255 25.3801
38.2861 11.0974 28.0469
35.5159 13.0584 30.5916
46.7416 10.8402 27.5163
34.9826 11.1164 25.3863
33.1354 9.78974 20.6747
40.817 10.3672 28.4083
38.2726 14.2441 31.1917
33.6377 9.30563 24.8878
35.6225 11.6016 23.5778
38.9279 10.9605 32.0143
35.1681 12.1827 29.9733
40.6581 11.8645 30.9317
46.789 12.0328 29.5502
36.1686 11.4269 31.7144
48.1748 11.225 25.4756
32.8961 10.9566 28.6026
45.0989 10.5553 26.9457
40.3162 14.3298 29.7186
35.3726 11.2941 27.6719
37.8059 13.1655 30.5833
36.5477 12.1132 26.6488
40.9636 8.564 25.6609
32.9948 10.9993 27.9623
37.2925 10.8603 26.6826
37.2653 10.6703 27.3412
36.7452 13.8605 33.8985
38.5352 8.80991 24.6991
35.6393 11.4196 24.9362
35.3481 9.57073 27.5178
33.7624 8.84429 23.309
39.4943 10.5514 29.0765
29.5515 9.06178 21.8508
36.3692 11.4353 26.4438
39.7409 10.7021 25.2432
34.211 11.4948 28.7133
46.6183 9.72541 26.1901
44.6014 10.4293 28.2924
44.4305 11.5034 25.1171
38.1561 10.4284 29.4879
38.6083 10.3376 24.9279
36.0018 10.1166 25.8783
25.1206 10.994 31.9636
38.6442 9.86657 25.2849
34.1917 11.981 28.5019
31.6749 10.2853 24.294
33.2905 11.0306 30.4939
39.3637 11.3399 33.4665
39.239 12.3567 30.1123
32.5598 9.76669 24.4739
36.0453 11.1362 33.0707
30.5914 9.83138 21.7944
37.8829 15.0333 38.5385
33.537 10.8961 30.0975
33.6364 9.2724 24.1423
33.8522 10.246 26.7751
35.3817 11.5437 32.7456
40.8274 8.43353 22.5681
33.4157 9.46815 21.4734
38.164 8.97667 28.8316
35.4156 10.6856 28.4485
35.6859 8.17644 23.8334
42.4814 10.1724 23.5355
33.0442 8.53706 23.9938
39.9193 10.7769 25.5095
31.4749 8.09102 18.924
35.3704 7.96575 18.6701
32.1416 7.98267 23.4754
37.9282 9.89236 29.0916
29.3652 10.6584 29.0455
32.866 7.6192 15.374
40.6974 9.12107 22.3338
26.5023 9.58927 28.2525
34.5414 11.2973 30.5785
33.4072 8.47846 25.7896
32.8497 9.50937 25.1919
32.4034 9.67077 28.3891
38.1456 10.4592 23.0068
34.0515 7.30353 23.6241
30.0788 10.3508 25.536
34.6824 8.6517 22.6411
32.4458 8.13027 23.9738
34.4883 8.74296 25.3699
40.93 7.97156 17.2806
35.6685 9.45025 23.3273
39.291 9.02247 23.3033
36.3206 9.28821 25.5846
35.6646 8.26246 23.2616
29.1895 7.62034 21.5277
36.6335 10.301 29.0381
34.7806 8.75124 24.7061
26.4215 8.47297 25.7945
34.2725 10.7917 26.2359
29.9052 7.59016 25.9455
37.3408 12.6523 29.9296
30.5633 7.32033 18.9721
32.7371 6.46131 22.519
34.0003 9.27108 26.793
33.723 10.9042 30.9987
38.3782 10.6161 30.7861
27.1266 8.50311 25.2563
31.4915 8.2766 22.9773
31.0206 8.50902 25.3939
28.3555 8.64608 24.9873
31.513 9.25529 26.1503
32.9018 9.98985 23.3221
39.8435 7.80292 20.5242
29.6215 6.57681 20.7704
42.2929 8.84533 24.2987
34.2725 9.6319 26.6002
31.2438 8.12123 23.8286
31.5318 6.28545 18.862
27.7931 8.44207 20.9729
30.5381 8.4185 27.1057
27.7167 9.74585 20.904
32.1862 9.87617 25.8645
30.1224 8.12948 25.3307
30.6075 8.55206 24.5559
31.3656 8.65218 26.9921
28.3891 7.27419 23.3164
34.3025 8.57052 27.4432
33.4897 11.5676 26.8054
29.8516 7.6427 28.545
34.4116 9.3904 23.2868
30.5681 7.51198 26.296
30.783 9.04695 23.955
28.8231 7.57987 19.6551
32.3132 6.74252 19.8048
27.5897 7.97619 22.918
36.4218 8.1481 23.2005
31.1119 7.63949 22.6401
35.9657 8.84462 22.5429
33.2755 6.60546 22.1693
30.0578 5.9749 17.9725
29.7656 6.69857 22.2148
28.0562 8.88095 22.0234
33.9296 7.03006 23.9808
26.1195 6.67985 17.0159
28.1405 8.05093 23.2971
30.2932 6.84391 28.0897
31.878 9.58634 28.9852
30.1705 8.98307 24.6645
24.6072 10.0411 28.8453
31.8624 7.08001 23.5966
30.4635 8.09115 22.5204
32.1138 8.49517 25.3663
29.9885 8.19608 17.7741
26.6205 7.60507 29.8082
32.9753 8.98138 21.7534
23.4085 7.3556 20.9152
28.8146 6.20049 27.7331
30.9988 9.17643 20.6106
27.884 6.68595 20.7266
29.7606 8.21117 18.9492
34.8253 6.77354 20.3054
36.4025 9.49823 27.7224
29.8706 9.83269 26.9589
31.3352 5.58522 21.7445
30.907 8.80051 24.2895
26.2909 7.8012 21.7479
25.9616 7.31472 22.7046
22.5719 5.94177 20.4262
27.0361 7.68334 20.4519
27.8744 6.80096 23.5171
30.0281 7.28724 24.1996
26.7672 7.53735 24.057
32.6681 8.44895 27.0699
31.723 6.33805 20.6508
27.091 7.55221 23.1841
33.6197 8.01539 26.0203
33.0705 9.11106 26.4837
31.2355 7.5894 27.4332
26.0509 8.90862 28.408
29.2441 8.98866 20.8903
27.4274 7.10792 19.4981
25.3292 7.94422 26.9464
34.9433 5.79543 18.6816
28.9344 7.85041 24.8367
37.3586 9.21967 25.7326
33.4327 6.23247 19.3503
28.7489 7.06943 23.2076
30.2268 5.86385 16.8565
30.0591 7.08668 23.8358
27.8111 8.93684 26.7451
21.185 6.8047 26.7026
33.1165 6.53622 17.1434
25.2695 6.70172 19.7965
26.2421 7.82569 26.0433
32.7866 7.08819 23.7947
27.1078 8.43005 26.3273
31.5874 7.48159 24.6414
26.6175 7.37942 20.5696
29.6379 6.70251 21.6023
28.5447 8.0346 27.4986
28.1409 8.01474 24.55
25.789 8.21695 23.9463
23.5787 8.05613 22.7674
31.0391 7.27169 22.6717
27.2026 6.40814 21.1423
25.8734 6.76459 21.4437
30.483 6.76413 23.1453
32.4734 5.77839 15.692
28.2663 5.76618 20.7711
27.3431 6.15691 22.7164
32.9017 9.44753 24.6434
25.8755 7.12966 19.479
27.8959 6.35911 24.4569
26.1625 9.29937 26.915
27.7154 6.57627 27.1967
29.7084 7.70071 22.4049
28.917 5.98244 16.6133
26.4388 5.6112 25.6273
24.7171 7.95009 18.8598
30.0838 5.52753 20.665
25.1654 7.34732 22.2465
28.3589 7.07068 20.3981
29.3193 7.14105 21.0986
24.6778 5.88451 22.5386
28.3858 5.68888 17.7605
27.6604 6.44102 19.7636
27.5933 5.5346 20.8144
23.2092 7.762 27.8196
26.6487 7.406 20.8163
26.9489 6.55913 22.0787
28.689 7.57598 21.8675
33.5915 7.90139 30.482
28.5045 8.14225 26.6351
32.2221 8.49124 22.4765
29.9047 5.76654 19.5307
28.4628 7.90613 26.8109
23.8509 5.56393 18.0979
25.4271 5.62973 19.3849
26.1033 8.28759 24.2096
21.4128 4.37531 16.0165
27.6424 5.3427 17.8706
26.4469 6.37439 23.9268
24.7078 5.37374 15.7475
24.3657 5.6328 17.593
25.202 8.57125 24.9243
27.8691 6.3598 23.3849
24.6463 7.72077 22.677
27.2637 6.62283 25.7802
23.9475 6.88869 22.9473
26.7062 7.76379 23.0579
21.6907 5.19621 15.7999
18.9547 5.04422 21.32
28.6383 6.07513 19.0267
29.0102 5.80095 21.4186
32.0183 6.06612 20.2173
27.5645 5.95694 19.0435
31.2423 5.26693 18.7562
25.3682 7.78047 22.3316
23.9853 5.61313 20.3025
26.3264 6.44817 23.7147
21.9728 6.8775 23.0985
26.1194 6.65023 17.8043
24.1562 6.50071 19.6126
26.1514 5.77905 19.766
27.8121 4.3886 16.2638
28.1758 5.81243 23.1261
25.365 6.07633 21.195
23.0947 5.21019 20.8735
28.7829 6.65348 24.4999
25.0262 8.53073 27.1803
25.6977 5.37892 16.7797
28.5813 6.03109 19.4003
24.0534 6.07387 22.2283
26.1049 7.67819 23.2042
24.6481 5.91586 22.2255
31.545 5.11946 17.9871
24.33 5.72799 20.0988
29.7971 5.33886 13.5262
27.8609 6.46529 20.1419
26.3545 5.57888 21.1452
27.5312 7.66846 25.4948
24.699 5.74066 18.0382
24.8934 5.99559 19.8432
21.3929 6.26331 22.8645
25.7924 5.79669 19.014
22.9298 6.43747 21.113
23.8899 6.75963 24.0331
28.74 5.14396 17.9005
19.5364 5.89127 21.5847
24.5762 5.85854 25.2299
24.2334 6.41065 20.1365
23.4746 6.42661 22.1201
24.4962 5.58219 18.697
26.0813 6.3077 23.9319
28.7025 5.92859 16.2239
24.8522 5.57403 19.9529
25.2094 5.53306 19.668
20.4804 6.86572 25.4894
24.7625 6.48963 22.5503
27.5089 5.56652 21.2565
21.3875 5.92617 20.2034
26.6159 5.90153 19.6858
30.4452 6.63493 22.1567
25.8162 4.26231 18.1161
23.8881 5.05263 17.1835
25.8627 5.75757 19.5337
24.6109 6.21725 24.7411
21.3006 5.8123 18.6184
24.6575 7.0501 21.6081
19.3055 6.97392 24.7946
25.6736 6.19049 18.2469
22.9087 6.11226 27.1105
25.0382 7.13854 24.0764
23.8244 6.23154 20.4298
23.5003 5.82859 22.0747
25.4558 5.99051 19.9455
19.7273 5.03291 19.3692
29.4326 6.01687 18.5118
24.8735 4.74398 19.6101
20.9854 6.0093 17.7315
24.355 5.02393 25.2043
22.3635 7.63972 21.4185
23.5837 4.74192 16.1164
20.723 5.57233 20.5437
29.3904 6.03004 18.4189
26.6327 6.29417 24.4653
26.7596 6.23746 19.0029
26.5419 5.63367 25.6501
21.6873 6.14886 20.3521
27.7568 7.30532 22.8645
21.509 4.57208 17.942
19.7373 6.82618 26.9639
23.4149 6.46002 17.2085
24.9579 5.10548 22.3607
21.1066 6.86276 23.4533
21.0733 5.86145 22.9895
24.333 5.02312 23.649
19.9794 6.12797 17.7258
19.0951 7.23861 21.5862
21.787 5.35073 20.4506
25.7568 5.66138 20.7118
22.9652 8.57131 26.3801
24.7134 6.50771 21.1092
24.1214 6.2332 27.5183
22.4931 5.45492 23.2104
27.1316 7.10733 22.5744
20.8389 6.05816 21.575
25.7355 5.48289 20.0535
29.2564 5.18306 28.7118
27.1052 8.93756 23.2528
24.9767 6.27984 24.0588
25.3716 5.16966 16.2353
26.1877 5.14652 19.0167
20.5046 6.30623 22.3001
24.7352 6.18431 23.1722
22.5763 5.63544 21.8309
21.6435 5.34164 17.8429
21.989 5.76865 23.1695
22.1601 6.43513 18.3835
24.1595 7.24694 22.0112
21.1147 6.42694 20.3802
21.1083 5.69059 21.5583
20.6249 5.76263 21.6438
23.5679 5.90248 22.4991
26.4322 4.75974 21.5121
22.6748 7.94755 32.1855
24.6108 6.20312 19.5279
22.3995 5.99084 19.2063
20.9159 5.38734 16.7727
20.4559 5.11827 18.3804
25.5532 6.84053 24.5538
24.6737 4.42097 16.207
21.9632 4.90416 23.0022
26.0961 5.66546 18.4499
23.2358 5.01022 18.9255
23.3577 4.16581 18.3453
23.0616 6.25864 21.0444
17.912 6.71812 20.1935
21.0589 6.75465 24.9139
23.4305 5.05142 18.7362
22.0266 5.83594 19.037
19.8673 4.54259 19.6097
23.7104 4.2901 16.6229
20.9065 3.48147 17.6835
17.4049 5.74992 16.2708
24.5553 4.50972 14.0162
22.4783 5.31769 20.9304
22.7966 5.76167 26.9448
24.457 5.03835 13.8873
22.7935 4.46278 17.9228
21.239 5.6882 19.0306
20.4796 5.70783 20.9894
22.2254 4.41514 17.0651
21.9101 5.21732 19.9691
26.0293 4.25537 18.4298
22.5991 5.26534 20.5065
23.4225 5.93457 17.7728
26.8144 5.19772 19.4496
26.5523 4.79175 17.8589
23.5796 4.87321 17.0144
20.9934 4.83618 19.5695
24.3644 4.98157 21.3159
19.7199 5.74718 17.1844
22.6758 4.88217 20.9554
22.6707 3.56779 15.6427
23.1408 5.29428 20.3408
23.4579 6.81081 18.4166
22.0399 4.39708 18.6353
24.1156 5.38561 19.3828
22.818 5.3819 17.8596
23.7629 4.4499 20.3124
19.8177 4.67877 19.0352
21.7647 4.86527 13.0644
25.0834 4.53652 22.0137
21.8412 6.572 22.0803
21.1194 4.5095 16.5589
21.7303 4.68549 19.1148
22.7768 4.59926 14.6987
20.3669 5.68633 27.6429
23.918 5.91229 20.756
24.9789 5.80199 22.2382
23.3595 6.61142 23.3824
25.5793 5.02049 15.0866
20.358 4.56974 15.0485
22.8725 4.85073 17.6233
21.2798 4.01338 18.6525
20.6216 5.0924 21.4136
18.8649 4.106 13.6842
22.1563 4.20056 18.2265
19.7584 5.56518 20.1194
17.656 3.95354 20.9218
21.9936 6.29122 17.7859
21.425 4.82722 17.0895
18.9392 4.12046 13.954
21.0711 4.19797 18.7815
23.5948 4.8422 17.7207
23.6624 5.58672 16.486
20.7603 3.32124 14.2207
22.3898 4.55137 24.7178
20.7521 5.81417 19.5129
22.6741 3.62788 13.7796
23.2449 4.32214 19.5508
20.8774 5.72198 20.2791
24.5644 4.89538 18.6198
22.666 3.8819 18.7361
23.5256 4.67011 18.4666
20.4417 4.80969 13.298
22.3009 5.1432 17.3468
20.822 4.56615 19.1123
19.5424 5.15982 20.2414
22.6716 3.84282 16.2045
18.8984 5.12229 18.3631
20.3677 5.55408 23.5777
21.1345 5.34121 18.572
22.0539 4.75594 16.9682
22.9709 4.04136 15.9684
22.5774 5.74223 19.3187
21.3773 4.82812 15.09
22.7053 4.69548 20.703
25.2421 4.48093 19.1752
20.1475 4.73086 18.8
18.7221 4.66731 17.2703
25.5561 4.71325 19.5417
21.2524 5.18947 18.203
19.7537 4.36356 18.66
22.7826 4.33011 14.4095
26.6659 4.14075 16.271
23.2073 4.6495 16.5804
21.916 4.3551 14.0655
21.9204 4.5469 19.5956
21.1729 4.80371 19.0015
21.1672 5.32841 18.6328
17.5892 4.70922 20.3694
17.709 5.34159 20.2104
21.6231 5.46164 19.9623
22.2603 5.0217 17.9852
20.9749 5.01994 19.5441
21.8472 5.00873 21.688
22.7565 4.51665 16.7096
17.7758 4.53774 15.101
21.783 4.45794 19.6138
20.8213 4.92217 18.1154
21.9784 5.70705 18.8211
20.8277 4.22555 16.7641
20.02 4.3524 15.0142
20.202 3.09255 16.6728
19.7234 3.99685 18.8766
22.7193 4.60405 18.9442
22.2214 5.11162 14.9571
22.202 3.91386 18.7226
24.1323 4.35948 17.3638
21.135 4.54085 17.1866
23.3568 5.90271 19.9423
22.936 5.16802 19.4419
19.7885 4.35947 14.534
19.7469 3.70138 15.7233
21.8927 4.08128 16.074
23.1762 4.33655 17.5293
20.5257 4.05605 14.9651
21.9897 4.26181 13.5208
21.5337 3.55024 16.7459
19.3964 4.87674 20.5483
21.5021 5.16368 19.9994
19.6588 4.75669 18.5831
21.5134 4.2445 17.8655
22.3673 3.86113 13.6213
19.712 4.14603 18.7319
21.794 5.13186 19.9181
22.6464 5.16731 17.9929
20.7222 3.69504 15.9487
17.9003 4.04678 16.4947
20.9037 4.28921 23.5383
22.0264 6.77392 22.6285
21.6834 5.02491 14.4893
21.8058 4.33748 19.7782
22.6022 4.42021 15.5484
20.3934 3.51404 17.6047
19.9386 4.90573 18.526
20.1914 4.44627 16.2338
18.6407 4.49944 18.7996
22.5785 4.3661 11.1611
18.9714 3.20771 17.3783
19.5278 3.95368 15.794
20.8013 5.42863 20.1041
22.2545 4.08294 19.2325
18.1181 4.86001 15.8063
18.859 4.49554 14.0884
22.3096 4.84059 27.7037
20.7482 4.58669 13.5832
19.4739 3.34482 16.4162
21.6038 4.57497 17.6505
21.4489 5.55699 21.4855
21.4256 3.65172 14.3672
19.2262 4.26232 13.8661
19.4014 3.81939 17.3736
21.5084 4.66072 18.0599
23.361 5.16646 19.1432
20.2328 4.39932 18.4666
21.6849 4.2537 16.3696
22.8618 4.23046 15.5714
20.1363 3.61745 18.7068
19.8982 4.90343 17.2298
19.4386 5.07889 16.8884
20.7559 4.87215 16.0934
17.1059 4.25096 18.2235
21.6287 4.44883 17.0386
22.0755 4.15833 17.7219
19.3927 4.2278 14.319
18.4734 4.66587 17.1923
19.3186 4.13394 23.292
22.3746 4.28906 13.2442
20.7664 4.13321 16.9747
21.3943 3.27655 18.3434
21.867 5.18632 17.5001
23.0073 4.74633 17.7648
22.0123 5.28613 18.9092
17.8837 3.99368 15.6552
21.6992 4.83848 16.1795
20.6615 4.02085 15.6322
18.8497 3.63051 16.9338
19.9338 5.28117 18.9258
24.0199 4.69242 20.6492
20.7836 4.84677 14.9859
20.3113 3.90918 14.239
19.6226 3.24761 14.142
19.6102 4.18357 18.7536
19.9706 4.79125 16.9969
20.5957 4.45699 18.7271
19.3967 3.55437 16.777
21.6944 4.7565 16.4234
21.6074 4.29757 18.8299
18.9214 5.07167 17.0368
18.073 4.8698 19.5665
22.2811 4.10525 15.8016
19.7079 4.58252 18.9437
17.9883 3.98496 20.7787
22.1057 4.58723 14.3442
20.1849 3.50286 16.4467
21.2586 4.58926 22.0782
20.1476 4.99799 14.89
19.8166 4.26613 19.4632
19.6505 5.53922 15.9642
19.8364 4.62987 19.4831
19.1915 4.87336 21.1687
22.4554 4.66862 17.8688
23.2694 4.13435 17.1309
21.0061 4.00487 21.9025
17.13 5.13077 18.5849
22.7113 4.66233 19.5392
20.4783 5.54126 18.7288
18.2722 3.7299 16.4184
20.7549 4.81358 18.8252
21.7544 4.29275 21.6009
21.3065 4.64641 15.9049
21.063 5.12339 22.0082
21.9588 4.79399 16.7491
19.3687 4.82016 15.9037
18.8694 4.55971 17.0575
19.5564 3.73127 21.5435
19.5151 5.88666 19.7756
22.0231 5.313 23.1061
21.9585 6.56996 19.3934
20.2811 4.04445 18.8918
20.1834 4.47544 16.5114
21.2971 3.93419 11.907
16.2367 3.19099 17.1622
21.2675 5.10942 16.5794
21.703 4.39339 15.5021
22.5107 4.42232 20.3782
19.2997 3.96344 14.74
21.5368 4.15965 18.4344
21.6699 4.99427 16.782
18.8124 3.60261 18.9809
20.6272 4.84794 13.5374
17.9818 3.61862 14.2749
20.0485 5.04657 22.2193
22.7369 3.99838 16.5716
19.5852 4.2684 16.1401
20.6007 4.64879 16.8329
21.0498 4.73529 18.6209
18.0107 5.05664 21.3675
16.8345 4.17402 15.7032
20.0959 4.25864 19.945
21.515 4.40135 16.0118
21.079 4.01791 18.1481
20.9073 4.0043 19.6356
21.963 5.24297 18.3997
19.1997 5.59536 21.4918
20.0112 4.57826 18.7805
19.0775 5.01622 22.1199
19.532 4.12459 21.5896
23.0334 5.76185 13.6606
20.4015 4.74629 24.8972
21.2145 5.7073 24.2885
20.7104 6.0496 24.805
20.547 6.61413 24.5707
21.5102 0 0