# pn-170911/CsIIA-30-USNO-1280-1959.psd
# Power spectrum* (dif=0,1,2) (really just |FT|^2)
# NOTE: only the first half! (symmetric)
# weeks: 1280-1959
# 10 clock-days, 0 excluded
# PSD: 1441
41149 0.393041 0.0356116
797269 17.2033 0.0435722
4.89925e+06 120.841 0.0458119
1.60605e+06 60.3656 0.0541633
1.01546e+06 65.8561 0.033036
404943 36.7726 0.0564176
265180 49.3746 0.0357093
278468 53.9673 0.0603724
197047 49.6778 0.081276
236939 98.4053 0.0909516
135186 67.3168 0.0706826
171969 81.6309 0.0866569
79511 55.1398 0.0858846
99898.6 59.1458 0.0512909
86220.5 49.5443 0.101601
50928.8 50.0181 0.104978
29063.1 24.2986 0.0849463
76536.3 95.4151 0.111894
28687.4 31.1309 0.11117
49811.4 58.7876 0.164259
21698.2 25.7638 0.0852327
28255.9 57.6737 0.196222
38613.2 82.6178 0.2134
23569.6 56.9668 0.224725
28068.8 61.0492 0.175599
29679.8 58.5099 0.229651
16927.4 45.221 0.196848
12051.4 60.5026 0.359168
14138.2 41.0721 0.247669
16028.2 47.9452 0.254674
12784.1 34.5109 0.243579
11764.9 59.9112 0.272359
9646.85 44.1621 0.225475
5976.12 31.8199 0.245325
7382.35 55.6771 0.386196
4306.05 24.553 0.289818
5694.26 34.6063 0.317577
6066.52 38.6469 0.328551
7579.44 54.5966 0.343315
8022.36 40.7723 0.4742
13545.5 79.4551 0.53599
10289.3 65.2904 0.57995
7800.11 50.9431 0.382213
6765.59 53.5159 0.453772
12199.2 75.9079 0.794065
5165.09 34.0741 0.356118
6009.46 75.2431 0.724233
8055.78 77.886 0.991789
4592.69 44.0532 0.495719
4638.46 38.3005 0.549478
7258.04 85.9838 0.937797
5291.24 76.1803 1.08789
4475.42 35.2051 0.542764
3622.33 29.4871 0.388726
5883.16 56.627 0.8463
3582.85 35.9783 0.513189
4956.16 58.3098 0.876995
4492.16 56.4557 0.875727
6022.93 69.4599 1.1903
3584.81 39.1714 0.768443
4341.5 64.7663 1.01232
3202.68 46.9894 0.918482
2929.72 50.4214 0.79863
4505.98 60.2716 1.23012
2140.31 28.8279 0.649178
2947.77 57.5922 1.2052
3475.32 44.1961 0.725132
3200.51 59.9507 1.38801
2499.27 42.6741 0.874209
3638.79 75.8712 1.82614
2845.97 46.6762 1.11868
2201.47 52.7706 1.39582
2813.84 79.455 2.01262
2408.09 52.0452 1.41401
3147.79 73.1749 1.97858
3796.96 78.9339 1.95693
3135.72 74.8048 1.87738
3007.68 79.7169 2.5991
3275.98 73.7633 1.98822
3879.88 90.8389 2.29775
1396.23 44.1043 1.25707
3052.2 79.238 2.87252
1773.81 61.7743 1.94788
1004.8 36.9628 1.43903
2396.56 64.2779 2.02602
2335.74 52.2025 1.72473
2397.18 97.1213 3.50306
1490.81 42.0011 1.61888
1760.52 62.8688 2.3881
1942.75 80.8805 2.96954
2133.6 73.8688 2.54154
1616.02 49.7052 1.93236
1592.96 46.4661 1.79159
2672.45 86.4554 3.39336
2296.29 66.5693 2.41598
1774.33 52.0535 2.34154
2643.99 81.3864 3.48301
803.188 23.9559 1.08142
540.408 23.5066 1.0716
1177.2 35.682 1.88598
1015.67 31.4298 1.66402
1686.34 69.9979 3.73129
1751.36 56.7009 2.84295
2266.25 76.0695 3.89657
1329.87 59.201 3.14921
1814.38 80.3964 4.31972
1480.8 72.5605 4.01991
1293.81 47.4344 2.67116
1261.72 69.5912 3.88669
1239.03 47.9047 2.39798
1297.63 53.4777 2.98625
1385.35 79.4091 4.49649
1460.16 73.3979 4.46657
1321.78 63.5754 4.1396
894.882 35.2188 2.07176
1117.28 58.6336 3.7769
866.526 32.6334 2.19825
1414.94 85.5224 5.65362
1444.5 91.9085 6.09395
819.24 50.9724 3.85528
1144.38 78.0651 4.89324
1468.74 66.5304 4.74157
878.23 47.8239 3.20894
1529.73 103.489 7.24355
1062.81 69.1795 5.30875
1197.77 59.3455 4.56146
928.155 49.0087 3.59035
644.949 53.6722 4.26458
1609.39 115.583 9.06103
989.926 52.8398 3.85789
668.409 44.7795 3.70896
663.502 51.1909 4.16066
737.74 34.4417 2.67995
663.206 46.405 3.76287
1008.35 67.4116 5.43333
749.095 49.515 4.38702
690.356 50.4755 4.41746
449.547 34.9866 3.48979
720.918 42.7612 3.12481
628.493 36.7487 3.11559
320.071 25.6437 2.80706
373.328 24.0956 2.51036
1087.69 72.2255 7.48968
683.835 65.3347 6.21353
763.482 45.0946 4.51308
951.574 71.8187 6.31302
702.02 45.6796 4.65582
1080.64 95.3624 9.40211
709.68 41.7663 4.26126
494.057 38.2447 4.17164
1073 90.6879 10.0142
670.591 59.8328 6.38065
551.995 49.7506 5.50408
770.932 56.2998 6.33056
537.788 52.9398 6.00403
411.779 23.4196 2.70985
398.286 53.6746 6.92634
466.624 69.6975 8.1594
659.21 55.674 7.27486
385.046 44.3021 4.46122
420.699 40.5985 4.68029
420.359 40.7639 5.00439
606.084 67.6795 8.29558
424.119 40.9114 4.89996
403.48 28.2457 3.61592
465.215 38.4558 5.28939
468.136 53.5272 7.41423
595.68 63.0623 8.23159
428.068 40.1989 5.04076
463.655 51.8534 7.06753
395.702 31.7409 4.09723
571.855 53.772 7.7075
360.928 54.4648 7.71662
267.663 33.1315 5.39675
433.81 60.3198 8.04906
424.543 60.4042 9.01457
353.235 43.5979 6.06262
315.699 47.8813 7.20106
525.874 55.0754 8.47951
582.548 62.5695 9.79079
410.203 50.5964 8.44321
427.215 56.763 9.31938
586.784 68.4022 10.2502
276.364 18.9937 2.88374
457.987 62.6336 9.1155
320.982 30.344 5.03769
327.002 50.0118 8.33035
352.04 65.8158 10.9006
459.562 55.5915 9.48977
636.08 93.1172 14.6817
490.185 69.7077 11.2882
436.55 52.8851 8.81486
423.668 59.0148 11.0028
597.357 59.6215 9.98219
457.131 61.8628 10.1828
336.392 67.0543 12.7693
201.126 34.1909 6.79941
486.522 69.4568 13.443
365.715 35.5136 5.46075
304.832 40.3039 7.32339
286.163 28.4086 5.0323
501.783 76.8279 14.774
376.213 72.4363 12.6807
268.343 39.8337 7.97378
440.788 59.0736 10.4995
330.333 51.7629 11.0172
378.347 61.2105 12.8902
307.817 52.2398 11.2006
362.974 50.1818 10.5334
365.067 46.2982 9.30903
211.992 27.0546 5.60305
324.066 59.7855 13.0713
163.658 31.0739 6.19286
373.829 39.3928 7.5325
253.391 26.3976 5.79398
360.271 70.7521 14.8073
376.743 48.061 11.7597
559.007 76.4741 17.8283
354.252 66.0708 12.0867
247.479 47.7771 11.6299
441.681 70.7712 16.8444
198.226 50.3022 10.9608
317.423 60.0408 12.8864
253.692 36.5795 8.55232
352.41 59.9958 13.596
192.159 33.9254 8.22929
387.739 64.7388 15.4719
237.26 37.6567 9.37897
171.159 19.0136 5.4429
182.82 33.99 8.18335
329.848 58.9267 15.2267
309.615 51.9591 11.6327
188.17 40.444 10.5788
301.875 53.819 12.6298
343.735 72.9841 18.2779
232.514 44.7194 12.3574
274.638 55.3205 14.2617
285.299 49.2766 12.5082
324.873 61.3701 16.8513
263.957 56.1043 15.7469
292.523 66.8728 18.6325
293.086 57.7393 16.8097
205.197 30.8041 7.81218
333.936 60.6119 16.5842
162.778 28.5305 8.15443
122.052 39.9086 10.1235
278.708 76.5061 21.7215
203.848 48.9065 14.191
163.767 29.5921 8.55602
244.78 77.5628 23.2389
289.003 71.4848 22.8443
198.678 46.2725 11.615
206.721 41.1316 12.7288
266.11 73.9985 21.7157
191.776 41.6746 11.3554
271.942 84.1397 26.4837
316.887 48.9579 15.8377
157.886 36.7593 11.8077
188.654 31.4068 10.0942
155.374 49.9019 17.1778
170.542 32.757 10.5734
159.693 41.6617 10.3569
232.871 73.5782 23.5437
179.634 54.0815 17.416
171.722 47.338 14.912
256.955 57.2113 18.6445
268.491 73.6756 23.9889
320.002 73.4386 23.9623
135.745 42.0376 13.116
169.397 45.6362 16.3764
168.805 40.3442 13.9035
172.79 58.3164 19.0933
161.27 40.7957 15.5703
128.956 25.9676 7.41776
220.043 60.9532 20.492
130.01 58.5416 24.9347
256.336 53.9915 15.251
199.77 51.5401 19.4176
111.102 26.824 10.3039
252.572 73.4079 25.4036
148.151 50.171 19.1627
197.549 53.7638 17.1897
175.163 43.6448 16.2516
142.975 37.5355 14.7774
254.576 49.1453 15.8663
181.997 43.5425 14.6256
203.242 55.5441 20.0998
184.738 55.6648 21.7003
136.816 42.1162 16.1656
303.089 62.254 23.2684
171.26 66.5716 25.9013
125.538 42.4612 19.012
117.869 31.5395 11.3415
81.6778 27.3448 9.86758
222.346 58.9198 23.3939
102.079 24.5692 11.4796
148.276 54.9118 22.2552
102.742 44.0114 19.0272
135.747 32.9769 14.5685
116.102 36.8501 15.2398
149.43 47.1331 19.5601
256.611 66.5285 25.334
77.1524 23.2693 10.5586
115.561 35.1348 14.8122
213.691 64.0144 24.2274
173.013 56.6164 24.514
65.855 27.1642 11.8746
140.407 35.0078 15.6831
172.76 39.9782 19.8008
133.301 41.7984 17.4598
108.597 37.0188 16.3565
120.352 47.9247 20.6978
198.463 51.4545 20.5447
89.5559 45.6461 18.6437
71.5122 27.4701 13.107
168.569 53.9465 28.4483
91.8085 25.304 10.5132
137.851 37.6101 16.152
114.216 53.6344 24.5436
113.76 32.8391 13.6345
48.725 28.2633 14.6617
120.853 55.8587 25.4738
83.6021 32.6103 18.975
131.391 28.0874 9.65178
130.881 50.116 22.8317
159.309 43.6191 20.8492
144.601 68.2024 35.4509
80.9989 38.0125 17.9653
101.465 28.4231 11.109
138.823 47.9486 23.5352
85.8933 27.1897 16.4026
71.6695 23.859 10.9542
79.3997 25.1956 13.9657
173.602 53.3571 27.517
88.3381 48.5193 25.5563
144.346 63.4399 28.8303
65.561 34.5768 16.311
41.761 29.5697 17.7912
88.1896 32.0791 14.6655
75.3509 28.691 15.4996
87.9884 45.5741 22.5955
95.9836 39.488 20.2189
79.9352 36.8389 19.1895
79.3476 56.073 36.1057
122.358 36.0458 17.3053
92.0237 42.2692 21.8913
106.146 63.0813 35.3171
89.7354 32.0019 16.6829
107.256 37.4042 21.5448
75.9324 48.369 33.7957
195.389 73.9316 31.8372
113.295 43.1158 22.9307
57.3727 11.584 6.04838
152.401 68.7315 37.0519
116.122 45.4046 24.3403
85.6322 23.5746 15.0683
60.7162 20.8296 13.547
65.4216 29.9065 16.9541
98.842 49.4217 29.0712
59.064 18.9364 12.9707
76.5752 35.5706 22.1324
131.716 54.5312 31.0274
77.8418 49.0487 32.2328
85.781 59.5985 34.9852
101.215 54.9329 31.818
116.441 40.479 24.0146
62.2865 46.7578 32.1594
112.367 26.3815 12.3379
179.612 64.8016 38.5261
82.382 41.6556 23.9471
66.2302 35.4217 30.1411
117.276 65.2687 35.8459
81.6721 33.0973 21.4033
79.0691 27.5027 15.9517
78.4351 34.6351 26.2806
97.6183 47.3759 30.7048
114.144 48.0714 25.0461
70.1815 27.0402 18.2738
86.3542 38.7371 26.9935
91.0893 41.3091 23.7449
108.486 48.4911 32.3931
124.946 58.7515 35.4388
52.6565 33.647 24.1266
78.1225 31.8938 20.7115
70.3367 45.0598 31.5014
74.7606 53.6273 30.9225
47.4901 30.3784 18.5517
59.4309 41.1924 24.0741
75.1629 51.3974 34.8883
76.2843 20.6308 16.0366
40.9198 29.0519 21.759
80.65 46.3372 35.2695
43.0464 20.7813 9.57251
43.7099 37.8079 31.9869
105.264 46.654 31.8805
88.7873 32.8235 23.0471
25.7688 18.5531 15.6887
76.0918 37.1388 23.5252
106.602 36.5337 22.9754
46.0914 28.7184 25.3569
45.42 14.0349 9.33668
51.2229 24.3099 17.744
73.0558 41.2612 29.2104
70.6196 19.3488 13.0593
55.0564 29.0729 25.675
72.0493 34.8584 22.4364
43.2972 24.3227 16.4942
71.7853 50.7238 43.1175
109.144 47.0197 30.0548
105.943 74.4874 48.8485
70.0893 45.2681 39.5616
61.5021 24.5728 22.324
57.7107 23.6601 14.8921
59.0792 27.2504 19.337
92.5942 47.7128 36.9409
53.3187 22.7885 19.0988
84.1614 46.0561 33.3677
54.0235 34.9844 27.1045
38.8028 22.4253 22.5224
54.7243 31.7746 21.9449
95.3343 41.1654 32.7856
75.3404 37.5419 26.8581
57.6766 31.0198 29.0275
53.3794 34.7428 22.5253
52.5564 22.6983 18.5269
52.1936 43.2812 35.5824
59.5949 38.3974 26.2015
56.5351 30.1065 22.5011
63.588 35.3074 30.3455
70.6805 32.1788 25.4102
49.1756 36.8394 30.1956
57.4783 34.3403 26.6764
39.9436 42.2793 35.6713
63.6102 32.9227 23.5511
63.6648 27.3102 24.2539
62.8463 31.4158 25.7168
71.2052 40.459 35.7589
75.3716 29.0911 26.8729
81.7551 44.6716 37.3936
54.9054 40.1258 33.0897
67.5683 52.5959 43.6832
47.4513 34.7966 29.0559
70.9407 31.487 24.4075
52.9896 40.8512 47.4271
69.9704 48.6995 37.8059
57.3431 38.672 31.7004
35.8883 18.2153 14.0735
50.5837 19.5759 17.2961
29.6681 18.6889 17.0828
43.0901 40.7559 36.4887
50.8024 24.2738 21.1358
56.722 39.7929 30.5474
29.4627 14.2883 17.407
37.6444 23.3177 21.2866
60.2652 34.1969 32.8377
45.6334 26.7068 25.619
70.5118 47.4299 43.5948
37.741 19.6505 20.1526
45.6678 27.0453 18.026
42.4519 27.3361 28.704
36.9289 33.929 37.6696
69.8595 41.9625 30.2315
45.9702 34.3201 33.9586
28.6268 23.8322 38.7192
72.1676 43.7124 30.0022
55.6234 53.6577 48.8961
32.8976 38.1702 32.6704
41.6662 30.9658 30.9663
29.2664 15.3727 14.7076
28.116 32.446 30.4176
45.707 31.3058 34.4361
82.9079 40.9518 30.6099
49.7808 25.8764 26.7188
29.7569 24.7188 25.5177
44.1965 47.9585 44.3818
44.5062 20.9057 18.4953
36.165 28.8164 35.7178
29.9601 28.2472 29.6618
44.5841 27.1713 33.2331
62.141 38.9944 27.613
33.7408 31.3528 38.1245
53.0046 31.4267 24.8207
26.6307 20.8773 16.7024
22.6757 20.0558 22.0006
47.5026 31.893 33.888
51.9779 27.723 27.845
40.011 38.7301 35.6435
41.4959 45.4027 48.7181
46.8695 30.7815 28.3612
36.5078 16.6002 15.3813
44.9347 39.0613 42.2658
36.3271 30.4526 36.617
43.5196 23.8019 26.0953
49.4881 26.2777 24.6334
47.2493 48.6328 50.5142
54.882 39.9502 40.0976
26.327 25.2641 32.8941
44.5781 22.7769 23.6775
59.7496 29.6972 34.1416
67.1274 57.8449 59.0023
33.0856 28.5853 27.3549
29.5132 19.6404 25.3152
42.6004 27.7466 22.2716
36.1528 26.4041 30.9997
24.3394 35.0065 40.1714
50.2695 45.0824 54.1158
58.4266 36.8529 36.5189
52.1953 46.6719 46.5789
41.58 39.9708 42.216
43.3166 32.034 36.0331
47.0531 35.0485 42.1417
33.8035 23.9137 26.1893
34.4799 31.4602 32.3407
23.1466 27.7602 46.0621
40.247 27.1284 23.2789
35.0361 32.2261 37.4017
44.935 39.1561 46.572
44.6612 24.5292 28.2477
56.6112 50.3297 55.9526
32.9951 28.05 30.6612
36.1775 48.0954 48.8929
29.2058 14.2255 18.7939
24.3811 20.8842 27.6275
33.6885 23.3362 29.4428
28.3204 27.0079 31.5324
34.6683 34.5225 37.9044
42.1396 29.9593 33.5649
24.1117 20.3257 21.3821
67.1081 51.1163 62.1707
33.8557 26.0179 33.6776
28.5975 27.0041 34.8735
45.6821 40.8312 50.6322
45.8143 33.8352 38.8924
38.3736 19.854 29.4807
40.239 26.9816 31.568
26.9059 32.6334 36.7304
33.3979 22.6511 25.596
27.0635 21.7348 29.2167
35.8276 43.1397 48.279
19.2634 26.5004 29.6136
47.5472 36.8087 44.738
35.2293 27.7243 30.1291
15.785 22.8587 33.9976
30.5474 28.7951 33.9887
25.7802 24.1194 33.5952
41.9991 37.6318 53.4517
34.0404 26.0614 25.3959
22.4983 19.2767 30.81
39.2733 26.9493 27.7543
32.3074 28.8089 35.0031
24.5363 29.1531 37.1609
25.0881 14.8084 23.5333
32.7651 24.0342 21.4975
16.1299 13.8631 19.118
37.5484 36.9962 50.9041
38.0139 25.1516 30.6167
27.2446 24.6626 30.1707
25.9047 21.3645 31.313
30.1655 20.4057 24.0448
20.3076 16.3203 24.1255
31.7837 29.8509 37.0695
17.041 26.0859 33.4168
35.3757 24.363 42.286
45.9061 30.775 32.5251
19.7271 16.9075 20.0488
29.1719 40.9709 65.8028
24.8156 22.6371 31.809
36.6778 26.4089 38.7238
27.9983 26.6435 32.6551
38.3443 37.6036 42.6147
31.187 37.5529 45.3071
33.1359 38.2935 53.7854
40.5972 36.3409 52.191
38.1612 59.7325 76.2296
40.586 34.9049 47.5372
42.9224 31.0886 42.7068
49.494 49.8312 50.7812
27.1253 31.3718 50.552
17.9365 26.9342 43.5352
24.189 18.9724 30.8573
46.8386 37.4713 48.0237
35.4741 25.6117 38.1761
27.0426 20.9795 32.4352
22.4419 32.9506 44.4942
43.1961 34.2345 37.9422
11.1337 16.4692 26.8824
21.9291 27.8066 40.018
20.378 38.7206 57.0871
32.0979 25.4491 38.2254
24.7498 16.281 32.7603
48.0039 32.4254 33.6332
23.3417 25.7924 35.5367
26.2492 33.0342 55.7452
44.9584 26.9991 28.5781
28.0044 14.6435 19.8547
23.661 35.6258 55.8795
19.2741 11.7321 22.5503
61.1642 49.0643 58.9619
13.0658 11.3451 23.3798
26.8692 34.2284 45.8134
26.9759 22.1144 30.7192
22.0458 19.1269 38.9059
34.8838 33.659 46.3172
45.1016 41.9242 61.6755
26.1587 27.5869 51.8575
25.047 26.7858 40.8339
44.0654 37.1506 47.3729
42.6467 46.9865 72.0579
17.2179 22.2944 35.9106
25.798 34.4295 56.7323
26.2846 25.8643 44.5482
34.6976 39.8396 54.7777
24.0647 18.6907 31.6747
22.385 25.2483 47.6826
32.8776 28.83 49.4797
37.2732 26.5521 37.6443
43.3618 34.7485 52.3976
17.7239 18.6256 26.5302
19.8074 13.7493 28.2098
33.3891 31.3708 41.7135
18.7591 20.0637 35.6374
9.62013 25.9897 47.0443
28.057 21.0306 28.0156
15.4061 23.8528 46.7164
31.5549 23.0024 36.9205
31.8702 39.6385 60.5724
19.9616 20.3123 33.757
29.3117 12.1809 28.5604
50.3887 43.9504 68.9905
40.7912 28.6648 27.317
16.496 18.2403 32.6491
39.4717 33.442 65.0078
31.0579 21.873 22.0927
22.2169 33.2742 54.8298
23.2751 25.4015 38.3577
23.2614 19.1276 32.6113
16.6672 13.0173 33.7038
28.3841 42.164 55.0263
19.9768 18.1542 25.7479
29.672 37.7889 56.5782
7.34015 15.4457 34.1875
27.6901 27.8882 57.4915
23.722 33.7309 47.8237
13.1808 13.6353 28.3866
26.7594 36.1957 57.1721
21.653 12.8649 21.2951
19.5508 29.3506 62.9469
32.5509 27.9672 34.0612
23.4133 22.6419 42.2669
29.386 23.8979 34.0966
29.6517 25.1608 44.9347
12.7729 23.7845 48.604
14.5011 11.801 19.5711
32.3719 35.5121 45.9082
19.3272 24.3866 42.7578
22.4956 29.4171 53.3553
18.611 10.7432 22.1944
33.7375 26.1215 43.0322
25.7314 19.5003 30.4542
21.0493 19.9713 43.5258
30.3753 34.7576 66.6949
27.6437 18.2559 33.6237
30.1284 29.4195 32.7658
21.2698 19.266 46.7753
21.9561 19.6237 47.0839
42.5704 44.7862 48.3531
31.4356 28.3629 52.9573
30.0495 38.6348 63.3968
20.4189 21.9259 29.5234
10.6912 21.727 37.2658
20.411 23.6943 39.2036
21.4365 21.1436 46.0137
16.2889 17.4268 35.0919
12.3743 26.5551 64.4922
19.2195 10.9725 20.8901
20.5759 19.691 36.1111
20.9655 19.3187 36.8167
17.1555 18.0948 41.9378
28.0431 23.1044 34.1301
27.2744 35.0059 59.5527
26.7128 14.5437 24.4429
22.6455 27.6334 55.0612
28.9041 33.7281 46.9329
15.77 16.4588 39.683
19.3662 14.2615 22.7398
33.5494 43.9614 68.296
17.5847 23.8005 42.9431
14.2698 15.1775 39.3753
20.1175 21.7207 43.5951
19.2515 19.4387 42.4181
14.4369 6.72583 20.8816
19.4465 26.1402 56.7078
32.8334 41.4116 61.1456
16.1692 19.0904 31.2801
16.9279 17.6659 28.2551
11.5432 17.2431 44.025
17.4773 28.6981 64.6573
39.2785 27.5556 52.2656
29.6953 33.7327 41.6517
28.0607 45.0615 80.9647
19.9623 26.9842 55.8363
35.0111 34.7489 49.2719
16.267 12.3036 26.5636
13.1949 23.2941 38.6009
15.812 16.9202 40.7606
23.9537 23.9187 44.037
24.89 25.7878 55.2951
23.3458 29.8421 44.3095
18.0847 18.2794 37.9574
25.3639 23.7968 50.5837
14.085 25.2475 50.1184
15.1688 27.6882 64.6714
14.9995 24.0072 44.1126
28.3891 46.6315 84.1789
20.3139 14.1582 30.2734
17.9978 9.05196 21.5411
12.2135 22.203 36.9195
14.1793 11.359 24.3087
20.6057 20.4464 45.9488
23.0016 17.6416 36.0808
12.2619 9.86526 16.68
12.124 28.9848 52.6729
13.503 15.6061 22.5687
17.8704 30.0869 69.813
24.1319 19.3136 49.405
20.6871 20.2041 33.0541
9.60569 14.1897 38.1931
21.1926 19.3361 41.3868
17.9478 14.5501 32.107
15.1414 11.6555 35.3107
20.8758 24.4081 54.1629
26.7899 28.7715 47.5107
18.1975 16.8083 39.082
24.3526 19.0482 29.4844
9.9333 10.9876 31.6505
24.2901 23.2991 34.9481
12.7627 12.902 26.5317
17.1453 13.0297 21.6747
10.8798 22.8244 47.7744
16.848 21.1945 46.3775
25.8686 25.5368 61.7147
23.5562 13.7467 16.2275
8.00758 14.9599 32.1178
13.5502 23.4244 52.6139
22.9074 21.0869 47.0122
17.7393 16.5244 37.2843
16.3679 13.8882 23.9801
12.7002 22.4107 59.9319
24.4048 33.0301 84.0163
36.9861 26.5767 46.3858
15.2451 18.2967 34.672
11.5794 17.792 41.0381
15.4044 13.1696 23.2406
13.7337 17.8186 53.8714
30.4043 36.5326 71.266
15.2139 23.839 54.766
14.3773 16.4405 35.1053
17.4969 10.172 29.271
29.2431 34.1545 71.3934
13.2656 30.5465 79.2801
13.1297 18.5091 34.6228
17.6599 22.876 72.2267
29.5143 28.6353 36.8078
19.4511 21.6403 59.5541
15.5552 23.8986 42.3354
15.5185 19.8577 42.7684
18.0343 19.1075 43.1833
22.3391 23.9111 72.5113
22.4005 22.8857 33.0709
13.1296 9.68222 24.4857
18.7501 22.3742 56.5014
34.1044 33.3745 47.8873
10.9217 16.2139 36.9571
14.617 22.6394 58.4344
20.1366 17.4509 33.1743
18.631 23.3556 45.6506
10.2192 15.2025 35.087
14.448 14.6074 33.0772
13.4333 15.5873 39.9838
17.2947 42.2344 81.288
17.9059 22.601 48.8639
19.1273 27.7069 62.8106
13.2441 9.23563 25.9988
14.4966 19.3707 55.7939
13.2722 12.8692 43.4846
13.3147 9.74288 14.2794
19.8751 32.1141 59.5832
15.1417 11.8106 22.9254
22.0348 21.8276 40.7014
12.166 8.73056 25.4471
14.3947 23.6265 48.2058
15.558 19.5543 63.3661
9.25461 14.9694 28.7782
17.0354 19.7499 40.4127
10.4521 29.5547 73.9708
16.3798 21.1355 54.6355
21.1834 17.1075 28.8605
8.81763 15.4078 37.1145
6.97141 11.9909 33.8476
11.8361 21.1914 52.6255
10.9767 11.3986 37.5188
22.6705 19.732 33.4682
13.1926 14.2878 35.6634
8.2348 15.4868 37.6922
14.1025 16.133 39.1194
20.1409 16.6372 63.736
19.6191 22.6103 43.4027
12.7737 21.3022 61.8773
15.9742 24.5835 36.8121
19.2664 19.8154 49.7896
18.2737 22.3276 53.4645
24.5527 33.2496 63.1031
13.9063 18.0163 52.8149
14.7399 18.3613 58.9065
17.9924 31.4459 41.7714
9.27198 17.4865 48.8256
17.2736 18.87 51.4211
19.1718 26.9511 63.6138
11.4712 11.355 39.036
19.0148 25.425 63.6588
14.2628 20.3039 24.3127
17.0868 25.1826 73.2465
22.8876 40.468 77.6249
8.14196 12.3741 47.107
16.9982 35.1698 68.3562
9.37239 12.1948 49.2537
20.5738 22.8774 35.3403
14.261 20.3172 45.4113
5.17388 14.0518 43.1923
8.93774 13.6409 34.5732
14.2506 10.9994 29.4766
14.3871 7.38294 33.0985
11.9832 13.1255 26.723
9.32767 19.3938 51.8488
18.6577 22.9727 71.5446
19.9787 24.6727 49.2093
9.54691 15.8816 53.1335
18.0648 30.3157 69.5829
10.7152 15.6935 32.6231
13.9112 11.4767 25.8927
16.6379 12.3725 32.834
15.4582 25.015 60.8235
12.9786 20.771 47.3887
17.4341 18.0271 46.3657
19.4873 21.1781 47.6701
10.6498 24.19 63.1056
12.2112 17.3928 41.4985
13.7628 21.654 49.4897
13.9632 15.4254 40.4405
6.99066 10.4394 31.2278
7.68087 10.2365 37.5825
11.746 13.1224 31.6028
14.7486 9.63427 27.1458
10.9133 12.129 26.7586
4.38673 7.46032 17.4131
7.94491 13.4879 33.2491
14.3876 8.53076 19.5296
9.66634 8.84427 27.8678
11.7789 16.0545 53.0396
10.2974 9.02945 21.0345
10.072 7.51728 20.2456
13.1914 18.6981 59.331
10.9513 8.43498 31.5443
15.0082 18.4665 37.792
15.9003 28.7776 92.9261
20.9039 30.7013 68.3683
13.1611 11.1041 43.6891
18.1116 24.5959 34.2978
11.7431 13.9974 31.1533
13.6158 20.58 54.4522
17.0458 12.6412 39.2393
13.1872 13.057 33.9678
10.8913 12.6486 33.1208
8.13102 7.10148 37.953
12.5076 9.20689 30.3209
13.6563 25.1553 79.9155
23.0546 31.0446 58.0611
11.2299 16.9165 35.534
15.4387 17.0181 53.2982
15.9069 27.8717 68.4997
12.4441 19.8395 54.5408
10.4643 18.9775 60.2613
17.4417 15.0234 36.915
15.7308 26.0225 56.6029
13.9046 17.3661 35.6087
9.61732 12.6526 23.9084
11.9421 14.3139 54.6668
24.643 35.944 67.8411
13.2141 13.8294 23.2019
7.01649 21.3954 65.9653
12.2752 13.6003 48.6885
13.9706 22.3218 67.6761
10.1054 14.9095 37.3069
8.48646 14.0907 46.1165
8.34349 15.9917 46.7091
11.4124 17.7793 67.5169
14.4216 22.0634 34.5162
7.15535 26.8061 90.8506
15.5633 10.0666 25.805
11.2455 13.6011 19.1182
11.0762 12.1257 29.3014
12.1044 23.4373 74.7586
8.41528 11.3539 57.9759
15.5293 22.4582 46.199
16.1594 15.2986 50.32
11.1033 17.9396 38.9251
9.9164 25.5436 65.3238
12.0947 18.7914 44.2104
10.1814 12.684 45.5614
14.0671 17.1579 57.8218
13.7248 12.4173 45.3407
13.4065 25.4009 49.4756
16.247 25.0109 65.0675
8.74815 23.9109 55.2167
8.42385 20.8242 85.8556
12.3551 22.8561 58.1468
12.5298 11.5285 30.3719
13.461 22.0912 71.2173
15.706 36.1944 90.169
10.6219 28.1497 66.2676
10.7382 9.85354 24.9218
7.94528 18.8877 96.1323
22.1776 27.8048 54.9898
10.8675 12.6778 27.6964
8.24081 11.106 34.6865
13.9033 27.7032 70.1397
14.6445 10.8899 37.8334
11.9524 15.7103 53.8374
5.81351 10.7824 45.2227
14.438 17.8493 34.501
13.7885 15.8423 40.9654
13.7863 19.4186 55.2968
13.0803 26.3915 85.1876
9.48607 17.4281 54.9
9.22869 15.1086 85.7049
22.4691 26.0462 34.2192
10.4102 17.4748 79.8863
14.3833 21.1077 47.0065
13.5715 14.3514 28.1337
11.5386 14.8229 38.6968
12.1252 16.9226 41.8466
8.8449 13.9145 36.8744
10.5003 10.754 29.7997
9.80631 15.0628 42.5258
9.68842 6.71014 47.7284
14.3598 13.6241 33.0297
10.3956 18.3052 55.2486
10.5893 13.7384 47.2817
12.1448 9.64163 32.6223
9.11286 18.0734 59.495
14.5656 27.8523 82.4375
22.8493 11.6008 29.7948
15.743 13.3743 31.7924
11.9028 12.9402 29.0474
9.09093 18.8002 42.2616
14.0105 14.1705 54.5561
17.5421 18.6021 50.3217
11.4121 17.5686 36.2374
9.2759 23.6657 84.5742
10.3139 14.3252 32.597
8.94365 11.0268 42.5787
16.3282 12.0975 30.0116
6.36253 6.59865 20.4542
7.90633 15.3382 50.8079
12.7073 17.2022 51.6378
16.519 19.3565 56.8987
14.6256 19.1877 52.2243
7.84504 11.8992 41.1384
9.20799 15.3858 34.9049
6.23957 10.1874 41.7719
8.15351 16.6536 76.9046
11.1894 18.672 56.3708
14.2395 16.5713 52.9071
11.3546 14.723 31.6091
13.864 18.6933 49.0147
7.64573 8.48755 18.062
7.08118 14.7942 55.3905
11.4477 14.1464 49.8778
13.3536 13.7462 29.3898
11.3897 14.8727 42.2502
4.66153 13.9793 49.2742
8.83031 4.13752 31.7746
16.3515 17.5518 33.1968
8.49528 6.10184 29.2908
6.9624 19.4814 49.4846
13.8785 21.4898 41.5657
13.2427 12.6641 47.1579
10.4924 21.2974 52.5592
7.36794 12.5817 33.9145
6.4201 5.88954 28.8829
9.46076 13.0717 54.9054
5.44818 21.3156 41.5356
8.61576 21.355 65.2982
12.7075 23.3995 95.4433
18.9687 30.9809 100.381
14.6388 15.7639 39.3476
9.52422 15.8249 47.7841
8.21603 14.771 44.2973
11.393 9.80302 21.167
7.42532 7.23606 17.5611
10.0096 13.1876 61.099
8.06994 15.9478 32.822
7.08324 10.5201 55.7794
10.373 13.3088 34.8115
10.1628 20.7531 63.6933
9.96005 8.67164 35.788
9.84123 15.9129 54.6429
14.6116 15.3738 43.6231
12.2645 25.0504 75.8688
10.7728 11.053 37.512
9.14797 7.92418 32.2597
8.24844 17.2217 41.8114
10.6632 6.80624 29.0895
11.2436 18.9507 57.5237
9.48915 8.61269 49.2086
11.8733 24.3581 44.0282
7.37634 4.32541 24.0382
8.78727 15.8115 55.5071
7.16445 9.09236 45.1732
7.99806 22.1791 56.2584
11.1179 11.3699 24.8112
11.5758 13.8101 53.8694
13.5833 17.7069 34.1386
6.68229 7.82248 44.7739
12.0979 10.5512 32.0168
9.05084 14.136 63.2587
14.7225 12.1228 27.2457
7.27184 18.8773 47.5716
7.67805 7.44378 31.042
13.5442 12.4032 36.425
13.7951 16.4816 55.6632
6.77583 10.8264 44.2791
4.54302 14.3413 47.973
12.5549 16.3814 44.6145
9.76687 7.14386 24.75
10.6441 8.74436 22.0689
5.33024 14.2109 37.6747
8.01905 8.18887 31.3244
9.6032 6.4376 36.5649
13.2166 7.94944 13.079
8.30413 10.62 39.5658
7.28518 12.5832 45.3998
8.59637 13.199 62.5084
15.092 22.8788 54.9698
6.35619 12.844 49.18
11.908 12.8703 45.5005
10.023 17.764 32.3749
8.98237 12.9607 49.5661
7.21552 7.93838 30.3368
6.46489 11.762 51.5034
7.19435 9.6474 43.1913
14.2266 18.9537 46.7702
8.37604 12.2982 34.4278
5.41361 12.1713 58.3115
12.1253 17.1701 37.9564
11.7646 16.2164 79.8759
16.3081 21.1219 36.9906
5.58064 6.8516 45.8173
9.31864 17.6869 34.9165
10.8938 18.2873 82.6694
13.7184 11.473 45.8987
14.0476 20.9584 69.2547
8.09632 17.3121 71.661
16.5012 19.4201 54.9121
13.362 14.3271 35.4052
8.3554 5.60341 25.8782
6.82484 10.631 38.8036
6.41809 5.7521 35.044
14.0657 7.4955 46.5434
12.4 22.8863 77.1592
10.0507 10.5432 29.1011
8.57026 9.40335 35.4948
10.9288 13.9191 32.6172
12.0617 23.4164 76.323
8.02271 20.421 58.599
6.04474 11.5491 43.7137
7.84731 10.7739 27.1728
7.86237 12.1736 50.6441
8.24086 12.1477 54.2524
7.78154 10.8193 18.9459
7.97292 10.4571 51.6556
12.4648 17.2697 46.3899
8.94747 18.0937 56.494
6.9727 7.98767 19.9551
5.21453 15.3118 53.507
5.65245 18.0453 65.6567
14.5333 13.6099 58.6808
8.86417 14.345 49.97
8.80987 13.1556 33.9586
11.0995 13.8328 52.3599
12.6841 18.0783 48.7042
8.61514 8.5321 36.3376
5.97844 9.17968 31.3334
10.9508 17.8452 69.5467
11.3342 26.4768 103.286
10.0289 13.7195 26.9753
5.73361 5.90708 26.8728
6.49569 10.7234 32.0974
7.8438 5.71045 18.084
8.72978 9.55897 33.037
5.3791 5.69945 43.171
6.82435 11.5559 42.6806
11.5088 15.0272 40.4657
9.05627 14.3699 39.0022
9.67915 13.3683 51.5526
11.6334 22.9422 69.0447
7.96798 12.8398 42.5737
8.79644 7.5947 35.2129
10.3651 17.7043 38.9767
7.44798 14.9001 57.3776
7.82325 11.6346 19.4944
6.32013 8.29234 34.8113
9.89649 11.2456 35.298
7.6802 14.6424 85.5606
14.9236 28.7407 52.2871
6.2588 10.3869 46.0623
6.89702 10.9596 60.9172
9.82257 10.0148 54.9523
12.8527 23.7815 60.5251
7.4179 10.3446 29.4784
6.18482 12.4318 51.3351
10.6455 16.2743 43.5788
4.44017 8.13533 30.8124
4.23424 11.6856 44.4247
9.78271 9.4342 42.4249
8.54306 21.5245 80.1907
6.94346 9.67008 37.3813
5.62787 15.4637 36.2734
5.4402 10.2807 44.6807
9.30026 20.3338 54.3763
5.65611 11.6059 54.8729
5.82179 15.2913 55.2466
6.43332 13.7227 48.0795
12.7656 10.451 29.6111
6.8394 11.2343 44.4165
7.52219 16.7726 55.3983
7.82662 7.92507 22.7657
9.01414 11.1878 36.418
9.17043 8.97053 28.7943
5.87565 7.50431 28.4152
3.16926 12.0154 45.5278
8.34694 13.2611 54.8423
14.2619 10.1358 39.2354
8.33951 5.14656 24.4163
6.09253 5.5027 15.0957
7.07637 13.7321 39.6904
9.15248 6.2608 15.9732
6.88803 10.0469 37.8488
5.60778 12.4682 44.8163
5.77262 9.89654 40.0581
7.76261 11.3278 28.1961
8.85808 16.3949 86.609
8.68722 11.2547 43.6351
8.29449 18.2126 44.9095
7.00039 14.8496 46.2557
7.8487 8.9306 43.2923
7.68535 13.1217 53.6639
11.5761 17.2845 42.0404
8.91185 14.8573 47.9081
5.95642 9.84279 44.7911
9.78524 7.83521 40.4292
4.87137 13.2519 33.4286
7.8043 11.0334 53.747
8.18811 10.8708 40.4354
12.4877 23.8675 81.8845
6.13686 7.95041 47.7823
6.79562 15.2259 59.8515
6.39067 9.67241 22.5081
4.71731 9.45386 31.4395
8.65796 13.1682 50.9158
6.77196 11.2181 42.3803
4.94558 9.29437 28.9344
11.7485 16.1265 46.5882
8.30169 9.23069 30.7985
3.72675 10.9154 61.9552
6.34409 6.53481 34.6774
6.03529 4.81517 32.4976
9.19951 12.9386 56.8024
6.2839 24.5438 74.2839
7.98902 16.4788 55.5897
8.67393 12.5138 38.3931
6.82324 17.7069 81.067
10.0013 18.4522 52.4976
6.35042 6.1698 15.3207
6.40731 5.05284 21.5164
7.52987 7.85852 68.7237
8.68987 13.8454 45.913
5.77815 16.8768 35.8298
6.21025 14.2546 50.0599
6.39583 11.567 49.1093
6.47479 7.85644 21.4949
5.63518 9.05678 31.7613
3.06521 12.9091 64.7476
10.0655 10.3654 21.7758
6.79101 10.469 44.0213
4.72338 6.32361 19.2967
2.7333 8.63191 51.8359
10.8401 21.2993 71.2926
7.19195 11.9067 43.0068
7.19996 11.2348 38.8049
5.58578 8.3572 62.9648
8.73503 18.5573 62.5766
6.80118 12.43 35.7792
9.88299 9.36295 20.44
4.24406 13.6803 77.9109
11.7023 25.9555 78.6562
9.21904 13.5181 59.6776
10.8043 10.2699 35.5612
6.32233 9.9822 58.9484
6.64716 14.6971 27.2274
6.99493 9.38271 45.2753
9.02115 11.7342 64.0067
8.8141 13.3574 73.1955
8.93104 22.582 51.2387
6.89828 8.50932 26.9733
9.57233 12.959 48.212
10.6708 15.5438 34.3803
4.26444 13.1676 59.576
5.61084 8.6186 27.5889
5.7955 9.05545 91.5919
10.4657 17.6103 41.6426
7.27955 22.5253 53.1005
4.69909 8.47285 22.8998
7.26936 11.2228 52.6136
12.2697 11.1387 36.5621
6.44217 6.69103 36.1802
4.54924 12.826 30.8961
6.62765 17.8509 82.6041
10.5617 13.9611 38.4459
8.39591 10.8266 60.4563
5.46398 7.00109 30.1768
5.31337 7.76236 46.824
9.83939 17.4102 43.0642
8.38969 13.7737 29.9682
5.47285 6.46067 38.2325
7.61229 10.3482 45.0514
6.96128 9.28719 37.855
7.3335 8.4735 26.6724
7.12577 14.4631 92.4717
12.0313 11.8625 37.9854
9.31368 7.89484 24.6874
9.15006 14.3695 48.0933
9.09646 7.04822 32.1437
3.99157 11.5457 47.1516
7.46826 10.5379 33.3982
9.84089 10.1667 36.6218
7.44377 16.8472 45.4203
7.59759 13.1758 47.0425
4.46739 15.8888 52.062
7.9822 7.43995 41.3241
7.75109 12.7974 55.2144
5.97889 10.7883 25.0168
2.06591 3.28104 48.9651
4.72637 10.1935 14.8786
8.12506 5.48824 22.9389
5.92787 9.44159 31.7119
3.30311 11.9403 55.5481
8.16736 8.00187 28.9909
7.7734 8.33153 40.9237
7.60866 21.5342 84.3121
10.5588 8.25603 28.8391
5.32855 13.5116 57.4747
8.22131 12.2338 37.6359
6.99329 12.2827 32.0906
6.75728 8.95796 49.1798
6.14201 7.28382 14.6665
5.71925 7.0893 45.3463
8.07249 10.9479 32.2483
4.42456 6.75824 27.1697
4.09788 12.7562 45.5586
6.92297 7.06207 50.3243
10.4372 11.7677 32.4629
5.64352 9.53233 24.8248
4.61047 7.40658 42.3497
7.57245 9.55407 19.727
5.8959 13.8621 44.1075
12.7668 7.04246 43.3312
9.84768 11.3242 41.2988
6.04666 16.3591 63.4465
9.05696 29.2743 110.31
12.7266 7.93746 23.0026
8.86268 9.70994 52.8921
5.90522 12.2512 40.1725
4.71708 12.0208 33.0969
5.17869 7.30238 67.6911
9.88029 12.8825 46.9801
6.33373 10.3798 29.9634
3.71405 8.8803 26.5756
8.05314 8.69777 29.362
9.36659 7.44831 23.2297
5.68467 5.98934 34.9915
5.67875 9.33869 28.0245
4.73906 11.4901 37.8802
5.34267 7.14413 46.3287
6.26891 15.0288 53.355
7.84773 13.253 67.4029
5.35282 13.2461 38.3175
10.0508 8.07459 35.3929
5.06327 11.4204 21.6952
3.9113 16.1258 62.465
6.80987 9.72604 51.0174
9.63038 12.6163 45.6034
9.24075 8.78312 33.9178
6.64619 8.75553 31.2548
7.1909 9.12276 39.9512
8.07544 10.2167 38.6961
6.52533 11.8961 49.8398
11.173 8.80091 32.5326
5.06327 11.8829 30.075
4.72099 7.01547 34.4747
9.54496 8.03038 33.3315
6.78625 15.4655 60.8733
9.39742 7.41823 40.1295
6.64075 12.9408 49.8069
9.42684 10.7432 42.9641
12.0815 9.83275 41.7534
8.34026 6.94863 24.8788
4.97555 5.55341 21.5561
4.67395 9.57981 47.2433
11.6133 9.80685 37.2339
8.07418 8.0148 53.9981
6.05941 9.45264 37.7811
5.26595 12.6295 43.5262
8.32999 8.71287 35.6879
8.5011 12.2018 48.1556
3.73629 13.806 37.3171
8.62369 10.6311 44.3314
5.66979 10.5844 47.685
10.2352 11.6139 21.0374
5.76224 5.64588 63.1367
6.9028 11.2366 53.5604
7.77205 15.8453 40.1016
8.40857 17.7157 47.7108
6.46193 6.8287 31.0675
5.04918 10.6899 31.4447
8.51739 9.28737 51.7165
9.43418 13.2193 56.6477
9.50656 7.76643 28.621
7.0441 8.16576 25.3149
4.55436 10.533 39.5891
8.60078 16.7164 58.0074
9.9163 8.76853 27.9246
7.28726 8.03591 19.6
2.93157 10.1343 52.357
7.59614 12.4147 35.4243
11.222 11.2975 42.918
5.89796 13.0875 39.994
6.5263 15.5591 62.8431
5.08774 14.058 41.3758
8.38928 5.57882 21.1055
7.90266 8.33219 54.3513
7.64361 9.78658 30.3223
6.15341 9.55908 48.6989
9.75594 11.3507 48.7468
9.97204 24.2893 101.493
7.37574 6.9513 29.1594
3.39763 6.88615 37.6969
8.21675 5.1912 26.9538
7.48163 10.5724 29.713
6.01949 7.83123 26.7195
2.71361 7.22592 21.1512
4.63468 9.30262 48.8321
8.96027 7.43782 36.8269
7.44246 21.3932 54.3545
5.94032 14.098 55.5806
8.10222 10.3847 47.184
7.86891 6.52534 30.8879
5.62495 11.0525 38.4352
6.33938 12.2662 60.8882
8.33877 8.07386 46.3939
8.72214 13.323 36.2295
8.81661 7.61831 45.2163
9.88581 17.6922 76.0939
9.28189 11.7867 41.4109
6.68039 16.5527 51.7287
7.82895 17.2477 35.3791
8.18185 8.17516 36.8095
6.39856 14.4286 94.5984
10.6714 14.4722 19.9404
9.80517 8.77641 49.111
9.88115 7.39778 46.5944
10.1968 14.7596 43.6481
7.79397 12.6105 49.697
9.13523 13.7776 61.9756
10.3772 12.4606 30.6859
7.25519 6.64268 44.2297
6.24349 7.25804 40.1859
8.00955 13.2034 36.7384
8.69014 13.9004 53.884
5.27335 10.7053 56.1435
6.71129 12.7928 35.0992
5.35087 7.4768 36.9707
11.0379 12.3371 52.0772
7.03756 11.4681 46.1467
5.02102 7.59982 41.4134
6.16426 17.8063 60.0383
6.974 7.88356 22.6952
5.64181 20.8315 58.1031
5.92707 9.60715 50.4154
7.38606 9.85523 72.3816
8.05855 11.5536 25.1878
6.13753 9.77933 40.0172
8.06166 7.8468 33.8411
5.76931 13.7031 52.6152
8.75263 9.31445 57.9206
12.2973 10.0462 52.5042
8.47841 10.7646 30.6179
5.21608 8.36148 56.9192
5.75301 10.8804 28.6987
5.37026 17.7626 47.2935
7.57083 7.24557 39.9128
5.89252 7.68582 24.9966
3.71824 8.53848 37.3203
7.93346 6.90919 33.1363
10.1216 8.60635 39.3851
10.6069 14.2519 40.4788
7.65961 14.0169 41.2133
6.50048 10.4547 38.35
6.58159 7.71817 30.9861
6.68104 10.3729 36.2928
6.82099 5.88745 25.5573
3.72542 6.78064 75.5652
10.7644 9.15965 45.9989
7.96247 8.33697 64.5843
9.49042 14.5602 17.1901
4.65735 5.61555 62.7796
9.07081 23.5082 53.0504
12.2854 10.3138 42.5104
6.01812 7.42283 29.3361
6.58073 10.8698 43.6351
7.14584 10.619 26.2431
6.14023 7.14606 18.1001
5.96837 6.37889 47.6186
6.64512 12.4021 39.4224
6.28853 5.93983 32.2508
7.22216 6.37877 46.6595
7.57785 14.2486 28.9266
6.55981 8.62645 80.3185
5.17471 15.1541 38.6531
9.0681 10.3293 29.9435
8.37963 0 0