# pn-170911/RbIIR-55-RbIIR-1280-1959.psd
# Power spectrum* (dif=0,1,2) (really just |FT|^2)
# NOTE: only the first half! (symmetric)
# weeks: 1280-1959
# 3447 clock-days, 82 excluded
# PSD: 1441
322.069 0.103071 0.0424492
30576.2 0.534447 0.0397712
151282 3.23555 0.0407104
25548.7 0.9955 0.0395996
48879.6 3.71498 0.0387774
9424.13 0.965991 0.0398688
7585.72 1.12286 0.0404366
4811.56 0.960451 0.0393095
4347.09 1.18408 0.0398936
3006.61 1.00599 0.0390727
2537.23 1.03329 0.0407857
2103.64 1.05235 0.0410223
1844.69 1.08744 0.0410524
1555.05 1.07953 0.0404835
1384.93 1.13884 0.0411595
1227.13 1.1436 0.0399104
1131.81 1.20006 0.0409101
1024.85 1.25022 0.0414188
953.255 1.30872 0.0423302
860.11 1.3355 0.0416509
814.111 1.40458 0.0445102
813.1 1.51108 0.0428938
743.242 1.56721 0.0441402
729.44 1.65414 0.0440378
674.501 1.70151 0.0453402
654.56 1.75236 0.0455588
646.334 1.93453 0.0466082
634.329 2.02941 0.0462376
599.467 2.05293 0.0475877
579.023 2.1206 0.0488052
579.654 2.32428 0.0503472
562.522 2.35882 0.0502363
557.141 2.55176 0.0531447
550.417 2.67509 0.0537692
546.331 2.86487 0.0564903
542.851 2.97518 0.0600675
531.519 3.07892 0.0610285
518.434 3.18788 0.0610057
532.752 3.48212 0.0645314
540.748 3.70268 0.0698809
511.575 3.73288 0.0684444
507.906 3.88851 0.072109
509.56 4.07833 0.0747162
512.64 4.3603 0.0774234
507.228 4.49083 0.0800316
493.009 4.59617 0.0852934
505.48 4.89339 0.0906439
483.315 4.93312 0.0950933
501.434 5.35341 0.0996585
483.046 5.32344 0.100378
492.759 5.67138 0.109015
487.821 5.83596 0.111707
484.908 5.9947 0.114429
482.229 6.27493 0.126209
478.542 6.4326 0.128596
464.688 6.50177 0.133223
465.949 6.77011 0.14106
453.635 6.77575 0.14599
466.162 7.29419 0.159959
471.247 7.57044 0.167062
452.274 7.57566 0.169531
440.726 7.64628 0.178461
455.246 8.12111 0.192602
446.005 8.29069 0.19567
436.06 8.34703 0.205091
440.697 8.72159 0.217974
433.957 8.76883 0.222219
422.661 8.91696 0.229905
419.79 9.01688 0.240249
430.243 9.50531 0.256543
407.529 9.31723 0.259321
407.583 9.50304 0.268162
408.439 9.87371 0.285502
411.65 10.2725 0.305591
399.359 10.2392 0.311016
394.855 10.3732 0.317684
399.452 10.8035 0.339483
396.335 10.9048 0.346405
402.288 11.4219 0.37183
372.208 10.8626 0.363411
379.047 11.31 0.383847
364.148 11.1508 0.385303
388.464 12.1925 0.433984
367.239 11.8001 0.43141
370.202 12.1419 0.446004
362.68 12.2107 0.469451
362.638 12.5617 0.480475
363.977 12.8555 0.500051
359.293 13.0152 0.52241
354.836 13.1337 0.531954
348.088 13.1456 0.548128
350.315 13.559 0.575235
333.706 13.2737 0.574237
332.383 13.4145 0.586941
335.196 13.8287 0.623787
331.419 14.0101 0.640074
383.453 16.6325 0.759096
334.38 14.6191 0.691703
314.424 14.0888 0.679397
312.212 14.3462 0.710947
316.79 14.7982 0.75079
310.609 14.88 0.764705
316.527 15.409 0.79404
309.582 15.3123 0.816417
304.57 15.4693 0.830209
301.46 15.5471 0.850862
294.126 15.4559 0.861226
295.859 15.7555 0.883681
295.594 16.1172 0.935253
304.992 16.9782 0.997893
288.109 16.1595 0.964031
285.382 16.3964 0.996395
284.233 16.7269 1.02732
287.315 17.2922 1.07514
291.833 17.7514 1.13475
278.872 17.3119 1.12217
276.27 17.3802 1.1434
280.72 18.0217 1.21276
274.296 17.9134 1.22521
270.766 18.0388 1.24332
271.056 18.1487 1.27329
268.995 18.563 1.32101
268.686 18.6574 1.34739
267.964 19.0697 1.40953
267.026 19.3052 1.44053
254.593 18.6077 1.4181
259.581 19.2627 1.49296
248.084 18.6524 1.45267
256.202 19.572 1.54857
255.734 19.9403 1.60674
246.687 19.496 1.59378
247.75 19.9875 1.6672
257.638 21.082 1.76649
244.274 20.1514 1.7169
238.55 19.9778 1.73376
245.707 20.9815 1.84362
237.454 20.5523 1.83241
238.737 20.9152 1.89193
237.359 21.1422 1.931
228.79 20.6233 1.92202
228.499 20.9894 1.98846
227.907 21.131 2.01338
227.757 21.4496 2.0836
231.006 22.1226 2.18546
229.799 22.2105 2.20825
232.919 22.743 2.28025
218.814 21.7826 2.22289
223.817 22.6057 2.34715
221.859 22.8232 2.41432
216.511 22.4276 2.39618
216.517 22.7245 2.4383
214.976 22.9074 2.51553
210.508 22.6758 2.49494
213.596 23.4472 2.63181
207.048 22.9988 2.61527
220.994 24.7625 2.85397
210.852 23.9558 2.77089
202.366 23.3224 2.73998
204.377 23.7137 2.83711
207.414 24.4991 2.94734
202.957 24.4543 3.01302
200.953 24.4347 3.04206
195.115 23.7366 2.93722
202.437 25.2039 3.1851
200.841 25.3385 3.24686
202.341 25.866 3.35747
196.74 25.2329 3.31998
200.306 25.9565 3.41247
192.203 25.4018 3.42129
193.381 25.7634 3.48455
188.745 25.3773 3.47108
193.434 26.3225 3.65128
194.184 26.7757 3.75874
189.902 26.5417 3.76546
185.495 26.2897 3.79926
187.51 26.8692 3.91936
184.853 26.6765 3.91616
187.115 27.3414 4.07466
185.376 27.3626 4.09853
180.151 26.8835 4.09231
181.449 27.1599 4.14881
184.273 28.0511 4.33124
177.719 27.4632 4.32157
183.815 28.7344 4.56833
177.29 27.838 4.46401
182.158 29.1609 4.73634
175.649 28.2957 4.63613
176.559 28.7021 4.74784
173.743 28.6161 4.79351
173.336 28.8336 4.87041
173.465 28.9531 4.90214
167.408 28.6703 4.98764
204.179 34.9048 6.01437
171.161 29.5409 5.17943
165.406 29.1091 5.20585
166.645 29.489 5.28777
164.244 29.3129 5.31525
162.686 29.4005 5.36514
162.441 29.6588 5.49503
160.719 29.6319 5.55775
163.431 30.3407 5.72456
162.75 30.5931 5.82276
166.837 31.7108 6.12185
157.74 30.1557 5.86254
161.629 31.2566 6.09991
158.242 31.0104 6.12451
160.968 31.857 6.3932
156.901 31.0158 6.21127
155.235 31.2554 6.36978
157.466 31.958 6.5769
158.722 32.5101 6.76853
158.678 32.4976 6.73851
149.436 31.2891 6.61479
154.593 32.6229 6.96086
150.826 31.9645 6.88243
152.417 32.7114 7.09591
148.656 32.1037 6.99377
147.067 32.2829 7.12619
147.141 32.5358 7.26623
149.116 33.1386 7.44221
145.937 32.744 7.44667
142.655 32.3776 7.42972
147.909 33.566 7.7384
141.721 32.6067 7.62151
144.441 33.5811 7.87624
141.601 33.2093 7.86877
144.37 34.4163 8.30605
145.248 34.5891 8.34142
144.495 34.6226 8.4171
141.72 34.4154 8.39777
135.51 33.0594 8.20217
136.943 33.8546 8.47713
138.589 34.6073 8.7265
142.144 35.8922 9.13822
135.579 34.2667 8.77738
135.2 34.5844 8.91909
138.883 35.7781 9.34493
137.573 35.4621 9.25507
129.599 34.0881 9.06839
136.578 36.2149 9.66287
133.122 35.4987 9.60115
135.328 36.2597 9.78427
127.02 34.212 9.34581
128.899 35.1567 9.67479
130.584 35.8459 9.95738
130.836 36.1546 10.0903
129.281 36.0957 10.1758
131.316 36.9354 10.4944
127.605 36.2763 10.4378
130.865 37.2939 10.707
124.071 35.8479 10.42
127.18 37.1538 10.959
128.423 37.3968 11.0124
127.124 37.5452 11.1842
125.501 37.2556 11.1866
126.977 38.003 11.5177
125.89 37.9141 11.5314
124.011 37.9504 11.7168
122.51 37.4525 11.5383
120.891 37.4853 11.7188
121.949 37.8784 11.8578
118.25 37.1679 11.7661
120.128 38.2656 12.2866
118.328 37.2904 11.9402
123.694 39.5613 12.7543
119.425 38.3784 12.4789
117.301 38.3418 12.6258
116.002 38.1787 12.6097
115.899 38.4523 12.8987
118.167 38.8634 13.0015
113.347 37.6844 12.6817
115.504 38.9657 13.2502
111.971 38.0655 13.0693
116.785 39.8825 13.7027
110.917 38.3399 13.3376
111.965 39.0964 13.762
110.566 38.8665 13.7605
111.276 38.5733 13.569
111.1 39.0654 13.8699
109.481 38.8833 13.9408
107.545 38.6699 13.9857
106.091 38.4729 14.1094
108.275 39.5719 14.5499
108.441 39.7058 14.6592
106.337 39.3578 14.6955
106.345 39.2416 14.6759
106.278 39.6586 14.9357
105.349 39.8535 15.3426
135.543 51.1089 19.1833
105.326 40.3158 15.6422
99.9162 38.5465 15.0519
102.811 39.6935 15.4151
102.877 40.2589 15.8828
103.887 40.9277 16.1782
98.9213 39.1667 15.7197
100.522 40.0142 16.007
101.7 40.7212 16.4683
101.359 40.4768 16.2889
100.502 40.8741 16.7251
97.5709 39.9384 16.5202
96.3902 39.39 16.2609
94.9296 39.473 16.6114
96.9389 40.1859 16.7659
99.543 41.6886 17.5121
95.0404 40.4591 17.3534
96.6191 40.9237 17.5005
95.0884 40.2042 17.2585
95.8993 41.1479 17.7257
96.5987 41.8462 18.2467
95.3269 41.3718 18.1607
97.2354 42.3048 18.5967
96.0866 41.8484 18.3714
97.6623 43.1954 19.1155
92.0699 41.144 18.508
92.3188 41.415 18.6811
89.8697 40.3876 18.4035
92.3566 42.1681 19.3858
90.9438 41.493 19.0972
90.7602 41.6836 19.3605
91.926 42.3403 19.5253
86.5942 40.6654 19.2019
90.1014 42.1828 19.7918
86.2923 41.0793 19.7238
85.5635 40.6502 19.5704
88.3885 41.8112 19.9531
87.3689 41.9646 20.327
86.8085 41.8235 20.3295
88.2069 42.9457 21.0518
89.4603 43.3988 21.2167
86.588 42.4611 20.9319
85.9259 42.4477 21.0875
85.0046 42.1174 21.0177
88.1003 44.0116 22.068
85.1365 42.42 21.3053
83.7154 42.4679 21.7142
81.68 41.604 21.3406
83.651 42.8367 22.1
84.6852 43.4642 22.4494
82.3924 42.4759 22.0746
81.3514 42.5058 22.3776
83.913 43.6822 22.8959
81.4064 42.6399 22.5966
81.8693 43.2216 23.0024
81.7788 43.4437 23.2395
81.4295 43.3279 23.2442
80.1564 43.0748 23.4751
81.5372 43.8549 23.8022
80.8206 43.7699 23.8968
79.1928 43.3136 23.828
76.8424 42.3792 23.6534
77.8602 42.9718 23.9276
75.8005 41.6516 23.2165
80.7407 44.5521 24.7349
76.635 42.9141 24.1819
75.5113 42.8263 24.3812
75.9303 43.4573 25.0042
75.8383 42.969 24.647
75.1446 42.9539 24.8283
75.6684 43.5975 25.2659
73.901 42.7584 24.908
73.9962 43.1664 25.4323
72.2434 41.8034 24.5843
75.4331 44.1947 26.0376
73.9935 43.7599 25.9468
72.8373 43.631 26.319
72.2626 42.6121 25.4817
70.7463 42.7587 26.1077
72.5666 43.5337 26.3513
73.0195 44.3896 27.0696
70.4167 43.2598 26.7549
71.2321 43.0788 26.3304
72.0518 44.5911 27.5884
69.6439 43.3862 27.306
70.4377 44.2249 28.1006
73.0911 45.5466 28.7277
71.1012 44.4353 28.123
69.0774 43.5484 27.6948
69.0855 43.5718 27.7601
69.2958 44.3344 28.4522
67.3838 43.2914 28.1192
67.6148 43.8884 28.7679
67.7138 43.4893 28.3168
66.0375 42.757 28.1381
67.3813 44.4021 29.8764
84.9252 55.0327 35.1057
66.6254 44.3329 29.7675
66.6066 44.207 29.6238
65.4163 43.9402 29.7903
67.0371 44.8257 30.1341
64.9067 43.675 29.5861
64.8813 44.085 30.2695
65.9758 44.902 30.8646
62.5156 42.0079 28.731
63.2627 43.7225 30.3204
64.1997 44.2397 30.8106
65.2269 44.8813 31.0117
62.305 43.5269 30.4928
60.3798 42.5572 30.3159
61.8919 43.6226 31.104
64.4258 45.3402 32.1139
60.7854 42.9015 30.6254
63.5785 45.5446 32.6639
63.0227 44.9451 32.3304
60.9424 43.8317 31.7666
60.8962 44.4231 32.7906
61.5672 44.3842 32.4084
59.9769 43.4727 31.7769
59.6337 43.6657 32.2239
60.5404 44.9838 33.6694
60.2419 44.6443 33.3762
58.5843 42.8734 31.7824
59.0189 44.4233 33.6254
57.7322 42.8036 32.2419
58.1931 43.8468 33.1285
57.4476 43.3312 33.0169
58.9824 44.7678 33.9294
56.6029 43.5126 33.6261
56.2148 43.4101 33.9469
56.3431 42.812 32.9877
56.8756 44.2604 34.5425
57.2483 44.4353 34.834
57.1734 44.7676 35.2724
56.3827 44.2691 35.1116
57.2759 44.9743 35.7846
55.4089 43.7013 34.8596
56.6275 44.5121 35.1306
55.3289 44.0849 35.0795
54.3 43.7013 35.5783
55.6988 44.7958 36.3103
54.4748 44.1262 36.0688
54.7342 44.4898 36.2493
54.2519 44.4404 36.7288
54.8291 44.9658 37.1613
53.3547 43.3746 35.7272
52.191 43.2026 36.225
53.4213 44.2776 36.9441
52.3962 43.606 36.7331
53.9222 44.9495 37.5774
52.6912 44.6316 37.9933
52.6584 43.8329 36.9223
51.9961 44.3697 38.0704
53.1765 45.0354 38.2991
51.3472 43.8209 37.5432
50.566 43.7133 38.0347
51.3518 44.7811 39.3913
52.3743 45.0441 38.9319
50.0745 43.6553 38.3738
49.5506 43.0851 37.9637
50.2891 44.0019 38.7325
50.6719 44.4441 39.2217
49.5286 43.5633 38.6258
48.7628 43.5528 39.1683
49.8254 43.9994 39.3014
49.551 44.2385 39.6486
48.2384 43.2632 39.0912
48.7391 43.7508 39.4717
47.3123 43.2484 40.0611
48.7935 43.8739 39.8846
48.0153 44.114 40.8546
48.8579 44.501 40.7383
47.6486 43.8278 40.8811
47.9319 43.8763 40.7373
48.9406 45.0823 41.8105
47.1516 43.5964 40.532
45.6976 43.43 41.5472
47.157 43.4839 40.6357
47.5039 44.6335 42.0001
48.2051 46.0548 43.8307
46.2905 44.225 42.6448
46.8661 44.5692 43.0955
46.4914 43.948 42.0596
45.9571 44.1095 42.512
45.9046 44.1598 42.5807
44.3938 43.5525 43.0576
46.0523 43.8697 42.3183
44.0339 43.0378 42.4863
44.2068 43.1718 42.615
44.5514 43.8362 43.4777
44.0554 42.957 42.4495
43.8679 43.8477 44.8
54.268 53.6639 51.5837
43.7735 44.1108 44.7157
43.3234 43.0441 43.1984
43.3832 44.2004 45.0859
44.0764 44.9721 46.2155
43.8869 44.2286 45.243
43.007 43.4978 44.6097
42.9744 43.8189 44.889
42.3219 43.1163 44.4131
42.5505 43.7755 45.2724
42.6191 43.9507 45.7334
41.7212 43.0671 44.5467
41.5626 43.8415 46.7304
42.3772 43.6512 45.5373
41.3683 42.9306 45.1823
42.3507 44.61 47.1006
41.5325 43.3782 45.8022
41.1427 43.6797 46.5719
41.291 43.6232 46.4169
40.7591 44.015 47.5355
39.9158 42.2895 45.4794
39.9752 43.0107 46.8958
39.2234 42.0635 46.0133
40.76 43.3846 46.4462
38.8968 42.6721 47.0948
40.7021 44.4606 48.8568
40.1027 43.2486 46.8658
38.5856 42.8013 47.622
38.9264 42.6684 47.4255
39.3214 43.652 48.6787
39.6567 43.5693 48.3883
38.4463 42.8732 48.1253
38.2582 42.8431 48.5927
37.9499 41.6814 46.7065
39.2303 44.2861 49.9859
38.6581 43.3568 48.8727
38.3008 43.8901 50.2386
38.3365 43.146 49.0487
36.9642 42.0375 48.2143
36.9598 42.2074 48.425
36.7321 42.3191 49.0398
37.1828 42.7281 49.5124
36.3556 41.9224 48.9119
37.5285 43.4671 50.1093
36.1828 42.5349 50.4253
37.0139 42.612 49.7549
36.1635 42.4872 50.3456
36.039 42.0554 49.4815
35.2651 41.9743 50.4892
36.7663 43.3544 51.6179
34.7758 40.7792 48.7348
35.6105 42.1388 50.3427
36.2819 43.4107 51.6466
34.7819 41.7054 50.4841
35.2514 42.8334 52.167
35.4443 42.7028 51.8187
35.1917 42.7293 52.2431
33.9774 41.1784 51.0859
35.3167 42.557 51.8698
34.8847 42.6419 52.6531
34.8855 42.3376 51.8356
34.4717 42.6149 52.6976
33.9135 41.7246 52.1253
33.7812 41.9885 52.6462
34.4665 42.3766 52.6177
33.653 41.9542 52.854
33.5506 41.5322 52.0267
33.4786 41.9649 52.9613
33.4876 42.1942 53.3269
33.3552 42.4328 54.3878
33.9193 42.6235 54.0441
32.9838 41.9514 53.8604
32.5382 40.6358 51.5064
32.0561 41.1818 53.1916
33.2856 42.5992 54.4256
31.6517 41.126 53.8052
31.4356 39.9847 51.6327
30.6969 39.7443 52.1801
31.9178 41.5557 54.0992
31.782 41.4484 54.0583
31.5126 41.5208 54.7146
31.0929 40.8398 54.3303
31.8514 41.8417 55.5246
31.5324 41.1999 54.1052
31.1936 42.1681 57.0399
31.3535 41.0177 54.5014
30.2997 40.4555 54.4894
30.5153 40.7709 55.1527
30.9537 40.9641 54.9232
30.2187 40.4625 55.0325
31.1307 41.775 56.2261
30.2378 41.0538 56.2617
30.7107 41.5325 56.6977
30.3039 41.4357 57.1227
30.0168 41.1666 57.3717
30.3105 42.0607 61.5792
39.3937 52.6046 67.3551
30.2523 41.5806 57.4038
29.6094 41.1271 57.3625
29.4834 40.8884 57.3858
30.1135 42.1257 59.4031
30.0192 41.2035 57.0348
28.7927 40.3117 56.6036
28.4597 40.3291 57.5221
28.3272 39.2801 55.6224
28.6358 40.5649 58.5534
29.3863 40.5221 56.8608
28.2437 39.5604 56.1837
28.7885 41.641 60.1349
28.8026 40.8895 58.7328
28.3108 40.4278 58.5577
28.613 40.8892 59.1189
28.2036 39.8594 57.3771
27.8492 39.9894 57.8738
28.3347 40.7492 58.8847
27.7892 40.3783 59.1188
28.0506 40.5055 58.5936
27.5581 40.7073 59.5711
26.8252 39.6569 59.5774
27.8579 40.4817 59.5368
26.9086 39.5029 58.3052
26.5595 39.1172 58.6578
27.5483 41.0272 61.2334
27.1533 40.0623 59.9428
26.4147 38.7069 58.0448
26.8469 40.2443 60.5844
26.5636 39.6783 60.122
27.1828 40.5372 60.3561
26.2506 39.8862 61.108
26.1531 38.9921 59.3151
26.0263 38.7982 58.8303
25.9215 39.0833 59.1765
25.938 39.801 61.0809
25.7397 39.2853 60.5561
26.0656 39.7689 60.6523
25.0759 38.5232 59.4763
24.9269 38.3197 59.303
25.4477 39.6887 61.8576
24.7032 38.2363 60.1947
25.2673 38.9883 60.903
25.3169 39.3196 61.5017
24.6802 38.2511 60.1596
24.7989 39.0296 62.1681
25.3689 39.0828 61.157
25.0544 39.3877 62.295
25.5309 40.6886 64.786
25.3811 39.7756 62.3272
24.2259 38.8853 62.8627
23.7435 37.2729 60.2836
24.5473 38.8426 62.0832
24.3843 38.8566 62.1335
24.2506 38.8365 62.507
24.1737 39.2904 63.9976
24.0447 38.5122 63.2229
24.6925 39.3069 62.5288
23.4985 38.3015 61.9658
22.7228 37.5129 63.1302
23.6323 37.9708 62.3109
23.5577 38.2807 62.5242
22.8292 37.2641 62.4442
23.6463 38.1106 62.3687
23.2702 38.7441 65.0455
23.9723 39.199 64.2891
22.9334 37.3673 62.119
23.4921 39.0081 64.5136
22.9691 38.2382 63.9062
23.1344 39.0811 65.7825
22.8561 37.5326 62.2498
21.8447 36.8014 62.8983
22.5651 38.1122 64.7425
22.4749 37.4305 63.6402
22.7773 38.5102 65.3042
22.3479 38.1044 65.896
22.7493 38.1297 64.7616
22.2888 37.8798 65.2892
22.6419 38.1758 64.8778
22.1642 38.3786 67.4102
22.3449 37.2034 63.3193
22.0508 38.0795 66.0628
22.3704 38.1856 65.185
21.2171 36.9817 64.9905
21.7188 36.995 63.8333
21.878 38.368 66.7904
21.2387 37.0208 66.1499
22.2028 38.348 66.1314
21.0031 36.3895 63.8301
21.3467 37.9736 67.587
21.5566 37.4456 65.4938
20.7201 36.8341 66.8945
21.9357 38.2877 67.3367
21.0549 37.2975 66.2672
20.6222 38.061 74.9412
27.7257 46.8925 75.9277
21.1994 38.192 68.9352
20.9138 37.1899 66.6369
20.3036 36.1365 65.1119
20.1611 36.5368 66.3867
20.419 36.9082 67.1626
20.2883 36.4156 66.4623
20.3737 36.7076 66.7731
19.8454 36.2022 66.8748
20.2999 36.5034 66.5908
20.6949 38.0752 69.3779
20.2525 36.9557 67.9923
19.794 36.2084 67.774
20.4404 36.7068 67.6587
20.3728 37.107 68.0316
20.4741 37.6786 69.0126
19.443 35.7568 66.9345
19.9414 36.699 68.1317
19.5016 35.9001 66.8155
18.9606 35.4123 67.2287
19.6792 36.2661 67.2824
19.2231 36.3669 68.5461
19.1619 36.0567 69.4553
19.5192 35.401 66.2333
19.0382 35.6266 66.7316
18.8913 35.5916 67.453
19.0102 35.9592 67.9745
18.617 35.5052 68.1732
18.6935 35.3589 68.6622
19.59 36.544 68.5601
18.8331 36.2609 69.516
18.6984 35.6077 68.1705
18.2297 34.9943 68.7295
19.1732 36.5743 69.357
17.8447 33.9194 65.8508
17.7929 34.8603 69.1408
18.8104 36.3354 70.2788
18.0711 34.5115 66.8363
18.0347 35.0035 68.4933
18.1934 35.2881 68.7056
17.9956 35.3787 69.2593
18.0623 36.0478 71.7502
17.9729 35.2062 70.2026
17.9233 34.8169 69.0894
17.8906 35.0971 69.6501
17.5269 34.547 70.047
18.3062 35.4245 69.7327
17.681 35.3359 72.0243
18.6303 36.2676 70.7313
17.2781 34.2292 69.1065
17.4947 34.3663 68.9381
17.3442 34.4906 69.3622
17.7198 35.5253 70.1819
16.8112 34.044 69.4671
16.9026 33.6686 69.2606
17.671 35.1745 69.7871
16.9357 34.4247 70.2695
17.396 35.4331 72.1644
17.412 35.6511 72.8837
16.7402 33.5488 69.4526
16.986 34.0516 69.3438
17.0335 34.8848 71.547
16.7799 33.9383 69.7617
16.3809 33.6356 70.8392
17.2026 34.9583 70.2074
16.2653 33.5284 70.2569
16.3987 33.9011 71.058
16.4137 33.5408 70.254
16.7104 34.4802 71.2115
16.0491 33.0092 69.1104
16.1807 33.9998 72.3019
16.8819 34.8753 72.4921
16.2304 33.4579 69.8549
15.9823 33.5297 70.3899
15.6068 33.0283 71.4337
16.4466 33.8413 70.3143
15.6252 32.985 70.3138
15.6494 32.4789 68.9711
15.9735 33.6861 70.2232
15.2632 32.7234 70.7313
15.5937 33.5247 73.0488
16.1361 33.5714 70.8935
15.6545 33.6216 72.6836
15.8214 33.5015 71.1717
15.0668 32.5309 71.0627
15.7782 34.0236 73.0527
15.3559 33.0008 72.3161
15.2387 32.2638 70.5729
15.5898 33.706 72.7825
15.3491 33.0103 71.9869
15.3961 32.7934 70.32
14.7301 32.2351 70.9663
14.9581 32.5877 71.6781
14.9114 32.4071 71.3638
14.8104 32.4806 72.3645
14.9863 34.3182 85.5199
19.8751 40.3138 78.6958
14.8607 32.675 72.303
14.8181 32.6523 72.6154
14.9345 32.472 71.5298
14.7136 32.5044 71.8456
14.5694 32.0326 71.3627
14.9045 33.2086 72.3255
13.9414 31.4721 72.3026
14.6816 32.5387 73.0708
14.3653 31.3529 70.8061
14.6438 33.2141 74.4526
14.6025 32.3714 72.7124
14.313 32.1845 74.4427
14.7888 32.4281 72.134
14.2587 32.0274 72.2383
14.0609 31.6402 71.9967
14.0562 32.0196 73.9018
14.4427 31.8569 70.8642
13.8332 31.4837 71.0863
13.6926 31.4779 72.0814
13.669 31.8121 74.9698
14.1157 31.536 72.205
13.6521 31.3024 72.7687
13.8011 31.0187 71.4961
13.6628 31.2529 71.8713
13.6366 31.3286 72.2793
13.6134 31.2538 72.7944
13.7786 31.859 73.7304
13.5238 31.084 72.8122
13.5291 31.5031 74.7926
13.8876 31.4274 72.0086
13.3064 31.0908 72.6742
13.1917 30.8858 73.9862
13.5747 31.0806 73.2426
13.574 31.1606 72.0678
13.219 30.6841 71.3086
13.1079 31.5877 74.7984
13.2327 31.0354 73.7339
13.1044 30.7662 73.3678
13.25 31.087 73.6438
12.9416 30.2447 71.3938
12.8283 30.6569 73.5995
12.7585 29.895 72.2337
13.0316 30.9583 74.6477
13.4281 31.8126 74.9837
12.9308 30.6799 73.7654
12.9387 30.7638 73.4364
12.8808 31.2232 75.3909
12.6114 30.1138 73.9153
12.9216 30.7927 74.8098
12.7321 30.0571 73.3585
12.9477 31.3248 75.6177
12.6911 29.9912 72.7874
12.3767 29.491 71.8249
12.4953 30.6951 75.1366
12.5012 30.053 74.5325
12.5794 29.7701 72.3087
12.4764 30.0805 73.051
12.4237 30.3395 73.8371
12.4631 30.7548 75.8779
12.6975 31.1888 77.3402
12.4809 30.1231 75.1768
12.4414 30.0269 74.0854
12.2916 30.2078 74.3684
12.1115 30.1886 76.2176
12.3958 30.0704 75.0922
12.5767 31.3772 77.0798
12.1536 29.8523 76.5752
12.7824 30.871 74.9697
12.1079 30.2801 76.9044
12.1787 29.5293 73.7386
12.1632 30.4554 75.6846
12.158 30.7782 77.8783
12.2892 30.3911 75.9649
11.7644 29.4354 74.8131
11.7974 29.5749 76.4931
12.2604 30.3706 77.4678
12.3397 30.3205 75.2738
12.1335 30.7893 77.6462
12.0878 30.3992 77.2028
12.0107 30.2829 75.881
11.6148 30.0288 77.2987
11.5973 28.7217 73.7797
11.7484 30.3753 77.4486
11.3016 28.304 74.7025
11.9503 30.0612 76.1665
11.5838 29.241 74.7775
11.5084 29.6779 76.0238
11.41 29.4025 76.4436
11.3911 29.0144 76.1297
11.4976 29.4577 76.0609
11.2619 28.9601 75.5
11.3861 29.3779 77.5385
11.5602 29.6431 77.3794
11.525 29.8387 77.7815
11.2799 30.4429 92.2719
15.5889 37.7588 86.0135
11.5992 30.1433 77.0701
11.2248 29.9017 79.339
11.4984 30.2017 79.5474
11.3923 29.7469 78.5824
11.3462 29.3088 76.9241
10.9869 28.6198 76.5186
11.1698 28.9363 76.0524
11.0321 28.7742 76.563
11.1323 29.2586 76.856
10.9358 28.578 75.4267
10.7421 28.6845 77.3264
11.0414 28.8211 76.2329
10.8621 28.7823 77.7688
11.1991 29.048 74.8247
10.5488 29.0738 78.5971
10.7775 28.355 76.5263
10.5281 28.0422 75.5819
10.4505 27.4121 74.7105
10.4518 27.5345 74.6318
10.4738 27.8978 74.85
10.3914 27.8963 76.4436
10.5715 27.8213 75.4286
10.516 27.9962 75.8498
10.6694 28.7358 76.1616
10.3632 28.2256 77.243
10.333 27.2175 73.6696
10.1744 27.3689 74.3356
10.2555 28.219 76.8699
10.1659 27.2901 75.4282
10.1706 27.1676 74.6841
10.2765 28.426 79.5196
10.762 28.714 78.1098
10.3836 27.7865 75.2911
10.2557 28.3117 78.214
10.0921 26.6878 72.9461
9.65304 25.9183 71.6949
9.97716 28.1904 77.4642
10.0435 27.6153 77.9221
10.2713 27.7892 76.9113
10.2062 27.8161 75.6043
9.81828 27.5856 77.4491
9.95322 27.2979 76.498
9.99091 27.5301 76.547
9.8382 27.3215 77.0245
9.90553 26.9704 74.9251
9.65196 26.8946 75.7554
9.74979 27.2289 76.9445
9.7469 26.7191 76.0226
9.86303 27.1396 75.9455
9.88106 27.8137 77.7013
9.55516 26.346 75.8272
9.75766 26.4387 72.9088
9.46057 26.8825 75.7875
9.45861 26.8297 76.9885
9.75653 27.1809 76.3175
9.5513 27.1479 76.589
9.37335 26.3576 75.8901
9.58474 27.5068 79.1024
9.65875 26.8842 76.6192
9.53043 27.282 78.2934
9.54382 26.516 76.2275
9.51341 27.0905 77.6613
9.47975 26.4838 75.5473
9.35641 26.745 77.5863
9.48634 26.5855 75.1775
9.08316 25.8071 74.949
9.26191 26.6089 77.1602
9.31917 26.2264 76.0213
9.3292 26.5544 75.8331
9.1627 26.5488 76.6611
9.20356 26.7814 78.4901
9.30793 26.4796 76.4547
9.08706 26.1397 76.4226
8.87778 24.9711 74.7258
9.27565 26.4347 75.4071
8.89476 25.8952 76.2812
9.21597 26.6938 76.7117
8.93365 26.1082 76.9998
8.89064 25.8968 77.8831
9.05546 25.8725 77.0688
9.12954 26.5701 79.0214
9.2692 26.3041 74.8218
8.60663 25.2051 76.4304
8.98383 26.0448 76.2706
8.83805 25.5008 75.4228
8.86687 25.9251 76.0446
8.7957 25.864 76.9819
8.83514 25.7867 76.3266
8.65649 24.7974 74.0164
8.83066 25.9658 76.8822
8.70443 25.0864 72.1662
8.22316 24.8787 74.784
8.50312 25.3458 75.0698
8.31563 24.7351 75.5527
8.49571 26.8842 96.3039
11.9537 32.4661 81.9069
8.5756 25.9499 77.6786
8.65411 25.7702 77.8323
8.65355 25.0815 74.0888
8.29826 25.0557 75.7263
8.57663 25.6627 76.1575
8.39212 25.577 77.5251
8.44102 24.8817 75.2088
8.29473 24.7615 74.2496
8.1782 24.6136 74.3724
8.06711 24.0664 74.2837
8.3133 25.1003 77.2075
8.38329 24.9867 76.0652
8.263 24.7003 75.6317
8.34044 24.831 75.8502
8.30739 24.855 74.5574
8.10096 24.6965 75.8371
8.29557 25.5215 76.9644
7.99958 23.9978 75.5986
8.2186 24.4636 74.8022
8.13021 24.7504 77.0669
8.28536 24.6086 74.4678
7.91597 24.0151 74.1373
7.95656 24.2413 74.5903
7.90629 24.3708 76.924
8.20629 24.4994 73.4393
7.7797 24.0644 74.7675
7.99291 24.4177 75.6995
8.04929 24.4926 74.6487
7.82243 23.9522 73.7652
7.72777 23.7832 74.1893
7.87586 24.4613 76.6449
7.94123 24.3635 75.193
7.74632 23.8226 75.4146
7.84643 23.9854 75.9786
7.92814 24.4072 77.8711
8.1175 24.4259 74.9204
7.77493 24.4279 76.2064
7.80775 24.0652 75.8432
7.86331 24.1221 75.7352
7.78178 24.0853 74.7405
7.69282 24.4333 77.8016
7.88131 23.857 73.6973
7.60948 24.1735 76.7504
7.73446 23.9903 76.5866
7.86232 24.5515 75.6362
7.48326 23.4411 75.0147
7.55338 23.4965 74.7196
7.58426 23.6828 75.2848
7.73143 24.3328 76.8344
7.61384 23.6633 74.8025
7.51378 23.4474 75.0742
7.43178 23.01 74.6731
7.48963 23.5725 75.6192
7.64329 24.2423 76.0128
7.43166 23.2834 73.8153
7.34271 23.2037 74.6978
7.35223 23.334 75.9143
7.46539 23.3596 75.103
7.39289 23.7052 77.0732
7.51117 23.1009 73.9536
7.36677 23.3509 75.265
7.33109 22.5466 71.4203
7.11693 23.3297 74.8534
7.30917 23.4169 75.0828
7.23996 23.0684 74.8183
7.27005 23.2893 76.186
7.40091 23.4377 75.9164
7.2879 22.8451 73.7373
7.16887 22.9436 73.9112
7.07379 23.1628 76.9826
7.34103 23.0235 73.9865
7.04525 22.6125 74.678
7.1608 23.1129 76.0724
7.27443 23.1511 74.7477
7.08189 22.7865 75.1545
7.03103 22.0268 73.6652
7.13295 23.0251 75.1071
7.20253 23.2664 75.5867
7.09233 22.5694 73.627
6.95558 22.0316 71.9251
6.8628 22.5837 73.3514
6.88752 22.7564 75.5129
7.04686 22.713 75.4894
7.12446 22.9858 75.1738
7.1083 23.616 76.4613
6.85705 21.8456 72.7259
6.79879 22.1446 73.7448
6.84059 22.5572 76.2633
7.03059 22.0756 71.8545
6.65787 21.7563 72.8548
6.71871 21.9081 73.4108
6.88798 22.7842 75.8041
6.92799 22.1275 73.967
6.96644 23.4383 77.7927
6.97012 24.3715 97.4719
9.52625 27.957 76.2023
6.68943 22.6682 74.2645
6.66751 22.3466 74.9615
6.82425 22.1601 72.5882
6.651 22.5034 75.5573
6.72584 21.9704 73.0146
6.6241 22.0955 73.6676
6.58193 21.4092 71.1716
6.45191 21.7455 74.4684
6.77217 22.1979 73.4376
6.56361 21.9813 74.2877
6.65387 22.3127 74.5052
6.61445 22.2938 77.0478
6.85758 22.191 74.1148
6.62476 22.4002 74.4956
6.58745 21.8683 73.796
6.50532 21.7776 74.3403
6.49905 22.0501 77.2524
6.74664 21.5956 73.2177
6.5386 21.596 74.0303
6.60583 22.2367 74.7439
6.45304 21.1362 73.521
6.60207 22.2177 73.7432
6.38147 21.1491 73.6964
6.54187 21.8359 74.443
6.55794 21.673 72.704
6.45296 22.3123 74.8659
6.37775 21.2684 73.4936
6.49514 22.0806 75.9063
6.56453 21.9588 74.997
6.49988 21.7029 75.0143
6.4828 21.8785 75.8472
6.59888 22.4092 74.6707
6.35775 21.6166 75.2619
6.48312 21.7569 74.4016
6.28168 21.0815 72.9193
6.33134 21.5375 73.878
6.30916 21.6666 73.5695
6.20977 20.7556 71.391
6.11899 21.2979 75.0401
6.34302 21.3675 73.4115
6.18295 20.9551 74.3696
6.24642 21.0459 74.7892
6.36606 20.8911 72.7251
6.26135 21.1238 71.9618
6.0889 21.1956 73.952
6.25552 21.6391 74.3733
6.18717 21.3698 74.8889
6.19343 20.6962 73.5861
6.27658 21.3283 72.1918
6.03178 20.845 73.5099
6.22885 21.3687 74.9852
6.29386 21.5775 73.7904
6.11724 21.125 74.344
6.17166 20.8318 71.8496
5.8792 20.4641 72.3019
6.03848 20.8386 74.2556
6.18612 21.0823 73.9464
6.16411 21.1698 74.1981
6.16173 21.5463 75.2094
6.15598 20.8415 72.3834
6.01669 21.3504 74.6868
6.05064 20.7138 72.376
5.94023 20.6983 73.6791
6.02522 20.8035 74.2791
6.07635 20.9869 73.6936
5.96617 20.5273 72.9927
5.97688 20.5171 73.2411
5.97665 20.2939 71.4608
5.84219 20.8817 75.5036
6.14157 21.2375 74.7514
6.02434 20.695 72.3609
5.84447 20.7608 73.9875
6.04775 21.4228 73.9853
5.8876 20.7225 74.3446
5.88584 20.2906 72.7225
5.868 20.8271 73.2125
5.82373 20.4381 73.2522
5.8533 20.5792 73.4941
5.84698 20.231 71.3514
5.68852 20.3543 73.5295
5.80868 20.0907 73.3227
5.86987 20.6219 73.3641
5.8385 20.3665 72.8969
5.79871 20.3366 74.1245
5.90452 20.5584 72.4323
5.78247 20.9798 77.7749
6.11705 21.2511 76.1753
5.96622 20.4779 73.9093
5.82377 20.243 72.319
5.76711 20.6304 73.2645
5.70735 20.0286 73.0908
5.81752 20.4334 70.3027
5.51231 20.6294 75.7017
5.87683 21.1847 76.9338
6.01572 24.0441 104.888
8.29504 25.3132 77.055
5.88499 21.1523 75.6081
5.8324 20.3854 73.3508
5.75079 20.5066 73.3952
5.74237 20.6436 75.019
5.79253 20.3797 74.3529
5.81039 20.6706 74.4382
5.79048 20.4847 73.829
5.7604 20.605 73.4933
5.66943 20.1718 72.6987
5.6198 20.1157 72.4582
5.55096 19.7065 72.6027
5.62161 20.1671 71.2252
5.40423 19.9856 73.5995
5.61042 19.9719 72.9239
5.55889 19.9227 72.8135
5.53591 19.8593 72.917
5.60331 20.2515 71.7697
5.38454 19.6146 73.7123
5.57843 19.8145 73.0271
5.54788 19.7827 73.2931
5.63851 20.2934 72.6943
5.51945 19.5842 72.5305
5.54224 20.4046 73.6869
5.49394 19.5215 73.1546
5.61503 20.3915 72.1925
5.42817 19.7557 72.4125
5.40981 19.6339 70.988
5.29519 19.3297 72.1636
5.38873 19.3144 71.0698
5.31875 19.7292 73.598
5.45888 19.5701 71.4577
5.35084 19.7743 74.0834
5.51651 19.423 72.0831
5.3619 19.1853 71.161
5.37951 19.7933 72.8511
5.38532 19.4279 72.814
5.4217 19.5657 72.517
5.40008 19.5696 73.1364
5.42924 19.4642 70.9886
5.28312 19.2224 71.4044
5.26081 19.2506 72.1615
5.35022 19.1956 71.4506
5.29019 19.1565 70.3971
5.26099 19.583 72.4667
5.27603 19.2799 71.7138
5.24798 19.1384 72.2989
5.39725 19.7481 72.5115
5.33367 19.0275 70.2314
5.21599 19.5365 73.4289
5.37021 19.9779 74.0309
5.39541 19.7639 73.3907
5.34446 19.4823 72.9301
5.30652 19.5478 73.3736
5.28023 18.9232 71.9866
5.28809 19.1859 71.7723
5.26538 19.2937 71.1597
5.1792 19.2652 72.5474
5.25731 19.2634 71.9894
5.18779 18.9259 70.9196
5.12413 19.0088 71.6701
5.17605 19.0086 72.0797
5.28533 19.4968 72.108
5.21587 19.3372 71.8071
5.16802 19.2508 72.5979
5.22878 18.9705 70.1804
5.03976 19.1447 73.8112
5.26435 18.7799 71.5127
5.1852 19.2681 71.1842
5.09803 19.0678 72.7314
5.19292 19.1189 72.051
5.14702 18.8288 70.9981
5.11776 18.7281 70.4552
5.03395 18.6693 71.029
5.05982 18.2834 69.074
4.9829 18.6905 70.8568
5.05764 18.6147 69.8057
5.00761 18.7772 70.2436
5.02167 18.8282 71.9214
5.12765 19.4526 72.1065
5.06645 18.7025 71.6171
5.06029 18.9514 71.9415
5.09435 19.2734 72.8865
5.07543 18.5917 72.316
5.05195 18.0848 68.7644
4.90837 19.0173 72.1709
5.08233 18.8833 71.5345
5.0453 19.0009 73.3316
5.126 18.6704 72.1213
5.09666 18.8854 71.3199
4.99896 18.4388 68.8778
4.84532 18.7185 73.1677
5.10696 18.8302 69.7409
4.872 18.7975 71.8645
4.9642 18.4502 70.6677
4.90832 21.0066 100.482
7.13639 23.1163 72.2661
4.99045 18.7274 69.708
4.85668 18.4876 71.6267
4.99091 18.9062 71.6514
5.0278 18.8557 71.4165
4.94483 18.3846 69.6766
4.89696 18.713 71.5193
4.98625 18.8849 70.2384
4.84367 18.4201 72.4149
5.01394 18.1706 69.7897
4.85183 17.8357 69.8913
4.94056 19.1662 72.187
4.9508 18.776 72.592
5.04936 19.1112 73.3965
5.03276 18.8704 71.8935
4.95565 19.0561 73.4027
5.01986 18.4511 70.3357
4.87408 18.7567 72.1086
4.93876 18.1659 70.8804
4.91024 18.4046 72.499
4.96813 18.505 70.4594
4.83018 18.0626 68.7476
4.75976 18.2644 71.4826
4.90838 18.4227 70.6125
4.82506 18.8575 70.607
4.76413 18.0274 70.2468
4.77201 17.9799 70.8794
4.83308 18.3131 71.1684
4.84005 17.9775 69.8182
4.78063 18.0875 69.8702
4.76667 18.1133 69.5117
4.75327 18.4321 70.3702
4.75575 18.0055 71.5872
4.87868 18.1276 69.4571
4.71371 18.3848 70.3234
4.7873 18.1378 70.8148
4.82419 18.753 71.8584
4.8262 18.0327 71.5395
4.86354 18.2658 70.2201
4.75062 18.2359 71.248
4.78183 17.9795 69.7127
4.74456 17.9956 69.8687
4.74024 17.8111 69.5854
4.69956 18.2164 70.4953
4.7475 17.7364 71.1362
4.82412 18.2085 69.4619
4.68998 18.1794 70.3046
4.74436 18.1866 71.6357
4.78276 18.3661 71.0637
4.72585 17.5689 69.9469
4.75346 18.393 71.7926
4.80561 17.8123 68.5617
4.61156 17.592 69.1746
4.68917 18.1012 71.4025
4.78961 17.9022 69.2348
4.64884 18.1142 69.415
4.65951 17.941 70.6637
4.69146 18.4762 72.3345
4.81469 17.8727 69.5796
4.65178 17.9903 71.0981
4.73102 17.8893 70.5593
4.73115 18.1861 70.5579
4.66458 17.6505 70.2536
4.68623 18.1838 70.6092
4.66779 17.5898 68.8439
4.6135 18.405 70.488
4.68216 18.4884 73.0044
4.80118 17.6909 68.6604
4.56756 17.8839 70.0191
4.61169 17.7681 70.7892
4.699 17.2964 68.3322
4.57987 17.8428 69.1215
4.55552 18.0377 72.4527
4.8078 18.0983 71.5477
4.74204 18.508 71.1635
4.70204 18.3258 71.6577
4.70015 17.8396 68.271
4.4927 17.4404 70.3117
4.64354 18.2121 70.1224
4.5838 17.5677 70.3047
4.64913 17.2745 69.4588
4.62443 17.6037 68.7225
4.53486 17.4258 69.3321
4.55939 17.5719 69.3094
4.60572 17.979 70.1171
4.58738 17.7583 69.8522
4.60317 17.7557 69.4578
4.53614 17.4296 68.2424
4.48803 17.2782 67.8647
4.47238 17.2566 68.5785
4.54225 17.8458 70.7688
4.64419 18.0554 70.4718
4.62607 17.5916 68.4305
4.44316 17.3098 68.9616
4.51476 18.376 70.2258
4.55909 20.1945 99.6551
6.52305 20.5591 68.0262
4.44823 17.8333 70.3209
4.61807 18.4065 69.3579
4.52204 17.3697 69.3866
4.54483 17.5903 71.2355
4.63204 18.159 70.956
4.59469 17.2776 69.3665
4.48889 17.5651 69.0445
4.50679 17.8454 69.8689
4.5552 17.583 69.7075
4.53289 17.6489 67.6685
4.37455 17.5232 72.2345
4.68262 17.54 69.4109
4.52869 17.8035 70.2965
4.54158 17.4261 68.4491
4.4411 17.7821 69.7615
4.5537 17.462 68.3825
4.44309 16.9179 69.1195
4.45972 17.6716 71.0398
4.60582 17.8609 69.8251
4.53012 17.5558 68.5374
4.44856 16.9741 68.4855
4.45546 17.386 69.1856
4.51412 17.9108 71.6144
4.65698 17.9079 71.5771
4.63058 17.6594 69.6024
4.52429 17.683 68.707
4.44676 17.6593 69.2213
4.47623 17.4875 70.0634
4.523 17.9433 71.3715
4.6126 17.9215 71.0914
4.56634 17.2574 70.5985
4.57343 17.593 69.2723
4.47338 17.3093 68.448
4.43328 16.7546 70.2023
4.58033 18.2229 71.6382
4.60911 17.5774 66.4505
4.2684 17.2019 71.1959
4.60964 17.9409 69.9273
4.50162 17.6498 69.665
4.47367 17.5116 71.064
4.63287 18.0066 70.2318
4.52424 17.792 72.0923
4.65607 17.9837 71.5129
4.57707 17.3115 68.4432
4.4237 17.4145 70.2945
4.52944 17.5352 68.2708
4.39166 17.7549 70.6466
4.53154 17.2747 69.0487
4.46283 17.522 69.8962
4.49081 17.9447 70.7127
4.58906 17.0065 67.0381
4.29385 17.1289 67.6213
4.32707 16.8975 69.083
4.46507 17.3838 67.4138
4.35556 17.3373 68.8636
4.42562 17.2945 69.075
4.4232 17.4178 69.0359
4.44136 16.94 70.3188
4.52992 17.424 70.5596
4.54563 17.7586 72.2739
4.67054 17.9187 69.8033
4.4799 17.6399 68.9881
4.45169 17.3827 67.7205
4.34159 17.2502 68.572
4.40658 17.3926 71.9246
4.59634 17.4524 68.7813
4.44358 16.8241 70.2685
4.52245 18.0214 69.9039
4.48535 17.7577 70.207
4.51975 18.003 70.1976
4.49599 17.6042 73.8326
4.74838 17.9554 71.2037
4.55901 17.535 69.4743
4.46672 17.6782 69.0676
4.40518 17.4772 70.7578
4.55457 17.9342 68.3958
4.38287 16.9191 68.0376
4.39534 17.4142 67.6971
4.34299 17.4732 71.6098
4.59361 17.9973 69.8265
4.48069 16.8576 69.3061
4.45673 17.5543 71.2801
4.53477 17.4014 69.5275
4.47771 17.6058 69.341
4.42984 17.395 71.0995
4.55375 17.8214 70.3671
4.50951 17.4864 69.6258
4.44312 17.5848 69.8705
4.50982 17.591 73.0783
4.66865 17.7008 70.9617
4.57104 17.986 71.2184
4.57082 18.1581 72.0111
4.62785 18.1046 71.4929
4.58351 18.4952 71.1219
4.56418 21.364 108.382
6.86287 0 0