# pn-170911/RbIIR-54-USN7-1280-1959.psd
# Power spectrum* (dif=0,1,2) (really just |FT|^2)
# NOTE: only the first half! (symmetric)
# weeks: 1280-1959
# 218 clock-days, 316 excluded
# PSD: 1441
545.839 0.128037 0.100002
22676 0.334974 0.206937
180960 3.79003 0.208948
12732.3 0.536406 0.21585
34112.5 2.65714 0.220517
4399.3 0.52206 0.232112
3506.89 0.608875 0.226098
2594.16 0.52824 0.252522
2357.5 0.673434 0.232614
1499.77 0.606467 0.24285
1314.84 0.637674 0.191785
1107.43 0.582748 0.224324
981.896 0.639642 0.216075
711.762 0.607421 0.227446
733.702 0.639285 0.197577
738.187 0.775654 0.206439
691.096 0.83787 0.222595
569.713 0.78452 0.194394
630.019 0.880507 0.230076
479.351 0.785543 0.193479
604.742 1.08841 0.227662
463.066 1.01778 0.208816
542.483 1.15606 0.239567
513.114 1.24505 0.236537
534.817 1.47535 0.220985
468.345 1.33704 0.244936
427.286 1.35517 0.246653
373.498 1.34372 0.213406
392.184 1.37714 0.21282
342.989 1.46533 0.240381
443.677 1.9423 0.222663
425.915 1.90416 0.246341
440.853 2.07224 0.259929
447.764 2.22367 0.243122
421.561 2.35539 0.2232
424.284 2.46988 0.2327
428.985 2.59604 0.219282
402.805 2.54834 0.211579
461.756 3.05311 0.235751
398.584 2.81916 0.228864
407.928 3.04181 0.256983
445.499 3.47372 0.2448
377.553 3.19519 0.253036
370.224 3.38245 0.250073
392.483 3.63211 0.254758
433.636 4.12066 0.259609
380.129 3.90685 0.263634
356.666 3.76832 0.248795
379.924 4.05178 0.240518
322.89 3.65864 0.286656
361.792 4.25168 0.24319
357.498 4.33295 0.287292
369.97 4.60893 0.284412
402.517 5.31682 0.302765
370.317 4.9661 0.305677
363.509 5.0002 0.280106
401.312 5.96056 0.297254
363.497 5.64232 0.306878
411.056 6.24916 0.28575
386.734 6.33174 0.317107
371.089 6.21143 0.351939
349.957 6.16321 0.363645
341.29 6.11141 0.331914
327.764 6.16446 0.328112
321.013 6.35763 0.363398
350.143 6.88963 0.388941
336.731 7.06114 0.386565
318.479 6.60165 0.37739
328.538 7.22178 0.332526
323.864 7.20633 0.379468
397.853 9.1676 0.458058
326.472 7.68013 0.357124
330.869 8.06541 0.397752
298.819 7.4447 0.417236
315.398 8.24902 0.418285
310.525 8.19248 0.410751
319.779 8.98969 0.492503
397.374 11.1835 0.545114
344.561 9.88198 0.493441
330.337 9.52638 0.515874
331.221 9.84823 0.519256
287.8 8.97007 0.503982
330.49 10.4001 0.510182
288.325 9.44 0.508624
311.159 10.3598 0.560927
301.438 10.1168 0.649164
283.218 9.9709 0.539837
308.356 10.9542 0.565523
261.387 9.29667 0.555536
287.624 10.7847 0.634664
297.886 11.1456 0.654882
349.019 13.3811 0.750441
312.093 12.2368 0.688143
294.189 12.177 0.733241
274.635 11.3387 0.707998
272.89 11.7259 0.688861
410.303 17.6207 0.968568
286.251 12.4367 0.719554
250.886 11.5721 0.751414
280.598 12.9346 0.740064
275.209 13.3225 0.86123
244.379 12.1181 0.752479
294.04 14.3422 0.841967
273.04 13.7015 0.866057
254.018 12.8373 0.784576
263.719 13.6601 0.874885
254.768 13.6707 0.860974
276.96 15.0988 0.972386
245.067 13.3488 0.944
231.584 13.277 0.896384
252.422 14.5848 0.986169
279.934 16.3841 1.16981
229.736 13.5405 0.956563
237.252 14.1791 0.993964
241.144 14.7608 1.02768
301.314 19.0184 1.39058
276.379 17.3192 1.24612
228.242 14.4969 1.18551
206.143 13.7532 1.03557
242.728 16.3508 1.23517
240.411 16.8097 1.32243
239.904 16.1072 1.34012
216.352 14.7195 1.23192
255.4 18.1811 1.31816
243.394 17.7168 1.42182
223.909 16.1408 1.36577
222.244 16.5175 1.422
236.698 17.5897 1.51729
220.102 17.1355 1.55287
220.351 17.273 1.47036
222.958 17.5339 1.5797
246.77 19.8803 1.77363
228.66 18.4609 1.62321
213.119 17.9717 1.5978
220.787 18.5233 1.62388
216.672 19.2267 1.85406
210.493 18.4799 1.66637
208.058 18.7359 1.84705
224.743 19.72 1.79087
210.575 18.9029 1.85735
232.737 21.1096 2.0434
214.627 20.0817 2.08803
188.633 17.5775 1.87839
193.305 18.757 1.93116
219.279 21.6781 2.25004
217.664 20.8823 2.16661
202.67 20.1928 2.20196
175.905 18.0698 2.01086
206.358 21.0275 2.34522
186.759 19.6088 2.19095
206.142 21.4598 2.44309
219.763 23.0724 2.57334
186.157 19.9383 2.27753
200.19 22.0304 2.57651
198.599 21.731 2.49635
212.275 24.4365 2.83182
191.184 21.5596 2.47789
176.388 20.464 2.55918
189.841 22.2249 2.74189
174.584 20.5357 2.46807
172.992 20.4055 2.6393
178.61 22.1578 2.80243
185.017 22.7555 2.81514
172.54 21.4512 2.77279
184.058 23.4715 3.04924
162.962 20.6659 2.61944
182.622 23.5915 3.05767
182.152 23.9125 3.14766
205.016 27.4601 3.66153
174.312 22.9438 3.05411
157.724 21.4883 3.08744
146.977 19.8821 2.73772
167.338 23.1709 3.18442
156.711 21.8953 3.10532
170.242 25.03 3.49798
154.834 22.1092 3.15915
154.679 21.6595 3.23576
161.231 23.034 3.54344
163.717 24.9566 3.70994
174.409 25.8525 3.84164
166.451 25.0859 3.91898
174.178 26.6208 4.15442
156.982 24.5777 3.77785
153.91 23.5438 3.66674
163.245 27.1483 4.49891
145.588 23.7375 3.7018
161.899 24.8333 3.75186
145.732 23.8949 4.00316
148.392 24.4116 4.0983
151.573 25.7305 4.49023
143.757 23.6476 4.10064
171.017 29.862 5.1372
197.397 33.836 5.55557
149.339 25.8977 4.68891
117.075 21.232 3.84116
138.208 24.2535 4.53215
138.716 24.8944 4.42264
132.456 24.1583 4.55362
148.453 27.0145 4.90853
151.892 28.0694 5.06393
130.376 24.0573 4.46493
148.356 28.3729 5.40662
138.841 26.3944 5.08189
148.19 28.1189 5.48854
139.851 27.8606 5.57126
147.5 28.6998 5.51161
146.993 29.6013 5.78022
131.072 25.4466 5.05117
120.695 25.2183 5.15328
136.497 27.9817 5.59485
138.185 29.0121 5.82897
126.62 26.6431 5.65815
129.673 26.5462 5.57733
132.338 27.8795 5.90937
118.895 25.393 5.38579
115.943 26.534 5.92448
141.339 30.4048 6.32637
127.544 27.8803 6.31421
112.781 25.0996 5.63841
122.332 27.5956 6.32743
132.81 30.0846 6.65181
121.512 28.2577 6.44715
127.944 29.0167 6.44857
133.716 30.4833 6.98021
125.665 29.4805 6.94147
110.322 26.4177 6.3213
112.85 26.7681 6.39461
123.601 29.6926 7.17425
115.865 28.0891 6.93993
117.654 28.6801 6.74896
105.396 26.5006 6.40028
111.439 27.7974 6.83226
113.909 28.4613 6.96605
112.822 29.1926 7.36652
106.248 26.7742 6.97866
109.56 27.6039 7.06447
112.148 28.8947 7.28683
103.748 26.9872 7.21365
101.878 26.2854 6.8587
104.5 27.8792 7.45917
127.83 34.0674 8.77126
105.717 29.4839 7.79479
99.2449 26.5373 7.29721
108.197 30.0893 8.23096
106.011 29.4792 8.11444
113.432 31.6324 8.53462
93.7728 26.2746 7.24686
107.971 30.3977 8.33653
100.089 29.0165 8.38482
110.979 31.4442 8.78793
92.814 27.5014 8.13081
98.0881 28.294 8.3189
99.4744 29.4245 8.85312
107.073 30.7789 9.01048
94.1503 28.8749 8.82698
94.9812 28.0047 8.49833
105.532 31.6962 9.59111
105.749 32.0985 9.85983
103.073 32.1764 10.0761
103.62 31.3934 9.44015
89.964 27.8788 8.70315
101.241 32.8664 10.5253
98.6923 30.5962 9.74524
95.0978 29.4665 9.34668
91.9394 29.2181 9.67562
98.5338 31.8667 10.3074
88.4944 28.4693 9.28595
94.5556 31.2113 10.2949
89.2126 29.3778 9.60893
93.9201 31.7959 10.8657
91.2782 29.887 9.92207
95.3411 31.7322 10.7806
92.7945 31.83 11.0318
94.9615 32.4011 11.4402
98.409 33.5001 11.1016
84.8305 29.6573 10.3869
94.0575 33.1813 11.487
92.3769 32.802 11.1797
82.6237 29.2512 10.4143
92.3141 33.6536 12.3854
85.7114 30.1326 10.9303
91.6568 33.0179 12.3197
88.0697 31.0714 10.9749
87.2686 31.9058 11.7474
87.9986 31.9037 11.6919
89.3462 33.4788 12.81
82.4031 30.1896 11.1552
103.358 38.9127 14.3956
112.881 44.211 16.4412
90.8819 33.3146 12.4861
91.4355 35.4743 13.7605
85.9189 34.0803 13.1208
76.2602 31.0331 12.538
85.4118 33.3227 12.9549
83.4689 33.5471 13.4628
75.438 29.8484 12.0447
80.174 32.3153 13.0751
87.0837 34.687 13.7205
82.0928 33.42 13.6854
82.6628 34.1992 14.3782
83.756 33.7914 13.6952
84.4208 34.0447 14.0625
86.8515 35.6011 14.5749
73.8009 31.2586 13.1882
81.3395 34.3247 14.0784
75.7599 32.3789 13.8888
80.0175 34.9215 15.1209
76.9084 34.5315 15.643
85.4796 36.0427 15.0363
80.7641 36.3905 15.9461
78.5546 33.3466 14.6224
58.8002 25.7302 11.6843
70.5932 30.9729 14.1143
81.4974 36.0802 15.6604
72.544 32.7485 15.0453
72.245 32.0966 14.2468
66.7069 29.7989 13.5135
71.9148 32.9803 15.1579
68.0463 31.5873 14.5015
75.5449 34.9163 16.4836
76.8878 35.5241 16.6166
67.4108 31.3925 15.0939
67.5178 31.0004 14.256
70.1821 34.4342 16.8372
80.4516 36.513 16.797
65.3087 31.7181 15.2574
66.3242 31.1144 15.031
65.6309 31.5965 14.7293
66.9253 35.9075 18.3195
67.0008 31.9288 15.5935
73.2536 35.6608 17.3108
62.5846 31.1975 15.5566
62.4142 30.8702 15.9394
61.0419 29.9875 14.7629
61.8651 30.8461 15.1954
65.7358 34.3042 18.1928
70.3389 35.0066 17.3175
66.0699 34.2514 18.0237
57.8709 29.2835 15.0841
59.4872 31.9078 17.468
73.4645 38.3701 19.7814
66.4508 34.7491 18.1871
67.2232 34.5632 18.416
71.785 37.9899 19.8003
58.7146 31.8076 16.948
58.4046 31.6892 16.9464
60.5656 33.0926 18.0008
60.2827 33.0415 18.3255
58.7546 32.0589 17.4496
64.2734 35.0349 19.0654
65.2337 35.5465 19.1933
63.2297 34.6736 18.8538
63.1587 35.7293 20.3798
55.9775 29.9315 16.8608
63.4288 37.2676 21.23
62.8786 34.9239 19.8358
60.7081 33.8579 19.0556
54.8277 31.1525 18.1153
56.6746 33.4527 19.3683
50.9988 31.2947 19.0768
62.7654 36.6349 21.0292
56.3798 32.6741 19.5208
55.7878 32.3412 18.7218
58.1868 34.1957 19.8714
56.0046 34.0521 20.8853
51.7797 30.1624 18.5109
55.493 32.9727 20.3175
55.4416 32.3543 19.0676
51.6609 31.8548 19.3755
46.2448 29.5616 19.0251
54.0191 33.7528 20.6918
59.0022 36.1102 22.0691
60.8653 36.5508 21.9012
59.2766 37.2642 23.6341
57.9043 35.1204 22.1532
62.3172 39.0668 25.1993
57.3812 35.7356 22.36
53.0476 33.8678 22.0195
51.7591 31.3517 19.7729
52.8488 34.1374 22.0655
49.7354 31.3244 20.1264
50.881 33.9298 22.4805
47.8217 30.4802 19.4782
53.8281 35.9199 24.254
71.9743 46.1549 29.1334
51.6913 33.4891 22.1942
52.152 33.2759 21.7916
47.498 32.4003 22.8484
49.3983 32.3565 21.3539
52.6107 35.0146 23.1868
48.9048 32.7807 22.1822
49.2021 33.7085 22.4238
47.2252 31.9749 21.9113
54.1652 39.2219 27.0909
44.6903 30.7895 21.6621
45.0248 30.1463 20.7481
48.6267 34.9191 24.7648
52.9278 36.3085 25.4863
54.5728 38.1044 26.3501
49.6202 34.3631 23.4212
46.3517 34.1505 24.4325
44.9805 31.9825 22.8685
47.4214 34.9896 25.7242
46.6343 33.3146 24.0496
51.6167 37.9867 27.7041
49.5973 36.4398 27.0718
49.2072 35.9399 26.1282
43.0035 32.6279 25.1824
47.5734 33.8227 24.1826
45.874 34.3157 26.0874
48.8112 36.0417 25.9884
46.3782 35.3024 26.217
44.1445 34.5743 27.0633
46.1144 32.9113 23.9797
42.306 32.7714 25.3665
45.3696 34.8633 26.6915
43.0821 31.6107 23.5791
41.8903 33.5598 25.703
42.8553 33.0649 24.9354
40.7563 33.6502 27.1954
46.3111 34.4408 26.0396
42.2664 32.4971 25.4342
40.0305 32.333 25.9773
42.8612 32.806 25.1256
40.2524 33.5304 27.5285
43.3389 34.7022 28.8264
47.2752 36.8774 28.8464
41.5768 33.7379 26.9592
44.3617 36.6488 29.7851
41.7778 32.6307 26.1262
40.4707 32.3945 26.4143
40.9077 32.6424 26.3045
44.4684 37.9156 30.9149
41.2391 33.7005 27.4871
40.9825 33.7492 27.4891
41.5935 34.9998 29.1994
37.5827 32.7202 28.834
43.3762 36.3728 30.4814
42.2274 34.5388 29.4897
40.0257 32.0496 27.0849
40.6436 34.3387 29.5811
41.6053 34.1966 27.9323
40.7001 35.1678 29.8958
38.1014 32.8516 28.7152
41.603 34.9534 28.8838
37.6196 33.7282 30.1288
35.7451 31.5173 27.6997
39.8664 33.8449 28.7011
37.0001 31.3495 27.051
37.4545 32.9655 27.3733
33.5016 31.5965 29.3317
36.0541 30.7082 27.3857
40.5514 35.798 30.7714
36.3917 33.4422 31.6101
40.1522 35.0233 31.1971
38.5528 35.0508 32.539
38.2193 33.924 31.3924
43.4578 38.5964 33.1833
36.3661 32.5796 29.6235
32.5296 31.1913 29.6266
32.8738 30.3547 27.3684
32.3312 30.5485 29.7751
36.0128 33.2371 32.0121
41.5286 38.6759 36.2258
36.0552 33.3672 31.1507
36.6867 32.9355 30.8176
37.1198 34.7415 32.1087
38.0502 36.4678 34.0213
35.0189 33.1579 32.1942
38.0834 35.8883 33.5702
32.6675 29.8074 27.822
36.483 36.5717 35.8624
35.8047 32.3515 30.3689
36.2677 35.3109 34.0733
34.3477 34.6182 34.0439
35.3862 34.7956 34.1379
35.3497 34.3727 35.2581
35.0342 33.3943 32.2206
33.877 33.7862 33.2695
31.6928 33.8918 37.727
48.3504 44.8856 41.1643
31.0562 32.1739 34.4933
34.3272 33.8549 34.3098
34.2214 32.4062 31.2909
31.0503 31.1591 31.6359
31.9609 34.2886 36.7742
34.1441 31.3926 30.2861
32.1222 31.5998 31.4742
33.9885 36.0663 36.923
32.9661 34.0456 34.9744
33.5336 35.7587 38.8302
33.5847 34.4221 35.7548
37.6617 37.2849 36.9425
31.5048 33.1412 34.9839
32.7125 33.3028 33.5776
28.5631 30.8602 33.149
31.2964 33.7873 36.2965
29.8606 31.5396 34.8151
33.938 35.4312 37.1632
34.5782 35.3245 36.5373
29.6674 31.9583 34.4071
31.3097 33.5064 36.3756
33.5241 36.1194 39.1024
31.7918 32.528 34.459
27.779 30.9547 34.5885
32.4219 34.9749 37.3728
27.1364 30.6236 36.1148
30.9702 33.7291 37.1425
32.2629 35.2628 39.7096
30.1406 30.6233 32.388
29.7931 33.7788 38.2807
31.1766 31.8349 33.7368
28.3154 31.8287 37.071
31.5429 34.9327 38.0973
29.2262 33.7405 38.7417
29.3492 32.4664 37.0998
32.4071 35.2653 38.463
28.9874 34.467 40.6053
29.1415 32.59 37.7838
27.3892 32.9169 39.8321
33.6226 38.2993 44.2502
32.8797 35.9037 39.2474
27.0094 32.1655 39.1753
28.5789 31.7816 36.7457
28.2662 31.7129 36.2286
26.3258 32.172 40.7196
32.7329 35.6109 40.5842
28.3771 31.5057 35.7082
26.34 31.9184 39.1016
26.689 31.142 36.5379
26.9847 31.8599 37.573
26.2098 30.28 37.0029
30.3382 35.8479 41.8951
28.7948 35.7889 42.9502
26.6811 32.3118 40.1549
28.9808 34.9759 42.3248
29.2163 34.7736 41.1201
24.1807 28.7021 35.6201
25.9437 31.6519 39.3084
29.1619 34.47 40.5249
25.3572 30.5453 36.0944
24.0623 30.974 40.1556
26.9205 32.0852 38.8029
27.0427 34.4089 42.9043
23.38 28.302 37.6463
28.6294 34.1874 41.3778
26.7904 33.3807 41.5416
24.7632 31.107 39.9133
24.3531 30.1022 38.7909
27.9292 35.6523 46.2234
27.5829 33.2355 40.0154
23.4437 31.3706 42.8874
29.4375 36.3946 43.1935
26.4558 33.7572 43.7145
27.6296 37.2846 49.2968
25.6818 32.3142 42.6242
24.708 30.8361 40.9293
26.2675 33.7923 43.3725
25.4648 33.0421 42.2119
24.0833 31.3762 41.2438
25.1998 33.7686 46.4798
24.7113 30.6801 40.5916
26.1722 33.3234 43.0381
25.8412 32.7963 41.3948
23.6386 31.9625 43.5336
25.7008 35.4373 48.1946
24.0488 31.9399 44.309
25.5687 33.8007 45.3208
24.6655 29.8003 36.8504
22.0785 29.6855 39.4227
22.4407 30.322 40.9293
23.5779 32.9801 46.2517
22.6657 29.2288 39.5403
22.2864 31.0679 44.7944
23.3656 30.1522 40.9967
24.789 34.702 51.2644
32.719 44.5102 56.9081
22.7359 30.5614 43.5693
23.2521 31.6217 43.7329
23.2034 30.37 43.39
27.9126 35.7774 46.2005
19.4862 26.0964 36.5905
20.5273 28.1996 39.1862
23.0497 32.4577 45.3163
23.8864 35.2714 50.327
21.2099 30.0823 44.4204
22.6576 31.6173 43.9897
22.9034 34.3697 51.5658
21.5488 27.919 40.5795
24.7587 33.9097 44.5957
18.8594 27.7831 42.5591
20.9192 28.421 41.1439
21.3473 30.6868 44.9134
23.286 33.4549 46.3753
20.6399 31.4615 46.9093
21.0222 29.8712 45.7811
20.7976 28.5504 41.7302
21.8532 31.3617 45.0299
20.1759 29.1916 43.4482
21.2376 30.4652 45.7344
20.6936 28.4555 41.4342
22.938 34.1495 48.737
19.9068 28.8676 44.6609
22.4869 31.1831 43.5568
19.7877 30.7804 47.3966
22.0384 32.878 49.9043
24.0595 34.5695 49.369
21.9323 34.3791 53.9853
22.1967 32.2407 47.4019
18.363 28.1977 46.5558
23.9868 33.9232 49.5739
19.9306 29.2136 46.3061
21.1596 30.1338 45.1757
19.1869 27.5458 41.3094
19.1595 28.2474 42.4143
18.9795 29.4088 44.9191
18.7109 28.2424 43.6039
19.7164 29.7325 45.0734
19.1337 31.2481 49.1363
18.0138 28.0552 46.2942
19.9176 29.9464 48.6175
19.063 27.1938 42.7948
20.7109 32.2819 47.5948
17.6977 30.3991 52.5395
22.1176 33.0913 49.6201
20.4212 31.9984 52.9104
20.6524 30.4367 47.336
22.5287 35.2238 53.6858
18.0783 28.2746 48.2736
21.1364 33.2121 50.5623
19.6746 31.2828 50.1807
17.8622 27.5915 46.3583
19.9733 30.3577 48.3783
19.4772 30.3213 47.4761
18.127 29.8659 51.1515
19.2101 29.8914 49.0104
19.3059 30.6729 49.0557
18.8799 30.2563 49.9547
18.9556 29.3704 46.028
17.8289 28.729 48.5459
19.3152 29.3064 45.4827
17.8263 28.9327 46.8426
19.9902 32.0019 50.4583
17.7356 29.2359 46.7477
16.7996 26.5558 44.0408
16.8365 29.744 52.8085
18.7749 29.5834 46.9431
16.7634 28.719 49.9226
17.4445 27.4176 44.8743
17.258 30.0199 49.6816
16.557 26.3584 44.0914
16.7766 31.0555 55.6738
18.8611 31.8993 56.695
18.8627 28.9139 46.7516
16.8156 29.1335 51.2333
18.0735 30.5272 53.1243
16.0212 25.3286 43.6526
16.4716 28.2564 48.4505
14.8515 23.153 39.3249
15.7663 28.6161 51.5739
17.1748 27.3762 46.7363
16.7822 28.4085 49.6541
17.297 30.8216 53.7036
17.3531 28.4999 49.9346
17.2123 28.211 47.8535
16.5326 27.1891 47.8267
16.6949 29.7559 50.6526
16.6133 29.1551 53.3653
17.4178 28.6347 48.326
16.755 29.949 52.4017
16.6135 29.8004 53.8489
15.1855 27.6317 55.269
21.4446 35.5103 58.1589
16.1407 27.485 46.9623
13.8258 23.7106 43.7443
15.2451 27.8083 50.7856
17.4596 31.0175 54.7982
15.2944 26.9188 48.8235
13.437 23.2665 46.1365
16.457 28.8218 51.9942
15.555 25.7509 45.2222
13.9841 25.9673 47.5002
14.6907 27.7811 53.0153
15.8551 27.0621 50.3987
16.123 27.5282 48.0419
14.6912 26.6899 48.1382
14.1178 26.9011 52.6959
16.6986 29.3165 51.2924
14.3056 27.1513 50.2387
14.4303 26.6261 51.3625
15.9203 28.6315 53.8595
15.5574 28.24 51.9616
13.748 25.0689 49.9663
16.4152 28.4804 50.137
14.4712 26.67 51.1035
15.7892 29.127 51.742
13.5668 25.0916 47.6159
13.8701 27.5019 51.435
13.329 24.8941 50.8946
15.2046 29.6703 59.5912
17.3922 29.786 51.3245
14.0675 26.6198 53.2036
14.3914 24.6612 47.7629
15.5601 29.9784 53.7479
13.3035 25.9975 51.4601
15.172 29.8574 57.4541
14.0568 25.9461 49.881
13.3482 24.2815 46.88
13.5747 26.2684 51.9785
14.3511 26.3035 47.5869
13.2981 26.8674 53.757
13.7025 25.7925 52.396
13.2382 25.1793 47.584
12.8335 26.963 57.8319
14.1953 23.3152 44.1973
12.309 23.6216 47.7425
14.2744 27.7937 53.4852
14.0505 27.9564 58.2431
14.2483 25.6052 49.1287
12.5234 24.9515 55.6098
15.4756 28.5335 54.6649
13.8423 25.2863 48.1542
13.8035 27.5916 57.3496
14.7109 26.8921 52.2542
14.5338 29.6458 56.3322
13.019 27.0216 55.8111
13.0241 25.2313 51.5808
14.0925 28.0405 54.6232
13.6775 27.049 53.4542
12.2693 24.3134 48.228
11.6329 22.5404 45.8347
11.817 25.1077 55.0127
12.9714 26.0421 54.9662
14.23 27.9565 53.5545
12.2094 26.4397 57.9206
13.6841 25.3979 52.3978
12.5581 24.4739 48.7336
11.8061 23.8798 49.7587
11.7606 26.2077 59.9039
13.5928 24.8324 50.5489
13.0091 25.5601 50.5039
11.416 24.4071 51.9688
11.438 23.0919 51.4577
13.3402 26.7832 53.0341
12.4634 27.0847 57.6348
12.2036 23.5157 51.6603
12.7399 25.262 51.9754
13.083 27.7837 57.3221
12.2115 24.8905 52.3842
13.5994 29.8288 61.3817
12.8582 27.2485 60.4801
12.5353 24.5318 50.5623
12.47 24.6692 50.2949
12.0266 25.1833 51.1809
10.827 24.5541 55.4671
12.1645 25.4343 57.9693
13.0077 24.7638 52.5082
12.3745 25.7749 55.3235
11.1466 21.8313 46.1141
12.3371 29.5372 65.544
12.2097 24.4018 51.311
12.718 27.6588 58.0715
11.4559 25.4289 58.8949
12.1694 24.0009 51.2191
11.854 26.5121 56.7389
10.4674 22.1855 53.6255
12.4767 24.6431 50.0525
10.1358 22.9567 59.6651
15.6948 30.312 54.6332
10.5223 23.9204 53.5846
10.4668 21.0263 46.93
11.4891 26.3313 59.7771
10.9739 23.0202 51.5242
10.1919 22.415 51.8307
11.9689 24.8624 50.0395
10.0274 23.923 58.568
11.6267 23.2628 50.069
10.0812 22.1985 51.3485
11.3417 25.2263 57.5993
11.8841 27.3171 62.6323
11.8247 25.416 55.7831
11.9503 26.1318 56.0735
10.7625 24.521 57.4121
10.7919 22.1054 50.9888
11.4975 24.7648 55.6309
10.7238 25.2791 60.9179
11.7541 24.041 50.8336
10.3017 23.0184 52.633
11.0218 23.1204 50.1257
9.11075 20.7746 51.3197
10.8197 23.8995 53.7169
10.3274 21.7967 48.7001
10.2547 24.7587 59.1123
11.1653 24.2139 57.2823
11.5585 26.1135 57.9181
9.4221 20.2125 48.3715
10.3134 23.2748 55.3943
11.3969 25.8077 57.7748
10.6042 23.4686 54.2745
10.0292 23.1452 56.8464
10.4561 23.0978 54.8311
10.3716 24.5892 57.6944
10.8971 22.723 50.1071
9.51845 21.6632 49.4817
9.64952 21.8977 53.3577
10.4305 23.3748 56.9375
10.0408 21.8598 51.8382
10.3439 24.0906 56.1009
10.6475 23.9191 55.9838
9.90917 21.2209 49.9602
10.5261 25.4589 57.9222
10.389 24.2902 56.3954
9.9856 23.4753 57.9358
9.6432 22.1989 52.4241
9.36425 22.7764 59.5882
10.8295 23.7388 54.926
9.45231 22.2468 52.163
9.00433 20.164 50.6432
10.4773 26.034 61.0691
9.27372 20.7214 51.1805
9.8508 22.5318 55.1112
10.0673 22.9871 54.0283
9.16044 22.8775 59.1431
10.2592 22.2901 54.675
10.0264 22.7317 55.1347
10.1086 22.5504 52.7661
8.87013 21.2349 52.1564
9.63389 24.3762 58.2699
9.06512 20.2626 50.6758
9.14032 22.2082 57.0643
9.50637 21.7318 54.7358
9.85105 24.0128 58.7402
9.45545 21.1396 53.1527
9.61016 22.2617 51.2054
8.25015 22.5153 58.1863
9.59763 22.952 56.0005
9.44879 22.9047 58.7399
9.51358 21.546 51.7929
9.19956 23.1268 60.036
9.69003 21.4265 49.7883
8.96382 23.7257 61.956
9.45564 21.1877 53.9852
9.24966 21.7492 54.4963
9.01491 22.1646 56.8418
8.73485 19.9747 52.3314
9.2421 23.0334 55.0274
8.73846 21.1159 51.107
8.80001 23.2428 61.0415
8.77355 19.563 51.6347
9.25972 22.5645 55.9715
9.02471 22.2514 54.7447
8.49065 20.8116 52.8051
8.4096 21.2971 58.2083
9.87483 24.6658 63.3981
9.24543 21.8221 54.9533
8.96438 22.2743 56.6619
8.55975 21.0957 52.674
8.76674 22.3388 57.8869
8.33263 20.0405 54.694
9.63684 24.4634 60.1269
8.60891 21.5413 59.4495
8.7669 20.3623 52.1593
8.2724 20.6723 54.114
8.40106 21.4487 66.2102
11.752 30.1563 69.7358
9.52778 21.9712 55.5212
8.79549 23.21 58.1673
8.33347 21.5208 58.9415
8.68285 20.1978 52.9946
8.53566 22.9045 63.769
9.39262 21.129 50.8629
8.3898 22.0726 57.3692
8.95563 23.8747 62.1105
8.3736 20.0107 54.4125
8.03479 20.8376 55.4687
8.61662 22.968 63.6746
9.17505 22.4658 55.1882
7.21432 18.5652 52.2393
7.8853 19.3257 51.5666
7.92824 19.9166 52.0555
8.13996 21.8851 54.9133
7.50369 19.5748 54.9371
8.16802 21.0169 55.8974
8.15557 21.3162 57.91
8.12651 21.5953 59.2072
8.81579 23.2727 61.8928
8.38251 20.9655 52.9644
7.29851 19.5782 54.1634
7.34803 18.9879 57.7391
8.24436 20.6909 53.5225
7.58799 18.8619 52.7187
8.32262 21.356 55.2562
7.6962 20.8049 59.5953
8.38185 21.321 55.7169
7.83226 18.9968 51.6617
7.4169 20.2327 52.0821
7.27864 20.9042 60.6191
8.19959 20.4135 53.7792
7.52686 20.4775 56.3588
6.86799 19.0633 55.3708
7.57475 19.2845 51.12
7.52329 20.0444 51.1668
6.87594 19.0495 55.5624
7.57813 18.6042 52.9733
7.71565 19.3619 55.6576
8.43768 22.2311 57.617
7.5274 19.4694 52.9201
6.75432 17.867 54.0669
7.95071 20.1238 53.5241
7.22294 20.1611 59.898
7.86229 19.3136 52.8246
7.19126 17.8212 51.0093
7.79698 20.3405 54.6686
7.03686 19.3308 54.1221
7.32614 19.2505 50.7655
6.78675 18.9845 53.6989
7.55638 20.995 56.6176
7.00432 19.2136 56.9146
8.10986 22.8283 64.0404
7.59597 19.7529 57.328
7.22046 18.9585 57.824
7.5718 17.6535 49.6129
6.93176 19.3028 54.9272
7.17459 19.8892 60.0181
7.70226 20.6686 53.9023
6.75356 18.6959 53.8516
6.80169 18.9814 54.4441
6.57753 17.3289 53.8771
7.73042 20.9555 55.406
6.73285 19.9272 60.6077
7.4141 19.5091 52.3987
6.73655 19.2823 58.2422
7.4279 20.5875 59.8984
7.84059 21.571 58.6772
7.01751 19.365 57.0494
7.08595 19.3566 53.9689
6.57272 18.2799 58.3175
7.66874 21.4427 61.0537
7.57101 20.4308 60.3469
7.86422 21.0084 58.5603
7.04024 20.3281 60.328
6.97418 19.146 57.297
7.35849 19.3395 55.878
6.71697 18.0845 54.4066
7.55911 20.8547 60.0636
7.41389 20.6964 59.8363
6.98799 20.1114 57.5034
6.84092 18.3454 51.2786
6.4987 19.4554 61.1328
7.43177 19.9006 56.5
6.72705 19.0354 54.5083
6.29352 17.3555 54.2638
6.8771 19.9017 53.5533
5.97708 17.2201 56.9696
7.57245 22.0125 59.939
6.84883 19.1636 61.0613
7.06962 16.9688 47.4755
5.84865 17.8869 57.9037
7.27759 20.187 56.0576
6.92147 21.3758 68.8209
8.03748 21.5185 58.0302
6.23967 17.8076 54.7409
6.48482 19.6749 56.2076
6.21615 16.8991 53.1501
6.5995 18.1743 52.9405
6.53416 19.7971 58.1373
6.10477 16.1157 53.7893
6.68759 20.131 56.7726
6.18351 18.0716 57.3558
6.75025 17.8738 49.1913
5.98153 18.4031 53.7751
6.33128 18.8991 54.5078
5.69995 17.233 58.0779
6.74616 18.9172 56.7613
6.05119 16.612 58.7906
8.49995 24.2792 61.3547
5.91139 17.046 56.5542
6.67254 20.6598 65.0157
6.47733 17.102 52.0259
6.10853 18.696 60.885
7.20868 20.2744 57.9712
6.21011 18.103 55.8427
6.16704 19.0553 62.9772
7.07657 19.83 60.3042
6.74296 18.5977 54.3753
6.34295 18.2058 56.4301
6.04002 18.8316 63.2371
6.7751 17.0943 53.1027
6.92566 21.3658 67.9967
7.4151 21.1646 64.6734
6.88279 18.2001 53.5779
6.22546 19.5101 60.6003
6.56475 18.1032 56.181
6.42223 18.715 59.3676
6.69035 19.6948 57.6443
6.55346 19.3877 58.768
6.60163 20.2996 61.1726
5.98069 16.3898 50.1223
5.37729 17.2658 58.3548
6.24466 15.9638 51.7057
6.16369 19.3313 61.0589
6.53203 18.9341 57.0576
6.18674 18.1913 57.8032
5.9062 18.2566 60.3296
6.2969 17.5351 56.2142
6.28456 18.0463 57.9584
6.4013 18.7555 53.9939
5.38437 16.2938 60.3097
6.79274 18.3558 51.7479
5.69243 19.6641 61.0693
6.34593 19.4768 60.7879
6.19095 17.4494 54.8202
5.91086 17.9405 55.2135
5.45714 15.986 60.1346
6.87005 21.0955 62.9053
6.33286 16.8956 53.7783
6.0358 17.903 56.1432
5.93868 18.5084 58.9347
5.78468 16.1633 54.3378
6.21166 19.8539 57.9848
5.85937 18.0909 54.6805
5.35764 16.3542 59.0939
6.26808 17.9292 58.4158
6.08787 15.9141 47.6779
5.28489 17.3312 53.305
5.23289 15.794 50.1334
5.20837 15.9537 55.1481
5.79772 17.9565 53.9832
5.20969 16.3735 52.7274
5.48918 15.3886 49.6042
5.05461 16.5324 55.9938
5.72852 17.348 57.0267
5.61698 18.4173 61.5415
6.02609 16.8024 52.5585
5.4342 18.0122 60.9358
6.17447 18.6893 57.0741
5.04081 14.962 52.7274
5.77467 18.1821 55.838
5.42753 15.9515 55.3649
5.54928 17.5696 55.5225
5.82838 20.054 69.0135
6.59472 19.7783 61.2501
6.13791 18.8496 60.1246
5.78896 18.1345 58.7507
5.59793 17.8372 62.4315
6.04721 16.6325 55.8064
5.62548 18.2832 58.9991
5.94515 17.4464 59.7581
6.08215 20.0472 64.5977
5.93053 17.9055 54.2731
5.23052 17.6378 59.681
5.88306 17.2709 59.2267
5.79364 18.9375 64.4782
6.0202 18.3533 61.566
5.93896 17.4478 54.6515
5.30801 19.4716 71.7218
6.23378 16.5231 51.2413
5.41917 18.2643 61.4381
5.83181 17.8938 59.2035
5.40007 16.3422 55.3097
5.32317 18.0834 64.4755
6.37646 19.2313 57.3019
5.14216 16.9482 57.1293
5.2748 15.943 52.6429
5.22337 16.9388 56.8661
5.45085 18.2559 58.2836
5.48023 17.1865 61.7524
6.01998 17.6186 55.9081
5.18041 17.8412 60.4434
5.75585 17.286 55.3792
4.98827 17.6588 62.1081
5.43769 16.5603 58.9363
5.66852 17.9748 57.0497
5.12063 15.0733 51.9422
4.99376 17.0173 59.464
5.4066 16.9431 52.4426
4.8373 15.7842 56.4643
5.35195 17.2693 56.7139
5.15759 16.6385 58.2175
5.4201 15.3073 48.7312
4.9193 16.8975 58.6232
5.10223 16.1008 54.0664
4.93654 18.1805 66.798
5.70655 16.9925 60.7838
5.48456 16.4683 59.5488
5.6696 16.788 55.3551
5.17763 17.0507 54.0765
4.9161 16.7804 57.544
5.60784 18.0463 56.8626
5.11566 16.4778 58.9423
5.38814 17.3417 55.2365
4.82781 15.0965 58.8179
5.50002 16.5576 55.9603
5.26077 17.4534 62.783
5.81456 16.7356 53.6281
4.67284 16.0913 56.0153
5.1916 16.9094 57.3766
5.3772 16.7343 57.4875
4.89044 15.2413 49.9439
4.4624 14.3947 53.1389
4.87038 16.2363 53.6043
4.86336 15.5009 51.0703
4.4535 14.0651 51.7411
4.62064 17.0453 62.0416
5.36334 15.4086 49.6482
4.59541 15.1563 51.3328
4.47729 15.3229 53.6056
4.59204 14.8747 56.8254
4.93151 15.367 53.2839
4.67968 14.8806 51.6511
4.92937 16.2493 55.4546
4.95762 16.2858 54.9648
4.72279 16.7557 60.929
5.21338 16.9117 55.4429
4.86394 16.1657 57.2379
4.90877 16.7829 57.5151
4.89609 16.106 59.4041
5.23868 18.7254 66.4927
5.48097 16.9023 61.0101
5.06877 14.7145 49.8155
4.55205 16.3036 58.7417
4.93713 15.493 53.9553
4.64054 15.1361 51.1991
4.33693 16.262 58.3563
5.10068 15.9467 61.1846
5.48503 16.2942 54.2265
4.81017 17.3935 62.4046
5.15235 16.4586 54.4296
5.02192 18.2915 60.9627
4.71798 13.9217 52.6695
4.65283 16.2509 54.3868
4.55473 15.0416 52.2562
4.48508 15.8388 60.0028
5.47558 18.9416 61.936
4.95732 16.1457 52.815
4.34021 15.0251 58.4466
4.78183 14.7156 56.773
4.97241 15.5802 56.306
4.98911 16.1974 52.1421
4.20118 15.0258 58.1184
5.13943 17.3495 55.8622
4.3237 14.0924 50.9158
4.34441 13.7472 54.4492
4.71741 16.1468 60.0041
5.11301 17.3616 56.6006
4.63097 15.9709 58.3774
4.7908 15.8596 58.3796
5.04717 15.1434 52.4173
4.29933 15.1376 55.1774
4.68588 15.9876 60.6607
5.00208 16.0984 56.9105
5.09805 18.1514 69.6916
5.66943 16.8597 58.2955
5.07761 16.9537 59.4436
4.94245 16.3476 62.7302
5.29364 15.3053 50.6968
4.34501 15.9838 59.2535
4.92566 16.3777 58.5019
4.85723 16.0021 55.4379
4.57717 16.7104 60.2994
4.77642 13.4461 51.5919
4.51977 16.4223 58.7001
4.61035 14.9041 53.3422
4.51841 16.0808 55.8149
4.63596 15.745 52.17
4.17408 16.4156 60.8965
4.87516 16.4975 58.8138
4.34183 14.97 59.6255
4.78398 14.7378 51.0904
4.29645 16.1649 58.5273
4.4273 14.4113 57.9431
4.65041 15.0785 52.2916
4.32792 15.6827 55.643
4.62634 16.3072 61.9657
4.70005 14.4191 55.2846
4.67916 15.5817 57.8555
4.58086 15.1768 51.9956
4.18117 14.9298 58.4811
4.77744 15.6027 57.1702
4.57352 14.554 54.3757
4.32189 13.7575 53.1264
4.69255 15.9652 57.4899
4.47213 16.9394 57.5889
4.42642 14.3381 53.0795
4.21446 13.7027 51.3788
4.45624 16.9674 57.1999
4.39523 14.5987 57.93
4.78302 15.6541 55.8066
4.29516 15.4861 55.0962
4.22801 15.1109 54.6757
4.36127 15.237 57.6337
4.50035 14.1524 55.3291
4.44601 16.0224 59.1139
4.74011 16.5593 57.8723
4.49209 15.0615 60.5062
4.88948 16.0394 54.4645
4.1697 14.0046 54.8357
4.52932 15.2899 55.4457
4.16936 13.9188 50.4534
4.17577 14.6014 54.0607
4.12854 14.2567 59.4407
4.57367 16.0516 55.5499
4.11133 14.1359 50.6542
4.15216 15.8677 54.7015
3.91357 14.1695 56.8478
4.47134 15.3535 59.2621
4.50892 14.4171 51.6513
4.16092 14.244 55.3755
4.31166 16.0845 60.6337
4.62089 15.0291 52.6552
4.00496 13.0484 54.0795
4.47245 15.7594 57.7494
4.67535 15.1833 54.4995
4.12234 14.0249 59.1709
4.55217 13.7623 52.7351
4.49589 16.9793 54.3157
3.95882 13.669 53.7362
3.89067 14.1679 53.0643
4.22203 14.5392 54.4757
4.41194 15.3182 52.8704
4.05194 15.1064 59.3219
4.78091 14.2573 54.3656
4.40461 16.1304 54.6706
4.18358 13.9451 57.5815
4.40446 14.977 55.0953
4.14928 14.0538 47.9606
3.74165 13.8342 52.0632
3.85197 14.1266 55.4488
4.29283 15.8274 57.4005
4.15514 14.12 52.7802
3.97892 14.6208 57.9963
4.42298 14.6038 53.6853
4.11661 14.4213 54.3941
4.1003 15.5292 56.757
4.19363 14.4028 56.9529
3.9807 12.931 50.0154
3.80305 13.2633 52.974
4.09678 14.2612 53.9686
3.95931 14.6306 54.1629
4.04208 13.723 56.1411
4.31743 16.3751 57.7334
4.01721 13.154 51.8129
3.91464 14.6396 54.227
4.15593 15.6303 59.4346
4.22434 15.383 57.7129
4.14589 13.5862 57.6318
4.41248 15.5066 52.66
3.90847 13.7851 54.676
4.06646 15.193 56.0166
4.17243 15.2553 60.6561
4.42386 14.813 57.0408
4.16958 15.718 55.6715
4.15241 14.7631 62.4206
4.6901 16.3742 65.333
4.70592 16.1034 59.5428
4.34545 14.0097 54.0901
4.13814 15.4254 56.0821
3.95001 14.3191 51.9716
3.95799 14.241 52.2001
3.74174 13.4066 54.0701
4.00592 14.2656 57.4201
4.27793 14.2825 58.0361
4.44067 15.2406 57.2423
4.32539 15.8344 60.8501
4.45187 16.3163 59.5387
4.11503 15.3922 55.471
4.1538 13.944 56.6375
4.16433 14.0044 53.7262
4.2135 15.4131 57.9825
4.07749 15.0981 58.9492
4.29486 14.125 57.3334
4.1811 13.4128 48.5793
3.64697 14.1087 51.8682
3.89224 13.8171 57.5963
4.17848 15.2263 55.7582
4.16191 15.4619 54.0136
3.96664 13.868 58.8252
4.48401 13.0464 50.5956
3.73933 15.0862 53.0043
3.83482 13.6361 54.7118
4.00372 13.6095 50.9861
3.64033 14.9073 61.4744
4.18809 13.7472 54.0954
4.19803 15.7487 63.0994
4.5697 15.8183 51.3362
3.59324 13.8967 58.2701
4.24292 13.2748 61.3309
4.13384 13.6375 53.4924
3.86281 13.4062 52.1464
3.96417 15.9278 57.5839
4.15315 14.8403 54.0588
3.77986 13.9345 49.3013
3.42776 12.8718 54.054
3.9454 14.4525 54.5924
3.98551 13.6762 61.1856
4.14218 15.6321 64.0506
4.82278 16.2558 56.7717
4.00581 13.9693 50.6449
3.8179 15.2581 57.1155
4.08994 15.5276 57.2199
3.95067 15.192 56.2283
3.71613 14.7431 63.5647
4.34409 12.5087 48.1958
3.60979 12.899 51.5288
3.8196 14.6466 61.5576
4.52914 15.715 52.3505
3.63123 12.6153 48.8113
3.57639 13.3568 55.3913
3.88634 14.1718 55.1189
3.83694 13.7462 50.1383
3.71413 12.9419 52.9866
3.89042 12.9336 49.4424
3.74872 13.8094 58.6737
4.09987 15.9019 56.6423
4.02349 15.7075 61.1473
4.49351 13.6089 51.7754
3.75388 13.5906 57.3401
4.02996 16.1021 57.4963
3.98468 14.6504 56.358
3.93372 13.1543 49.0626
3.49422 14.0525 52.1735
3.87703 13.1149 59.3341
4.42075 15.4384 53.1439
3.82486 14.1774 57.1148
3.92133 14.3457 57.0991
3.77136 13.4368 57.237
4.18049 14.2516 61.3875
4.28034 14.8688 55.0947
4.01158 14.2042 59.6453
4.2163 14.8409 55.3028
3.67732 13.1393 51.6916
3.93191 13.5325 45.9835
3.093 11.9365 52.7461
3.97741 13.8325 52.5867
3.66392 13.7419 55.1484
3.91868 14.1697 56.0109
3.76017 12.6017 51.6107
3.79499 14.9353 57.48
3.97067 14.1404 54.8636
3.97518 14.206 57.41
4.20029 14.8707 60.6599
4.13914 13.9705 57.5233
4.21189 14.9509 62.067
4.21452 17.9009 64.0493
4.45654 14.4737 53.0612
3.8163 13.7469 52.9788
3.54619 11.9228 49.4802
3.57031 12.3426 54.2488
4.041 14.149 50.4309
3.43034 14.5795 55.9856
3.86385 12.8576 52.7203
3.67559 13.5285 54.4054
3.92688 13.4001 49.282
3.43117 13.5303 51.487
3.51055 12.8069 50.2382
3.60743 13.1274 57.6418
4.04715 14.0722 47.1729
3.58823 12.5857 54.4274
3.80083 14.5025 51.5397
3.54792 14.5091 53.3536
3.79182 12.9788 51.2042
3.72239 14.0159 57.197
3.92993 12.5438 46.3809
3.23103 12.6437 52.822
3.83696 13.2278 55.6314
3.86936 13.972 54.4986
3.82279 13.3153 55.6045
3.92798 14.648 58.1602
4.04551 13.7059 55.2124
3.81393 12.9892 49.2592
3.40384 12.7875 55.7571
3.92819 15.4349 54.7254
3.65515 12.9803 51.9479
3.62591 13.2882 54.5706
4.01193 14.783 58.5398
4.00322 13.6062 52.4499
3.53172 12.7209 55.6783
3.86686 14.0224 54.0461
3.70974 14.514 54.334
3.99557 12.7387 47.1549
3.59418 14.039 56.8885
3.97214 13.5677 50.7734
3.5997 12.7599 51.6486
3.44198 13.6667 56.3202
3.6984 13.7111 54.8414
3.93856 13.6081 53.4847
3.73708 14.2358 53.087
3.70866 14.7807 59.7144
3.99826 12.8875 54.7103
3.80187 13.5728 53.911
3.89975 14.21 53.0689
3.63152 14.1223 54.8401
3.49556 13.0095 59.0063
4.23466 14.2325 52.2694
3.70272 14.3137 52.8612
3.5174 13.888 58.6179
4.0337 13.8511 53.0444
3.63421 13.7179 48.5945
3.41629 12.5654 60.5667
4.23319 15.6417 59.4598
3.95182 14.5276 59.5735
4.18161 14.4986 54.4104
3.83442 13.0943 54.6874
3.80634 13.7067 51.7173
3.63144 13.8288 53.9553
3.61939 13.0664 53.4761
3.74234 15.0153 52.9295
3.64412 12.3458 52.517
3.84261 12.7595 51.9963
3.59488 13.6937 59.0761
4.15934 14.9098 57.3091
3.98365 13.7295 57.5236
3.87307 16.3212 59.7592
4.00076 12.9085 54.6894
3.87293 13.593 50.4035
3.44085 12.8132 53.8681
3.51693 14.624 54.827
3.63355 11.8094 49.4005
3.3771 12.8128 55.0156
4.04828 13.866 49.1137
3.63592 11.6621 48.8137
3.49377 13.141 57.663
3.85257 14.8583 56.5254
3.83449 15.9286 57.2517
4.07478 12.9168 47.8293
3.26742 14.0639 58.966
4.11547 13.3452 55.0012
4.03799 14.8483 57.8783
4.09185 13.5467 52.4631
3.59778 13.2199 56.7432
3.90441 13.7297 50.3038
3.37858 12.6331 54.8702
3.8504 15.0746 54.7438
3.91506 14.2385 53.5195
3.63836 13.6558 50.818
3.57924 12.5852 58.5528
4.00318 13.138 54.8864
3.8729 14.3569 58.7114
4.0015 15.1458 54.3724
3.71707 14.0762 60.3409
3.82247 0 0