# pn-170911/RbIIR-56-RbII-1280-1959.psd
# Power spectrum* (dif=0,1,2) (really just |FT|^2)
# NOTE: only the first half! (symmetric)
# weeks: 1280-1959
# 334 clock-days, 2 excluded
# PSD: 1441
66602.9 1.18825 0.02536
2.096e+06 52.5804 0.0477076
2.66529e+06 45.1459 0.0493852
812213 15.9912 0.0408727
551945 17.142 0.044774
329392 9.0355 0.0371515
227936 9.22259 0.0447562
156145 8.3134 0.0414842
124242 8.01651 0.046215
102946 7.80108 0.046787
71460.6 6.44653 0.0484453
73074.1 7.19448 0.0479184
50400.6 6.49463 0.048493
51721.1 6.01553 0.0477694
40467.8 6.23304 0.0554763
40454.6 6.6062 0.0485751
30216.6 5.90751 0.0513443
30336.4 6.20211 0.0550471
27094.7 5.50357 0.058013
23796.9 5.58214 0.0523123
15675.8 5.83608 0.0600431
24545.7 5.95451 0.0560587
19391.1 6.08652 0.0599696
14935 5.99693 0.0616421
12852.7 5.32099 0.0563141
12276 5.50226 0.0586286
10356 6.35423 0.0726051
10988.6 5.14319 0.0608852
10524.1 6.20945 0.0705617
9123.74 6.37513 0.0779455
7615.08 5.48788 0.0699109
8373.27 6.17658 0.0736434
8155.06 7.13044 0.0795891
6512.71 6.03511 0.0762139
7460.52 6.38632 0.0778335
6906.32 6.57962 0.0773006
6160.11 6.18304 0.081144
5978.78 6.66849 0.089436
5459.6 6.45874 0.086386
5428.51 6.58634 0.104301
4818.05 6.45364 0.106356
4123.58 6.78549 0.0927101
4643.04 6.47357 0.0945237
4191.75 6.81223 0.122388
3696.18 6.77748 0.118567
3981.97 7.24077 0.115074
3914.2 7.02066 0.103478
3973.76 7.26468 0.130842
3109.25 7.35684 0.134286
3256.05 6.38718 0.117328
3451.6 6.46182 0.132766
3349.7 6.37532 0.122611
2807.04 7.60962 0.141249
2850.61 7.52082 0.163632
2809.83 7.31635 0.143718
2972.88 6.39454 0.136849
2777.17 7.13753 0.159101
2972.07 7.09891 0.170269
2799.33 8.17552 0.180647
2534.41 7.45297 0.183408
2494.75 7.43509 0.169694
2600.36 7.49927 0.190737
2361.9 7.07126 0.185003
2559.13 8.39983 0.222619
2537.36 8.99361 0.23903
2346.26 8.1095 0.228964
2172.18 8.70619 0.263058
2430.26 8.39272 0.250288
1985.74 7.66493 0.245059
1949.57 8.03922 0.253786
1908.92 8.54084 0.27325
1783.94 8.44903 0.285049
1758.97 8.63182 0.2851
1534.87 8.26721 0.294932
1687.62 8.59905 0.286825
1756.38 9.42778 0.331015
1668.05 8.85892 0.296583
1577.49 8.82189 0.328974
1530.7 8.56223 0.306493
1454.18 9.46056 0.345861
1366.41 9.17489 0.355842
1330.83 9.35243 0.346311
1327.81 9.57522 0.392453
1162.36 9.35371 0.407809
1286.59 9.02666 0.375057
1360.9 9.08097 0.349901
998.253 9.03574 0.379364
1111.68 9.24279 0.430944
1173.75 10.3027 0.440057
1028.24 8.83556 0.408843
894.968 9.03723 0.383809
1169.38 9.39281 0.451916
1102.32 11.1013 0.522712
1063.24 9.58992 0.450868
1094.62 9.9084 0.491356
1136.6 10.8796 0.556815
945.072 10.2606 0.495931
1109.66 10.7632 0.517399
978.864 10.615 0.545829
851.194 10.8167 0.57779
900.073 9.89999 0.525855
1146.02 10.3318 0.590617
913.638 9.81738 0.539412
938.551 9.46583 0.495349
935.959 10.3438 0.594021
926.235 10.3095 0.575012
709.882 9.51786 0.548367
930.366 10.8531 0.621824
792.328 11.3926 0.669142
833.99 10.4404 0.659247
720.419 11.7332 0.774556
859.164 11.0024 0.678125
774.925 9.61099 0.642954
641.914 11.1525 0.743711
726.529 10.5882 0.721954
772.717 10.5891 0.699843
566.292 10.3221 0.723369
583.157 10.7201 0.763368
669.724 12.0049 0.808039
630.618 10.7171 0.737893
756.964 11.6414 0.832238
564.563 12.9937 0.946765
662.672 11.44 0.86115
785.167 11.6688 0.887882
702.81 11.9697 0.904855
652.496 11.674 0.898737
619.24 11.615 0.91261
542.936 10.6706 0.85842
560.58 11.5851 0.948655
544.73 11.6389 0.967629
526.342 10.6062 0.93823
582.716 12.433 1.0846
527.539 12.5179 1.13884
572.591 10.7669 0.926903
558.91 12.2684 1.05979
561.754 12.2092 1.11825
586.463 11.7477 1.0764
505.994 13.0844 1.19954
499.092 12.4837 1.15082
548.609 12.6278 1.19174
528.792 12.1456 1.2175
539.399 11.9522 1.19015
441.228 12.6444 1.25098
492.096 12.7118 1.29667
504.667 13.5583 1.44874
510.504 13.3623 1.3453
421.759 13.1347 1.4126
476.384 12.9701 1.4306
435.492 12.1689 1.29493
460.103 12.552 1.42796
425.848 12.4548 1.37358
459.835 13.4098 1.51259
443.139 12.031 1.34254
481.622 13.5865 1.5543
412.792 12.3901 1.48195
447.799 13.6812 1.53702
368.222 11.9886 1.37701
423.665 13.1611 1.57998
387.883 13.44 1.59243
372.529 13.113 1.67028
378.402 13.2648 1.66324
352.37 13.0257 1.67758
380.734 13.5696 1.75479
377.931 13.1266 1.64634
410.776 13.3325 1.73503
433.817 13.544 1.82082
382.307 15.3958 1.96584
309.869 14.3434 1.94537
422.17 13.5754 1.83637
350.23 14.1089 1.89377
359.205 14.6549 1.97957
297.008 14.6675 2.06314
293.32 14.7811 2.07087
376.355 15.158 2.16267
315.843 14.1031 2.01995
261.031 12.7942 1.8766
338.424 14.3941 2.15633
328.815 12.5077 1.91779
320.614 15.6436 2.40485
307 13.8065 2.15562
314.49 16.276 2.51202
357.077 14.6881 2.39969
286.944 15.7257 2.5052
341.511 15.6593 2.4766
321.843 14.291 2.29387
354.702 14.9067 2.49458
323.91 15.6227 2.53508
369.508 15.0477 2.53993
298.148 15.3371 2.66798
264.272 14.4846 2.40933
310.093 14.7751 2.57457
325.031 15.6297 2.67033
280.347 15.0206 2.58414
301.126 14.4944 2.55009
293.058 14.7599 2.59908
289.893 15.5405 2.77106
263.144 13.9798 2.59926
324.803 14.8167 2.71796
247.646 14.8351 2.75771
247.543 15.1677 2.80557
273.715 16.731 3.14825
257.008 14.4254 2.79456
225.981 14.8622 2.91825
305.705 15.3581 3.01937
278.232 16.1255 3.19258
219.246 14.0337 2.84863
268.349 14.3718 2.86824
261.759 14.6806 2.9835
237.481 15.4413 3.13335
254.081 15.1335 3.10227
249.706 14.8958 3.09556
272.797 17.7259 3.62336
249.083 16.3208 3.47234
263.969 16.9833 3.64339
249.16 15.7578 3.42438
241.118 17.1318 3.7693
260.737 14.4813 3.11503
224.043 14.4297 3.196
218.263 15.9115 3.64482
241.507 16.2627 3.7515
235.088 14.9744 3.39641
253.117 14.8156 3.4708
227.394 16.6861 3.93164
257.621 16.1252 3.74018
236.728 14.7275 3.49484
251.739 16.2111 3.85781
224.799 14.1593 3.42231
216.703 15.9686 3.89799
222.596 16.3311 4.04235
212.963 15.4428 3.77512
220.858 16.5985 4.11251
210.882 14.5167 3.75239
205.665 15.7468 4.08581
230.668 16.3957 4.09737
184.586 14.7297 3.91043
206.26 15.8935 4.22201
187.759 15.9482 4.10271
199.842 13.7091 3.56389
210.268 16.4357 4.45345
205.068 17.4789 4.75884
191.31 16.5282 4.48228
208.818 16.9714 4.74037
181.525 14.9115 4.07632
178.841 16.4235 4.41496
166.858 17.0194 4.80292
176.554 16.116 4.63762
184.201 16.0638 4.56378
164.784 16.3456 4.74225
184.311 19.0554 5.42286
199.907 17.1858 4.92422
165.697 16.2804 4.71736
201.704 16.8619 5.02899
161.672 15.7286 4.66464
170.125 15.7926 4.80936
192.161 16.7708 5.18324
164.126 16.195 4.92028
177.698 16.5175 5.22351
173.869 14.825 4.59323
169.4 16.8669 5.26751
168.393 16.8591 5.38633
169.891 18.237 5.71098
158.841 14.7513 4.78358
145.142 16.9317 5.30464
167.542 17.7188 5.61128
154.812 18.2939 5.9822
146.348 15.8312 5.291
196.366 17.6863 5.7699
179.576 16.3834 5.3563
139.714 17.0088 5.72776
167.281 17.6689 5.88566
175.936 17.7654 6.09543
162.713 17.0994 5.87765
157.618 17.3257 6.09656
142.214 15.5056 5.41143
148.551 15.7428 5.50286
168.78 15.9691 5.48586
134.279 16.2192 5.77043
156.945 18.6317 6.68099
147.123 18.3751 6.56169
146.774 16.4803 5.99696
133.026 16.2985 5.99733
147.319 17.6034 6.48042
145.655 16.2372 5.99398
140.816 17.3593 6.5249
118.65 15.955 5.97793
108.996 16.9561 6.48686
108.437 18.8909 6.96261
150.019 17.042 6.60854
115.16 18.9504 7.36986
99.6459 16.9045 6.47756
118.927 18.5579 7.22206
106.27 17.3226 6.75137
119.582 17.7241 7.00362
133.071 17.2894 6.76405
136.723 16.7086 6.65362
121.317 14.9629 5.91433
146.309 19.151 7.89928
121.243 15.8622 6.51076
116.719 16.6439 6.61868
139.65 17.4635 7.25325
128.742 19.3205 7.99291
143.867 19.1885 8.07366
121.954 18.1994 7.49349
128.884 17.2761 7.36079
130.42 19.7584 8.43682
127.896 17.3495 7.38194
122.261 17.3551 7.4732
118.373 17.5484 7.52376
106.569 18.2418 7.64724
156.287 18.1688 8.10759
122.177 17.6209 8.05018
117.715 16.3944 7.4752
103.753 16.7998 7.44314
103.014 16.447 7.57914
104.718 18.6582 8.42408
110.421 17.6963 7.97056
108.563 18.2051 8.21656
100.419 16.0779 7.3764
97.6645 16.2778 7.86031
127.921 16.6057 7.79625
107.057 16.6111 7.78409
99.1665 16.4256 7.99836
131.054 19.2242 8.92869
110.028 17.9915 8.69999
109.33 19.1215 9.06299
108.663 16.6755 8.08945
103.712 17.6862 8.68981
101.876 18.6734 9.05498
103.86 16.877 8.33314
95.7444 17.7146 8.71461
101.608 19.2364 9.93954
102.766 18.6548 8.95879
93.1798 18.719 9.15068
97.4292 18.4137 9.43025
93.3342 17.5888 9.00538
109.011 18.8102 9.61507
90.8049 18.1046 9.44252
91.8394 17.4142 9.01743
102.17 18.0725 9.62979
107.166 18.5222 9.6507
92.3957 17.1214 8.82558
88.0024 17.4037 9.32291
91.8368 19.349 10.3291
101.042 18.9894 10.1872
90.9302 17.1323 9.19315
99.9834 15.7712 8.66559
107.168 17.5287 9.57957
90.6277 16.7908 9.24836
99.5318 17.0742 9.68911
107.634 16.9393 9.28742
98.1286 17.7513 9.82454
101.823 19.0524 11.174
93.7063 17.296 9.44372
102.972 19.0106 10.8194
112.333 20.1143 11.3421
121.449 17.5384 10.0447
94.0882 17.1835 9.97912
102.438 17.4443 9.95636
96.6513 16.2981 9.75694
95.1602 16.4725 9.40827
93.9248 18.4489 10.4021
80.8127 19.2643 11.826
95.3639 19.391 11.5258
92.6738 16.654 9.97509
88.3286 16.681 9.63329
82.6154 16.9208 10.4368
91.0781 19.8959 11.813
86.5363 19.2206 11.5242
84.2716 20.3495 12.6393
85.6447 18.3288 11.0964
78.6351 15.1293 9.45483
87.3763 18.5669 11.4699
86.4025 19.3468 12.1563
84.3076 17.8084 11.4939
73.3122 18.106 11.4293
87.2947 19.2476 11.9318
86.572 19.169 12.0447
80.1357 17.2544 11.203
70.8307 18.1534 11.7085
82.5866 17.4796 11.1489
81.2588 21.2055 13.669
79.2366 17.2003 11.3303
76.8121 17.5501 11.5444
79.1695 16.9566 11.1253
75.9665 16.5614 11.3448
86.9625 18.532 12.3055
76.7742 17.0041 10.8298
78.9729 18.4517 12.9823
81.0523 16.4279 10.9861
87.477 17.7189 12.0886
80.6509 18.1432 12.3386
87.0622 18.9553 13.27
79.3789 17.2753 11.8883
84.8756 18.8675 12.8224
69.15 17.6489 12.9166
81.6484 19.0575 13.1067
70.0328 17.388 12.4389
80.5639 18.3736 13.0925
70.777 19.5915 14.1804
87.5728 18.9703 13.3624
80.6644 17.3149 12.8858
63.6805 16.7352 11.8016
79.7847 19.9047 14.1457
84.7443 18.8885 13.9656
66.9719 18.4369 13.3866
68.3451 17.9214 13.2603
74.8404 20.2693 14.4605
77.1636 17.6438 12.8275
70.6508 16.7916 12.7253
68.7964 18.3518 14.1011
73.0037 18.5337 13.4956
80.6746 18.177 13.6654
70.067 17.919 14.3245
80.9815 18.4372 14.1142
70.6232 18.5957 13.9338
64.1853 19.312 14.6779
69.043 17.7504 13.7061
65.5398 17.1207 13.4886
69.9183 16.8996 12.9181
65.9031 18.8948 14.5724
59.0671 18.2782 14.5149
65.3016 17.6021 13.951
65.6427 18.6865 14.8846
62.6239 18.4857 14.3462
66.9295 17.8045 14.5739
59.1092 17.9295 13.846
55.3448 16.6819 13.6531
63.9014 18.2852 14.4691
69.0277 17.5077 14.4285
62.1505 17.2033 13.8647
53.1638 17.7154 14.629
68.7027 18.6898 15.1839
70.7868 18.8142 15.1706
66.6157 19.3096 16.0496
64.4943 18.8948 15.8817
70.3761 17.7535 14.6447
60.24 17.6008 14.7458
62.1374 17.4089 14.9008
62.8566 17.8784 15.0011
71.4958 19.2396 16.9619
68.6082 18.1605 15.3792
72.0385 17.709 15.2771
69.4629 18.662 16.2372
70.6079 18.8077 15.5942
57.2244 18.0825 15.9313
66.6416 17.958 15.9706
54.2247 17.9237 15.9054
59.4519 17.5198 15.0719
56.2316 18.1829 15.9472
53.0801 17.1728 15.1561
63.5487 18.8766 16.6471
59.2462 18.5123 16.0677
72.6435 19.5937 17.6819
63.4541 16.1612 14.9862
49.6915 17.9428 15.9718
54.8574 17.7486 16.4582
70.6358 19.4159 17.7135
53.3302 18.7615 17.2501
59.1242 19.7232 17.9496
54.8524 18.9753 17.2279
53.7609 20.2168 18.8791
65.4276 17.8995 16.4741
52.2573 16.8511 15.7043
50.413 17.8584 16.907
54.8869 18.3339 17.5932
55.7321 17.7254 16.6303
57.1902 18.7997 17.5262
56.039 17.2649 16.1633
56.7467 19.0094 18.0198
56.8792 16.1352 15.0102
49.147 17.9102 17.3833
57.5163 18.7035 19.2789
54.1572 19.2362 18.4296
58.7095 17.5419 17.068
55.122 18.4598 17.7509
55.9521 17.1491 16.942
53.8767 17.9226 16.8171
48.681 18.2142 18.364
53.8577 18.7865 19.0969
59.6729 17.856 17.2942
49.1026 18.4583 18.4953
54.3372 17.3789 17.3158
53.3695 17.5501 18.3081
50.6122 17.7503 18.2831
55.4359 18.3665 18.6052
63.1167 18.465 18.8583
54.0567 17.9423 18.2761
51.1519 17.6506 18.5174
48.1946 18.4148 18.9982
52.1049 18.4188 19.2835
53.6838 19.2144 18.7941
53.3698 16.1706 17.2025
52.4969 16.709 17.1087
46.1862 16.7301 17.5076
58.5961 18.3485 19.419
52.2427 17.6705 17.9093
48.3648 16.033 18.0328
56.7376 19.4993 20.601
50.0109 18.0469 19.7146
57.3345 18.2101 18.4155
51.2657 17.7727 19.7977
54.8923 20.7854 21.9579
44.5417 17.582 19.2117
45.1608 18.6466 20.5854
47.238 17.9547 20.3546
51.5929 17.9326 19.5254
44.2614 17.7025 20.1885
47.5611 19.1445 20.7559
46.7466 17.7589 20.0837
53.9298 18.8241 20.5319
45.0277 19.0259 21.4812
52.451 18.5151 21.3419
48.9324 19.8517 20.7344
48.3621 17.2958 19.4625
51.3172 18.6904 21.7285
44.2903 17.9404 20.6579
50.588 18.5354 21.9985
47.2497 18.6043 20.9792
48.6148 17.8632 20.1961
46.9454 17.556 19.9796
44.0564 16.5541 18.6321
50.5853 17.1773 20.4678
44.0106 17.65 20.2549
46.2848 17.0115 19.5338
39.5996 15.3139 18.6578
43.7899 15.7234 18.1503
41.8942 16.4689 19.7276
47.1352 17.0767 19.9531
46.3037 15.6472 18.4907
48.2977 18.978 22.933
44.3488 17.7729 20.2096
41.4688 17.6847 20.5404
43.8145 19.1235 22.956
43.3966 18.1314 22.2903
42.6468 17.4863 22.3681
42.2326 17.5422 21.123
48.2112 18.3003 21.6242
48.8388 17.49 22.371
39.6789 16.7706 19.9496
47.9278 15.9119 20.3759
45.9594 17.1525 21.802
39.6736 15.299 18.7504
44.2945 19.2222 23.4439
37.9919 16.6321 21.22
40.127 15.5949 19.5546
43.5993 18.7454 23.3336
46.1473 17.8959 23.0858
40.0779 19.8583 24.6606
44.9124 18.6924 23.8932
42.7566 19.3048 25.0974
37.8726 16.6209 20.9842
43.5985 16.0467 20.8104
37.8416 16.9008 21.099
39.3593 19.414 25.3668
47.3729 18.0635 22.7714
42.6712 17.4774 23.0091
34.9655 16.2635 21.5904
47.5948 18.1488 24.3236
42.7109 17.1185 21.9618
43.2896 18.8726 25.3006
40.0959 18.2328 22.5175
40.4731 16.0186 21.2233
40.8042 17.3862 23.1579
45.3172 18.7912 24.5576
40.1287 16.7622 22.8569
44.9077 18.6253 25.9386
40.9603 19.4022 25.8612
43.3451 17.2589 22.4381
33.6981 17.1448 22.6191
39.4571 18.2036 25.4566
38.9378 18.3615 26.052
36.3688 17.3706 24.568
36.912 18.6052 25.0834
33.2276 19.5178 25.9963
29.3312 16.9469 24.2986
52.5761 17.9055 24.1443
35.7938 19.4261 26.5813
35.2138 18.586 25.6318
41.7542 19.5033 26.392
33.277 15.5513 22.2909
38.8567 17.5845 25.6289
40.2069 16.6002 22.7959
38.8739 17.2093 24.5254
36.4498 17.28 23.2941
36.1244 18.3085 26.8608
33.1433 16.2306 23.0497
38.2681 16.3822 23.03
37.9945 18.6034 25.9042
28.9999 16.2919 24.5097
35.6981 16.5124 24.3962
34.6981 17.4085 25.6187
35.6258 17.2731 25.0034
34.7644 17.2117 24.9494
38.3731 17.4399 24.58
34.9378 18.9983 28.1534
33.4086 16.3518 23.3212
31.9638 15.825 24.0145
38.2403 16.7493 24.6803
34.9282 14.9947 21.8294
35.4088 18.7123 27.0635
32.1664 16.3677 24.5239
37.7996 18.0654 26.9809
32.8964 17.7042 26.8815
34.7563 17.5554 26.7463
36.8376 16.285 24.469
33.2926 15.4898 22.6704
26.6749 17.4405 25.8238
37.5607 16.162 24.7793
31.3329 17.201 25.3997
34.7439 16.3015 24.2198
33.036 16.97 27.1306
37.0158 16.3973 25.1332
33.8415 18.5213 28.4698
31.3728 16.308 25.4311
31.6803 17.0138 25.1335
30.0758 15.5735 23.3689
32.0246 16.8588 25.7696
29.5129 18.3861 29.1709
31.7036 16.864 25.4371
26.9853 15.9834 26.9278
30.8511 17.9336 26.621
31.8212 14.3153 23.098
32.0385 17.4585 27.7463
29.5019 16.7546 25.1831
28.8831 16.0563 24.433
32.0192 16.9501 28.1267
31.5144 17.9921 28.7005
38.1379 17.9763 29.0653
30.1576 17.5302 27.5573
29.754 16.3695 26.2826
33.9186 17.406 27.3099
31.4185 16.4481 26.6082
28.7092 15.483 25.2485
32.3465 17.7851 28.4354
35.0703 16.2439 27.5466
32.1672 15.8451 25.6099
31.8824 16.3194 27.0541
35.8345 17.9111 27.7661
31.6038 16.8767 28.7217
34.5804 17.4797 29.448
30.5287 15.948 25.7739
30.2777 16.6847 27.6922
30.9638 16.6878 28.956
33.9971 16.1755 26.9975
34.1547 15.5804 24.9696
31.1018 15.949 27.6649
30.1462 15.1879 24.6993
32.4215 16.5136 28.3557
32.4306 16.0846 26.9526
25.5308 14.6209 26.4435
33.3695 16.069 27.7032
34.7019 16.2862 27.2997
30.7728 17.4201 29.7129
27.2189 16.7731 27.6735
32.3466 15.6339 26.5161
31.5861 17.9811 30.4979
30.9802 14.7492 26.3255
30.7342 18.0823 30.5384
32.2142 15.524 26.8251
32.8721 16.5403 28.3693
33.3472 18.0424 31.2287
30.3746 16.7296 28.831
25.4464 15.748 28.2333
34.5511 16.9579 29.3985
29.5384 16.7488 27.6688
26.051 15.3713 28.0392
29.1576 17.7796 31.467
31.6828 16.8237 28.6517
29.0428 17.1192 29.7036
24.3977 16.4156 30.9277
30.6441 16.1783 29.617
32.5324 17.0294 28.6617
27.5057 16.611 29.9135
29.4607 16.525 28.7496
30.0698 16.907 30.6726
27.1591 15.9023 28.4963
30.9298 18.1132 32.2595
29.7453 14.9454 27.7336
29.6722 16.0614 27.6902
28.8194 15.6619 29.4595
27.5609 17.5788 30.17
27.5062 16.204 30.9742
26.19 15.4286 28.1999
27.9973 15.35 26.7455
26.077 15.2959 29.8207
29.1401 16.8923 31.7379
26.1566 15.9015 28.4049
32.202 15.5683 30.0139
34.613 16.9564 31.4666
28.8277 16.3898 29.9538
31.5489 17.2335 32.7767
28.1398 16.3171 29.8344
27.3441 17.5 33.0975
29.8157 18.3 32.6481
26.3081 16.547 32.0401
26.6881 16.6152 30.0523
24.372 14.9459 29.3493
25.4552 15.4262 28.3145
28.7223 15.4406 30.8001
28.195 15.5749 30.7955
23.8552 14.1468 27.1559
30.1751 15.6394 29.0615
25.7018 15.4511 30.0205
25.9854 14.7317 29.0351
24.4924 16.1093 31.8041
30.4786 16.1158 32.1201
30.8044 18.0757 33.327
28.771 16.5463 31.7551
25.3683 14.8925 27.4843
24.252 13.6487 27.8851
25.1864 15.6031 30.0867
27.061 16.5079 31.014
24.7656 17.2469 33.628
21.4792 15.4723 31.1077
24.3418 16.4748 32.1912
27.1074 17.3488 32.0343
27.295 14.7925 30.5604
26.4641 15.2444 33.5422
21.8132 15.6462 30.2388
27.6623 16.1815 31.4074
27.0451 17.0537 32.1392
25.5587 15.1875 32.1447
25.9877 15.2149 31.0005
22.9075 15.89 31.3721
24.9454 17.1061 33.2548
23.8351 15.438 31.8894
25.196 15.7403 33.2772
26.7925 16.4448 34.5014
27.6642 16.1497 31.4148
30.1951 18.1645 37.3683
26.6633 15.5588 31.2584
26.3511 15.3992 28.5817
23.5685 15.5671 33.4474
29.9867 17.084 33.9748
23.9256 14.713 31.4945
25.0355 17.1667 35.8379
22.5809 15.3022 31.7992
23.783 14.2217 30.159
27.0987 15.2307 33.018
24.5141 15.6482 31.4738
27.8832 16.6297 32.7699
26.3415 16.2107 33.8413
21.3362 14.8491 32.0078
24.8576 16.5006 34.6322
31.0715 16.2424 33.1308
21.4091 15.4255 32.432
23.6512 15.6297 31.5202
22.5187 15.1944 32.7904
20.8349 15.471 33.8621
22.7914 15.1064 33.1713
24.2133 15.8575 33.1269
22.1892 15.8842 34.1731
20.6997 14.198 30.1263
22.7837 14.2312 30.07
24.5889 14.5866 31.9013
22.4316 15.1156 31.7597
24.8413 15.6698 36.1519
26.2513 18.392 38.1078
21.9646 17.8766 36.031
22.7003 15.1428 33.2939
21.5894 15.6121 34.5083
27.1448 15.9467 33.466
20.2806 13.1831 31.2563
23.2933 16.4414 33.8254
24.8064 14.4735 31.0088
22.615 15.532 32.3129
22.887 14.4733 33.9475
25.4494 15.982 33.6
20.5763 16.2075 35.5806
25.6922 14.6829 32.5042
24.2096 16.1481 36.7337
22.642 15.4247 34.2545
22.3049 14.2697 31.7946
24.9279 14.6538 32.0971
25.1519 15.0498 35.3689
24.185 16.7183 33.897
20.7301 14.3634 33.2179
23.5483 14.8565 34.739
21.9233 14.9452 32.1627
26.0893 15.377 37.2626
24.3384 15.1067 31.3397
23.3603 15.6174 36.1179
28.8171 13.8567 30.7495
28.0967 16.7679 37.1989
23.6257 13.7795 31.7221
25.6697 16.1571 38.0751
24.6789 15.1299 33.9831
27.5143 14.9503 33.5808
20.9618 14.6187 32.1975
22.418 15.2633 36.0772
23.3817 14.1025 32.7293
22.0311 14.5341 33.8339
23.0007 16.3877 38.79
21.4435 14.2316 32.0537
20.244 14.6195 32.2146
22.0124 14.5399 36.234
20.3487 14.281 35.2451
23.2641 15.291 35.1284
22.5047 14.8793 32.8043
21.2304 14.3177 35.5063
21.9805 15.2915 34.3057
24.0919 15.8019 39.2776
25.1827 13.8303 30.4991
20.6579 13.4706 33.1947
21.6991 15.0346 34.9929
22.6139 15.3107 33.865
21.7277 15.6743 36.1522
18.3935 15.475 37.7301
20.7803 13.9114 34.0779
24.8009 16.0233 37.9218
18.9625 14.6506 35.7762
22.5317 13.8961 33.4326
20.2093 15.972 39.0474
24.3554 14.3083 35.1678
20.5051 15.344 36.6635
21.688 14.4634 35.3334
23.1125 15.1027 34.0331
21.1087 13.6992 33.9322
20.5577 13.8227 32.8868
21.9212 15.0853 35.9199
18.6868 14.3365 33.5992
20.0294 14.5709 34.8544
24.814 14.4226 34.5915
19.5551 14.2486 34.7133
20.9169 13.2062 35.0258
23.2244 14.9243 38.1843
20.3977 14.145 35.2138
25.13 15.013 35.6962
21.7978 15.359 36.4802
19.0869 14.5221 35.7124
20.5823 13.636 35.296
19.6654 13.6123 33.6062
24.4499 14.5699 36.0652
19.9306 14.8426 35.5877
21.155 14.7598 36.3976
19.9828 14.997 36.2804
24.4518 14.5792 36.0978
19.0014 15.0869 38.2706
18.9412 15.4258 39.811
18.0086 13.8349 32.9525
19.3009 13.485 34.768
18.8884 14.2072 35.0545
21.3642 13.691 34.438
19.341 12.8635 34.4596
18.1861 14.2621 36.95
26.2257 15.1608 36.9995
21.2523 13.2335 33.7955
18.8675 14.956 38.4806
21.0882 13.3686 33.3567
20.75 16.3598 42.8111
21.625 15.1263 39.068
24.3717 15.316 36.3544
19.211 14.4006 36.5674
22.3244 14.1112 36.8149
23.9833 14.067 36.9943
22.4791 16.0752 40.4894
19.4348 12.0918 30.6771
20.9415 14.1533 38.6944
20.9082 15.4832 40.5716
21.4105 14.8575 39.3222
21.6596 15.3988 40.8744
20.2927 15.2182 38.9004
23.7722 16.5653 39.6967
34.3201 13.9124 38.4602
18.623 13.4498 38.2942
23.8868 15.5477 38.3533
24.5504 16.1078 39.6788
23.6698 12.9969 33.8295
21.3248 14.0198 36.06
20.5209 15.4556 39.349
19.0053 12.7718 33.9686
20.3509 14.0515 35.9855
19.0612 13.9592 35.378
18.0046 12.3717 33.8046
19.6275 13.0648 34.9416
17.8796 12.531 34.1483
17.4769 13.5385 37.3829
20.2247 13.8846 36.3539
19.168 13.7492 38.9273
18.0697 14.7477 36.6618
21.6586 13.5277 36.7465
20.393 14.8442 37.8671
17.9452 13.4584 34.8848
15.6983 14.5535 40.2682
17.5344 12.6631 33.1111
17.4135 13.1842 39.4788
17.643 14.1925 36.1438
16.7729 13.1274 36.8641
17.2268 14.9364 39.3448
17.5363 13.4853 36.6388
17.3192 12.1705 35.326
17.8563 14.0676 38.7042
17.9722 14.475 37.2312
18.6613 14.6045 38.8819
15.893 14.632 40.3107
19.316 13.4791 39.103
18.5168 13.9735 37.7478
20.809 14.9162 40.5262
21.3523 13.5252 39.99
23.4107 15.5031 42.1799
19.2475 13.932 36.3761
20.071 14.6624 39.1152
18.6957 15.2155 45.2012
18.6211 12.9118 34.2867
17.909 14.459 40.8285
17.5432 14.1213 38.4765
20.7785 14.0568 39.381
16.762 13.1215 36.7361
18.2897 13.5978 38.4832
18.8804 13.395 40.7274
17.614 13.4389 35.494
18.8397 13.2699 38.4357
17.5446 12.7946 36.6868
17.3564 13.5941 36.3002
18.3513 14.811 40.2923
19.1902 12.4917 36.9785
18.7997 15.0859 43.5319
17.4378 13.7721 39.6568
17.2899 14.0438 39.7996
17.1813 14.2218 36.0696
14.0372 12.6573 36.882
17.4124 12.9395 36.1177
17.982 13.4045 39.2154
15.745 12.5911 36.5929
16.7831 14.4775 41.4952
19.4462 13.3854 38.8748
19.7711 13.6098 35.3539
15.3856 13.8554 39.1932
15.8393 13.3457 39.1666
19.6816 13.868 40.3122
18.5002 14.2933 40.6358
18.4803 14.1061 40.7485
19.4326 14.3723 38.2341
18.8643 14.2323 39.7671
18.1824 11.7151 35.4139
19.4175 13.4001 39.2361
17.6911 13.6213 41.4396
14.9635 13.0976 36.9721
16.7976 13.159 37.8391
18.6174 13.2201 38.6024
16.5958 13.099 38.9157
16.0344 12.2422 38.3527
17.3033 13.6915 35.8265
17.6003 13.4959 42.261
17.9072 14.4641 41.8517
17.6436 14.4306 44.82
17.7377 14.8046 40.354
19.1428 12.419 39.9376
18.1236 14.0246 40.6263
17.5969 13.9018 38.5175
15.0444 12.2102 37.9877
19.8456 12.6171 37.6459
17.4653 13.7293 38.0964
16.6421 14.0206 41.9061
16.6414 13.5972 38.8303
16.7844 12.1424 37.1137
15.8557 13.8332 40.7915
15.1715 13.2013 40.2234
16.5546 13.5073 41.659
16.5439 14.143 40.7419
14.5731 13.4639 41.3309
17.1801 15.4573 46.976
18.0985 12.3613 39.6035
16.9105 13.798 42.5441
17.5257 13.8941 38.6274
14.9291 13.014 38.2901
13.9853 12.0567 37.4146
15.9933 12.7085 39.3677
15.9842 14.286 42.382
17.2652 12.1608 35.1217
13.0782 12.8109 40.3568
16.0842 12.9604 40.0219
14.7168 13.325 37.3682
14.4864 13.7896 40.2621
14.5204 13.1368 46.6698
18.6402 13.7612 39.4203
15.1721 12.6021 40.0134
16.4509 14.1203 41.5098
16.7679 13.6375 41.824
17.0863 12.8742 38.5427
16.9523 12.6082 41.6934
16.5485 13.1856 39.5912
16.6867 13.0273 37.1003
15.0553 12.5493 39.5825
16.2674 12.7623 41.2816
16.9831 12.8603 39.5259
15.8454 11.9046 39.0971
17.0169 13.5346 40.0813
16.0396 12.1704 37.4271
17.6446 12.3786 37.3202
14.2754 13.0317 42.0182
16.5155 13.8296 43.1339
15.5671 11.9167 36.4328
16.8546 12.6005 39.1299
15.3862 13.454 41.0892
15.5571 12.9747 41.8605
14.695 13.198 39.8785
14.7055 10.8195 33.6853
14.6276 12.2522 42.9393
14.6385 13.3391 40.7656
14.9776 13.2748 40.2179
13.6217 14.3489 45.8787
16.3128 13.273 41.1229
15.8025 13.6982 43.2091
16.59 13.4796 41.5667
15.3558 13.1814 41.0404
13.8249 12.2831 41.0265
16.7327 12.7582 40.3562
14.412 12.6037 37.9702
15.5245 12.8703 40.4016
15.2947 11.8609 39.1404
14.3625 12.928 41.9189
15.2566 11.6517 36.596
15.7749 14.0338 47.8363
17.6476 11.9823 37.4194
16.7655 12.6814 41.312
16.8824 13.5504 41.3971
17.6788 13.5944 45.4526
16.5859 12.8546 39.9811
19.8119 13.789 44.5028
15.4008 13.1574 43.2095
18.5149 13.9181 46.1571
17.5012 13.1612 41.6461
17.248 14.3686 44.3531
15.7703 12.8811 37.1943
14.6825 12.4041 41.1114
14.9628 13.0426 41.2026
14.8077 10.7071 37.9085
16.4178 12.5724 42.4084
15.398 12.2085 41.2023
14.37 13.304 41.1817
15.6838 13.8849 41.5276
19.547 13.96 44.8589
14.4648 13.0665 45.5192
16.9839 13.3039 42.0682
17.1909 13.259 42.4261
14.0949 13.2976 43.4735
15.6328 12.8099 41.9531
17.4003 12.4305 37.854
15.0072 12.5141 43.799
14.5299 13.1942 45.1193
14.7693 13.1682 41.1098
15.864 11.6802 39.1843
14.4581 12.3317 41.0049
15.0709 12.0753 37.7408
17.1546 13.3646 42.4332
13.3565 11.0582 38.775
13.2043 13.0663 42.4013
16.041 12.1801 41.5724
15.0465 13.2077 42.05
12.7123 13.082 42.0017
13.6454 11.9148 41.7096
14.4002 12.2259 42.5401
14.8606 13.022 41.708
14.9542 12.9523 42.2604
15.338 13.1543 43.209
14.5753 12.8296 43.9479
16.8052 11.9122 39.4098
14.4332 12.556 43.6057
12.8865 12.1236 38.6385
13.7143 12.4889 39.8064
17.3007 11.9385 41.408
14.2944 13.0254 43.2331
15.532 13.7864 46.5773
15.9984 12.6174 40.8273
15.4283 13.0502 45.2014
15.1569 12.081 39.458
16.7518 11.158 40.3214
15.9563 11.816 39.8512
15.1707 11.7386 36.2029
16.0487 12.4168 42.9817
15.9841 11.6059 41.2114
14.6087 11.8933 37.3916
16.2247 13.05 44.686
14.9513 12.3539 39.0155
15.8367 12.1194 43.7527
12.7172 12.2138 42.2942
15.8659 12.2907 40.7513
14.0832 12.243 44.6698
13.2224 12.7055 42.2412
14.7311 12.5972 47.1549
14.1804 13.6782 43.6582
15.469 12.9404 41.5091
13.9151 13.414 46.0736
14.7559 13.802 45.2755
15.2182 12.3658 44.9918
14.2131 13.7317 42.281
13.7303 12.3932 42.49
12.3767 12.3498 43.5342
12.8201 12.2552 44.3801
15.8631 12.9798 42.4776
12.6578 12.5604 44.5819
13.5478 13.6139 45.6906
14.9378 12.0088 41.711
13.0916 11.8271 39.4235
11.8619 13.6047 47.3752
14.5423 13.0317 44.2106
14.694 13.0858 45.6585
13.8647 12.0273 41.1403
13.7362 11.3105 39.7928
15.6097 12.1744 42.9155
16.2292 12.8888 45.3687
14.5223 13.5259 47.4604
17.0181 11.8747 39.6656
15.3098 13.0051 45.2762
14.7249 12.1612 40.9683
13.6103 11.7557 43.5679
15.4027 12.9274 43.0059
13.9818 12.4552 42.1492
13.0302 11.4181 38.6523
14.4447 12.5301 42.3422
14.6904 11.6933 43.09
13.9785 12.5466 42.1538
13.6871 12.4884 41.4259
14.9109 11.5838 44.1297
15.9372 12.8179 44.6771
14.7715 13.4345 49.1777
14.6945 12.8396 43.2614
13.2746 11.8937 42.3422
16.574 11.8207 41.7179
15.7633 12.5835 45.2813
15.1239 12.1343 43.5464
17.1566 11.6256 41.7661
14.6093 11.0414 37.6411
16.749 11.3708 39.1996
13.6474 12.0828 45.3175
11.6338 12.8963 44.8983
13.8986 11.9877 42.2817
12.5764 12.2952 45.8974
12.8473 11.963 41.9066
13.6942 11.3665 41.7531
12.0066 12.3996 40.2153
12.6129 11.2628 40.431
15.8847 10.0714 35.9029
13.7071 12.6509 44.5934
14.5453 12.159 44.026
13.6887 11.3992 41.5322
13.8732 13.2971 48.8051
13.5641 11.6881 41.9347
15.1621 12.7101 46.0113
13.9301 12.4884 44.4831
13.143 12.2231 45.9159
16.2315 12.3189 44.0105
14.7164 12.3405 47.3214
14.0554 12.9771 43.2977
14.9925 11.9659 47.1816
14.7221 12.6555 42.5632
15.3247 12.5618 47.1038
15.9781 11.7249 42.5464
14.1219 12.4841 41.8962
16.7877 11.9644 45.1927
26.5762 13.2264 42.5625
13.048 12.7631 46.2757
22.2286 13.2262 48.7726
22.2613 12.3122 43.6671
17.7223 11.4657 44.3205
16.6992 12.7515 45.2694
17.1741 12.3122 41.5506
15.8116 11.9867 45.3662
14.9809 12.0983 39.6234
12.7615 11.4461 42.865
13.5167 11.4318 44.2835
16.3227 12.7482 44.0467
11.8742 11.9157 43.2645
12.3746 10.231 42.3144
14.6464 12.9489 41.152
12.4231 11.8136 47.5145
12.4921 12.0141 42.7866
13.5042 12.1072 42.3897
12.7104 12.5346 39.6796
13.0897 12.3793 47.4414
12.2739 12.4079 41.285
12.2949 11.5779 45.7938
12.5927 12.5869 48.3696
13.0142 13.2022 48.0932
13.1945 11.1753 41.1287
12.7432 11.8634 49.2487
15.2672 12.2277 47.9422
11.8806 13.9708 44.2425
13.7112 11.9628 42.8915
15.976 12.4625 43.2314
13.5385 11.9627 46.6194
12.164 12.3639 40.8921
15.4224 11.6834 41.8904
13.3881 13.5246 45.845
14.7368 12.0329 44.7552
13.6026 11.6076 47.4716
14.9386 11.131 42.9669
13.4141 12.1299 43.8461
14.4454 11.0569 41.9711
12.9399 12.2383 44.5826
12.6021 11.8061 42.7933
12.2865 12.0582 44.4448
13.7144 11.6981 45.7521
13.766 11.6103 45.5601
11.1381 12.5151 46.1182
12.8847 10.9873 41.0844
12.9552 11.8675 44.6107
12.2878 12.3833 43.1368
14.2475 12.275 45.0486
13.0409 12.5938 46.5135
13.6039 12.9927 45.2475
13.0871 10.1692 41.6318
14.9344 11.0723 44.3673
13.6851 11.5688 39.358
12.2826 11.8168 45.9342
13.3751 12.2691 43.5197
13.6945 11.224 43.8282
11.8216 12.9089 43.2781
11.9489 10.9797 42.7996
12.7477 12.572 46.1866
13.7497 12.405 46.7334
12.4982 12.8704 48.5855
14.3256 11.4501 42.7104
13.1031 10.6648 41.7252
12.2026 11.0784 42.4131
10.5612 12.6364 46.7343
12.5142 10.6235 42.3427
12.2746 11.6351 44.6776
12.1703 11.2426 39.6095
11.869 10.0892 36.1049
12.7906 9.82368 39.9586
12.5538 10.8733 41.0381
14.6596 12.3448 47.141
14.2491 11.1239 44.3358
11.0938 10.922 41.0663
12.2144 11.0394 38.2869
13.1054 11.5105 48.6568
11.7651 12.1436 46.1329
12.9012 11.9198 47.9561
13.4419 11.4119 39.8116
15.1639 11.273 44.9137
14.1214 12.2542 47.6844
13.8678 11.0753 38.7219
14.769 11.7322 47.9678
16.1139 12.4341 43.0623
12.5616 11.4708 45.5553
14.2573 12.1284 46.5931
13.1695 11.5607 43.9638
15.8876 12.6704 46.2775
13.3391 11.7143 41.5007
14.0335 11.3624 45.4706
14.3129 11.3543 41.7385
15.3072 10.4012 40.669
12.0615 10.8361 42.9637
13.04 11.4738 42.3094
11.9673 11.7325 45.0949
12.4666 11.6056 44.5471
11.1372 11.004 41.0831
10.9174 10.9244 42.4514
12.3904 11.3079 44.6366
11.9699 11.9841 45.7065
13.487 12.6599 44.7599
10.5151 11.7496 48.8528
9.95849 12.1041 39.7972
12.8017 10.5051 42.4739
12.8822 11.2851 44.6029
10.714 11.1011 40.4552
10.9798 11.1549 43.7535
11.7078 11.5325 46.6651
14.4097 11.8668 42.7347
13.0929 11.9233 51.8163
13.3131 12.7271 45.5836
14.3408 11.0347 40.9457
11.6905 11.2043 43.9257
13.1945 11.8657 43.2645
14.2804 10.0676 38.3417
11.5387 10.5959 40.4083
13.9524 11.4009 46.7571
14.9858 11.5537 43.9105
12.6209 11.509 44.6383
11.8556 11.266 41.2261
13.3692 10.4954 42.5989
13.2677 12.3702 43.5046
13.4154 11.9474 50.6112
12.358 12.2389 45.0855
12.2615 12.1259 47.6917
14.9693 10.7092 43.4003
12.9731 11.1087 44.9014
13.9939 10.8125 38.8638
11.7088 11.2981 42.5978
12.4064 10.8429 45.4281
12.9699 11.8286 41.5033
12.3096 10.9283 44.1031
11.5263 12.1199 42.8154
13.8659 11.9741 51.4144
11.6679 11.9907 43.0545
12.5198 10.3457 42.5244
11.3399 11.5732 45.0779
10.7887 11.7378 44.5041
13.5476 10.8396 43.0909
10.2029 10.3874 43.4586
13.6645 12.149 45.5221
12.1919 11.1098 45.3031
10.0612 10.9948 40.2799
14.4732 11.4319 43.796
12.3502 10.7517 42.9671
13.0892 10.1488 43.292
11.8987 12.1097 42.7142
10.3933 11.0092 44.6501
13.4155 11.3233 41.283
11.6611 10.8064 43.6577
11.9268 11.8701 48.3105
12.5082 12.1531 47.9957
13.1891 11.4322 42.3024
13.1849 10.7869 44.3839
12.5733 12.3934 45.4829
13.2561 11.6977 46.432
12.6291 10.5449 44.1033
13.4517 10.7596 41.1156
11.9099 10.8963 43.3797
15.1373 13.4159 47.8275
11.242 10.9271 46.0915
11.8121 11.9058 48.4372
13.3082 10.8149 41.6014
12.1057 11.7644 45.6498
12.8102 12.093 44.0117
11.8476 10.166 39.7671
9.38602 10.8669 45.2905
13.8686 10.8432 41.5247
12.4978 11.2675 46.5844
10.8618 11.2409 42.9291
13.0345 11.9559 50.4287
12.8428 12.77 45.9343
12.8752 11.2186 42.6268
11.6216 11.8037 42.5054
12.051 10.3481 47.7923
12.5697 12.6486 49.311
9.87695 11.1509 40.8843
12.824 10.7364 46.1121
13.7432 12.1467 44.5653
11.0112 10.4995 40.7131
12.8029 12.2364 43.3585
12.6597 10.6014 42.1
9.4195 10.1698 46.5319
11.331 11.709 42.0019
11.6717 11.645 48.8605
12.6624 11.1449 43.6919
9.98156 11.6187 47.729
9.36909 11.7453 43.315
13.3061 11.4039 44.4393
11.2404 10.9648 45.5462
12.0443 11.736 44.81
11.624 11.0293 46.2854
11.13 11.7371 43.8051
12.423 11.8013 43.2188
11.6521 12.051 48.6022
10.8506 10.8326 42.5237
12.4838 10.7592 41.096
13.1807 9.91665 40.06
12.1865 10.8997 40.9274
12.9991 9.79893 42.2094
11.8538 10.922 42.4477
14.3622 13.0002 49.8959
12.7386 11.756 45.2767
13.5342 11.1477 41.3363
12.891 10.4719 47.1972
14.0921 10.7912 43.193
14.2463 9.69864 39.136
13.8538 11.2267 41.9197
12.7871 10.7835 44.7899
12.8338 10.9433 41.1798
12.4219 10.5813 44.1977
13.8919 10.5576 40.134
10.7659 10.5186 41.9703
12.7522 11.0665 48.0366
12.6606 11.5664 44.0793
10.972 11.6748 41.019
10.8745 11.0826 49.22
13.5435 11.4544 39.5049
12.7258 9.90745 45.166
12.2574 11.5391 39.6513
9.92894 10.6877 43.8895
9.99148 10.2443 43.0295
11.5343 11.5156 47.9671
12.555 11.6917 43.633
9.45446 11.979 43.382
11.9451 10.3924 44.8232
12.8519 11.3876 46.9367
12.8922 11.7281 42.8455
12.5742 11.8418 48.1097
12.711 12.8422 46.0585
12.298 11.3873 46.0728
11.2135 11.5873 44.0679
10.2333 11.284 52.8053
13.1992 11.6259 44.245
11.467 12.5414 45.6557
11.8836 10.3474 42.9374
12.6778 12.0089 48.6013
13.658 11.4096 43.7988
10.8691 12.0494 49.5808
14.0405 10.5165 36.9845
12.6868 10.2954 41.2941
13.0488 10.3547 46.6718
11.7286 11.696 40.237
13.5612 11.9086 48.8582
12.9846 10.9779 43.8497
11.8646 12.502 47.4018
14.6135 10.3496 38.969
12.3776 9.77109 36.88
11.9502 9.58236 44.4594
13.8283 11.4186 44.2017
12.094 11.3864 42.6735
14.8545 10.3414 46.3978
11.3944 11.8111 45.1836
13.1883 12.0001 49.7752
12.3513 11.9873 43.2245
13.2238 10.391 48.3676
12.4634 11.6406 45.4677
14.2 12.1086 43.9684
11.876 10.9226 42.758
12.0353 11.4654 46.7911
14.3245 10.7314 44.5803
12.1746 10.4767 42.6487
11.1734 11.6793 42.9257
11.4009 11.507 44.4286
11.304 11.8875 52.3733
11.9545 12.1071 42.7561
10.3365 10.6157 46.9211
10.1018 11.3266 43.7836
10.9376 11.0763 45.6229
11.1338 11.4783 44.8546
10.8245 11.9134 44.9186
10.7642 11.4389 44.8984
13.3499 10.7694 47.7069
11.5249 12.6113 49.469
13.2138 11.589 47.6713
14.4179 11.7912 45.8688
11.3451 10.905 44.9875
12.1404 11.6828 48.4358
14.8309 12.8389 54.5748
14.0109 12.3623 44.9188
13.0199 12.3429 41.7569
14.4947 10.841 44.0566
14.6811 12.1615 53.8319
15.8215 12.12 47.5527
15.3435 11.3918 44.6556
14.4419 12.7379 52.56
19.0373 12.4846 47.6388
22.0163 10.9974 40.7694
12.3307 0 0