# pn-170911/RbIIR-47-NIST-1280-1959.psd
# Power spectrum* (dif=0,1,2) (really just |FT|^2)
# NOTE: only the first half! (symmetric)
# weeks: 1280-1959
# 3 clock-days, 3 excluded
# PSD: 1441
101.694 0.081436 0.0381105
14368 0.139303 0.0615155
104333 2.09649 0.0653759
21331.4 0.875429 0.0642696
35540.8 2.54439 0.0799467
5243.68 0.87904 0.0684405
3151.01 0.512262 0.067006
4479.39 1.09107 0.074085
890.462 0.385315 0.0732011
290.585 0.121172 0.0916579
1048.33 0.5305 0.0952201
784.743 0.370349 0.0896206
442.988 0.447088 0.100822
268.383 0.249056 0.0940679
1158.61 0.928182 0.103115
557.956 0.547926 0.118712
533.344 0.757047 0.111801
266.703 0.544678 0.105421
207.344 0.118862 0.120994
271.418 0.731564 0.0985076
750.403 1.44934 0.0867238
449.937 0.963831 0.105604
481.82 0.925861 0.111052
185.008 0.838953 0.103946
119.015 0.370199 0.103274
126.201 0.305444 0.110598
328.72 0.669373 0.108843
177.615 0.907624 0.087391
236.246 0.771733 0.0975412
291.971 1.47658 0.0918189
287.984 0.827349 0.100135
103.548 0.495663 0.0939046
523.757 2.72653 0.134704
323.67 1.52782 0.0660435
76.5675 0.614912 0.0953827
75.0181 0.465891 0.0736952
170.624 1.17121 0.0987789
339.9 1.90606 0.135611
278.061 1.61916 0.119115
141.112 1.31391 0.15605
53.3744 0.367644 0.0899326
15.83 0.0806427 0.099152
118.86 0.724689 0.0644455
425.652 3.61241 0.144913
261.601 1.97604 0.0512658
143.607 1.74166 0.095433
152.41 1.79547 0.169839
143.156 2.17026 0.142459
78.0572 1.07716 0.0962414
397.996 4.97255 0.120852
249.264 2.54572 0.0772969
245.191 2.08773 0.0770645
182.852 2.09897 0.130901
165.372 2.45828 0.151973
200.58 2.23129 0.10716
63.6521 1.30748 0.084203
135.092 2.0373 0.0727915
161.174 2.43701 0.142583
155.311 2.12443 0.140494
149.818 2.34606 0.0382414
172.07 3.36549 0.178564
196.733 4.01394 0.0585775
117.693 2.61451 0.0181948
100.47 2.22748 0.0795234
129.453 2.6581 0.170101
674.719 14.4631 0.192453
101.704 1.98596 0.20706
187.856 4.16264 0.0872146
126.77 2.98446 0.131582
317.926 7.78514 0.0669863
181.536 4.33227 0.125647
675.865 15.9077 0.550511
187.833 4.31798 0.269071
196.834 4.86231 0.283303
378.645 9.43898 0.438333
268.339 7.80952 0.194295
411.048 11.4131 0.450793
188.858 5.64041 0.348565
397.734 11.2737 0.225802
85.3938 2.63674 0.149517
239.404 8.50248 0.419891
143.069 4.0084 0.222993
236.256 7.32925 0.408026
258.941 7.03101 0.445842
137.61 4.73954 0.267843
78.7724 2.37862 0.209645
199.735 7.10632 0.346852
158.396 5.082 0.210999
154.061 5.95662 0.249113
119.901 4.28282 0.25656
151.423 5.72796 0.400236
356.717 12.8317 0.634441
161.138 6.4938 0.374113
232.29 10.9542 0.566195
46.598 1.89417 0.257872
65.8843 2.75358 0.144049
362.087 14.9407 0.436356
231.823 11.5943 0.731829
466.624 22.4399 0.986128
169.629 6.10332 0.299545
28.606 0.956282 0.131074
170.952 8.25701 0.318716
121.513 5.47379 0.321964
71.4457 3.38522 0.414527
249.943 13.2497 0.826254
290.44 16.748 0.603264
145.644 6.33026 0.278586
126.773 6.71487 0.287217
97.8923 5.04225 0.395894
235.113 14.0855 1.14212
183.262 10.8994 0.528817
123.301 7.9506 0.701903
230.824 11.6736 0.894288
117.142 8.15454 0.635877
232.761 15.3304 0.742216
92.4703 5.0698 0.242289
94.2113 6.43632 0.497422
68.7458 5.18771 0.143958
149.609 11.0317 0.850792
410.396 27.6147 2.09847
262.453 17.0889 0.856243
130.659 8.70196 0.435746
78.937 5.42468 0.713902
170.532 10.9533 0.894411
69.5075 5.55531 0.334451
221.936 16.7241 1.40646
90.7605 7.44359 0.713463
345.154 23.1466 1.72684
296.396 26.3802 2.13846
391.677 27.4744 2.20699
110.161 9.38842 1.15861
85.23 6.11415 0.219058
145.014 11.579 1.25445
209.216 17.4818 2.03888
74.5933 6.57549 0.955084
93.562 7.68622 0.504002
247.241 22.6097 2.25561
109.535 9.20181 1.09243
138.33 11.2993 1.3101
130.127 11.1745 1.44182
110.152 10.5987 1.01478
211.393 20.0943 1.86717
188.587 16.7248 1.50734
119.832 12.4399 1.25162
53.6171 4.78473 0.566707
177.676 17.6483 2.2729
213.378 21.0405 1.74392
194.985 22.6139 2.15233
148.475 14.9477 1.40136
124.458 11.1311 1.1123
247.759 26.2424 2.80103
52.4152 4.96115 0.596174
142.065 16.2811 1.92897
19.1224 1.59576 0.281264
112.496 11.963 1.18316
61.2267 7.23299 1.08388
220.518 23.7732 2.74381
161.747 18.9254 1.92016
318.177 39.1932 4.98514
89.2415 8.89899 1.07155
160.818 18.6289 1.98955
46.0074 5.32996 0.927045
71.5425 9.28856 1.67285
40.5679 4.66796 0.747683
90.7121 11.4828 1.28381
46.529 7.01228 1.10926
53.8676 6.02979 0.798614
19.4118 3.12118 0.547216
82.0751 9.5398 1.45476
71.8445 8.47236 1.54142
65.3233 7.91073 1.55519
258.5 38.8701 5.50739
228.132 26.5371 4.00298
74.9307 10.2877 1.66288
125.103 18.177 2.05431
189.266 26.452 3.81992
38.6737 5.54796 0.971442
35.4163 4.10994 0.362037
227.281 35.5194 5.19471
40.3761 7.36703 0.906376
245.184 37.946 5.03895
68.1894 11.8988 2.47675
66.4039 7.8783 0.922996
49.689 8.20825 1.21184
81.0513 13.9097 2.09561
87.8273 18.2757 3.25656
94.5956 16.1851 2.30878
130.034 21.4694 3.45763
101.598 14.8674 2.26481
141.912 21.7203 3.62044
101.401 21.4776 3.6221
294.275 44.5539 6.02092
121.201 21.908 3.12561
89.8987 17.1016 2.50837
17.611 4.25618 1.25688
224.305 40.2582 6.4245
126.452 21.4817 4.61179
61.924 11.8497 2.59451
37.9598 7.29758 2.06246
139.024 24.7261 3.39295
44.2887 8.47144 1.87981
114.731 19.9659 3.49708
84.878 18.2221 3.83741
42.5084 8.73533 2.53878
68.8694 14.8125 3.14724
171.042 31.3139 6.90556
60.7177 9.73557 1.58855
103.759 22.3374 3.76568
22.0763 4.4801 1.01633
69.6688 18.497 4.35485
154.094 28.2991 5.37835
33.8573 6.80303 1.50391
66.4929 17.6306 4.17508
70.3213 19.2605 5.30223
190.129 37.5904 7.86388
62.0059 10.7354 2.33012
147.175 33.3708 7.84194
99.4544 19.7718 3.63753
93.4421 21.3227 4.01568
44.9677 9.00316 1.77267
225.528 59.1283 13.5809
64.4052 15.3312 3.84236
80.7726 16.7938 3.46772
46.1178 9.67576 1.76297
85.1364 15.3266 2.9784
101.203 23.5907 4.95551
67.597 13.1029 2.92492
70.8595 17.6325 4.15954
93.2069 21.7052 5.86821
83.9486 19.64 5.81694
22.7456 6.14344 1.57964
56.2794 13.1742 3.21683
105.81 25.7588 5.31244
67.6762 15.8489 4.85
13.6385 4.63138 0.879825
25.3164 8.85289 2.31578
71.4169 16.0923 3.66214
47.8768 11.1628 2.92619
154.027 38.7282 10.1097
54.5155 14.7654 5.18835
73.9706 15.7797 4.02512
79.0229 21.6858 6.353
76.3335 23.1065 8.62011
33.1389 8.10761 1.94057
47.901 17.5332 6.03399
77.2809 20.3239 4.5925
140.62 31.5198 6.8974
82.725 25.7114 7.13767
81.2407 18.9455 4.49421
117.95 36.1276 10.9189
148.576 44.195 12.8657
72.2029 24.2675 7.68016
68.6139 15.4203 3.97735
69.2615 21.0364 5.9331
47.2433 16.3123 5.03426
17.8976 5.54595 2.18943
159.298 45.9368 13.1562
55.4117 15.8533 4.83135
17.6997 7.53736 2.91757
32.1423 10.5686 3.71336
39.782 9.81385 2.72867
38.3272 13.4659 5.55886
29.8375 10.8735 4.43733
15.4688 4.66913 1.63636
64.242 20.392 5.34432
30.4056 12.0812 4.53459
91.2885 29.4854 10.5748
52.4829 13.7668 3.58144
47.2064 16.0838 5.03152
28.5356 10.1356 4.31278
88.1849 32.2447 10.1689
18.9242 3.80586 1.59616
178.408 58.2393 18.8643
154.693 53.7003 19.1997
91.0287 31.0676 9.54909
99.156 38.3112 15.3273
133.118 46.2683 14.35
40.1792 10.5549 3.1944
29.6816 12.5674 5.00024
80.3526 32.938 11.232
22.8965 6.27552 1.83276
135.03 52.2655 18.5972
61.1639 17.7191 6.97255
102.355 36.8149 14.4344
75.6859 28.2446 11.0052
31.5617 16.0847 8.65735
53.5154 22.1428 9.20171
55.1448 17.9153 5.99094
70.1849 24.4642 9.30671
46.4075 17.3098 5.69904
17.5317 6.84104 3.90431
53.68 26.1709 13.1075
36.2061 10.1485 3.31352
73.4261 27.8578 8.65998
88.6219 34.9082 12.2529
100.843 53.6678 25.6192
81.9375 24.5327 7.00576
84.7364 32.0919 9.99195
16.7087 5.89076 2.74087
101.724 47.7495 21.1948
137.47 46.1528 15.4821
40.6043 19.2079 9.70244
60.6285 25.4613 8.43266
36.9528 20.2767 11.5551
38.7778 12.8758 5.77049
145.57 56.9114 19.1896
62.9643 32.0367 14.3965
9.58595 9.27235 6.16065
36.7083 16.2687 6.87362
48.9776 17.964 7.95546
75.4469 29.4373 9.71923
17.6156 9.77862 4.9652
150.234 70.7621 33.7141
36.8131 19.8081 11.7696
96.601 31.7856 9.89378
57.2704 26.224 11.1026
97.4327 47.477 20.869
41.2062 19.4076 8.30619
25.7611 14.138 7.6012
19.637 7.85541 3.78703
47.6664 21.3842 10.4432
80.5975 33.0152 14.441
36.7853 19.639 9.73162
48.8235 27.3011 15.1274
28.8681 12.3537 5.88145
33.5424 13.1648 5.04133
21.9944 10.5726 4.8146
18.5532 10.7499 5.38949
32.4525 15.427 6.59953
29.8205 14.4263 7.89845
46.2561 22.3702 10.5161
35.9572 20.2008 9.17901
31.1258 12.5321 5.16131
59.8247 33.2051 17.6542
41.296 28.3581 18.7759
92.9496 39.3008 17.1787
26.826 12.1817 5.15435
95.0099 54.4008 32.1353
43.3624 18.1193 7.282
67.3948 33.1269 14.8264
46.6906 32.0875 19.5833
53.8366 24.0472 11.723
39.9665 19.1827 7.9271
24.0565 10.9408 3.88487
30.6602 14.2909 7.88761
44.9309 24.4015 13.4091
60.1322 31.5536 18.2594
44.0498 25.344 16.1683
95.329 43.9329 18.0772
35.4546 23.2357 12.7047
39.9824 28.714 16.4918
65.0466 33.5967 17.6747
24.6033 15.3523 10.8744
74.0183 39.3712 19.9401
12.9707 8.53744 7.0649
96.5813 55.5131 27.3148
28.692 14.7084 9.69017
60.9447 36.8293 22.8486
73.4682 41.563 21.1178
81.7809 49.5893 23.6757
24.8555 23.9848 18.6173
40.6515 19.1753 10.776
34.7455 22.6038 14.265
48.987 25.9269 13.7953
38.4009 31.8433 23.6544
106.388 64.1661 37.6366
38.2665 25.4595 18.0505
24.3101 8.56414 4.07297
29.2739 19.7186 15.5301
63.4541 31.8329 13.0965
31.3054 25.5134 17.2424
48.5695 36.7799 27.9738
104.738 53.2363 27.5502
87.8512 60.4521 38.3614
25.385 11.5375 6.17992
40.2634 26.9994 15.6146
33.6442 22.3446 16.2497
29.911 20.2007 12.1981
25.4499 11.6866 3.97064
10.1476 5.5946 2.44507
44.7879 33.8951 21.6859
35.5982 28.3815 22.8264
31.8466 14.9878 9.92865
33.1036 13.9191 6.2643
28.9642 20.0679 15.1464
20.3021 18.0219 16.1606
48.9103 31.1814 16.0958
26.4587 17.4572 12.0651
12.9718 9.18684 6.33685
25.4668 23.3688 18.7925
56.4604 31.9856 17.0607
41.0444 27.7001 17.4316
33.0107 30.3348 20.7152
24.7009 24.663 24.6058
95.7869 58.3177 32.1939
41.3335 32.2575 23.6697
38.9876 27.4048 18.6437
10.9058 9.33176 9.98804
52.0252 31.5198 17.9081
23.8211 19.6411 17.0078
24.2877 17.844 12.4488
9.17133 6.38297 4.86619
8.07774 4.41363 3.93764
24.9173 19.6239 15.1731
26.4512 19.665 13.077
18.6403 13.8275 10.4788
31.6207 21.1661 15.9173
52.8721 38.9416 24.4925
5.58816 9.97053 12.5898
37.1219 27.7894 20.7271
10.5494 6.72729 10.0693
58.0443 34.6801 16.0147
44.1184 35.745 22.8033
14.249 15.3368 14.4554
21.3946 12.4601 7.87681
16.9115 12.872 9.04298
43.9797 35.875 21.9273
25.7997 31.9613 31.6721
17.2894 11.7322 9.31768
21.0483 34.5324 50.4486
139.008 85.6561 44.1318
25.7672 21.005 15.5898
27.634 20.6488 13.4511
23.2215 21.6461 20.2879
30.7332 26.8561 20.7729
16.6415 15.494 17.1708
41.7144 31.7152 27.4622
32.0768 22.6078 18.4445
51.149 33.8656 19.3594
20.7208 22.5993 18.9137
14.4813 10.7765 8.93197
20.857 14.2437 9.67277
2.83215 2.33652 2.6798
42.4531 37.6642 33.5421
60.2771 56.7327 48.4583
21.3774 9.13367 4.05473
7.7923 8.81012 10.228
30.0662 25.347 20.9078
25.1613 22.7824 19.4738
27.3783 31.0758 31.1391
25.7182 16.6866 13.1167
42.3545 32.6125 21.2214
8.40549 10.3144 9.65839
8.3281 8.81841 11.0087
33.3235 20.7971 15.672
20.5116 12.4394 10.9891
41.4866 37.2695 26.2427
11.9946 22.683 31.3157
38.9908 22.0955 12.577
47.9776 41.1608 32.8441
35.2991 32.8765 31.7639
38.2183 29.2293 21.7557
40.3895 30.7615 23.1674
14.6658 18.1596 19.3021
18.334 15.5367 10.46
68.2156 79.7949 78.7174
29.9643 19.9917 19.5338
12.8797 6.68419 5.61781
9.5362 11.7649 14.012
18.6559 13.5542 12.0758
7.3315 5.25396 4.72116
28.6068 29.9359 25.2844
11.9253 19.2632 28.0112
54.7838 47.6573 43.556
17.3912 9.38579 3.9369
7.21258 3.77368 2.5744
20.77 23.8768 24.2042
31.3791 23.4472 17.0967
64.5668 71.13 63.0195
9.9937 13.8581 21.3806
21.0037 14.9254 10.2028
5.7943 9.55551 17.4079
32.2058 24.1559 14.7448
11.51 14.8898 14.7585
7.2601 6.81578 9.79872
24.7871 21.0461 13.994
15.0294 25.416 35.4745
35.7349 30.8923 24.7819
9.03608 12.9946 16.8375
6.61446 4.00965 10.3535
57.4749 48.5938 37.283
5.2311 6.17297 8.21808
12.7331 19.8913 28.1396
21.9983 15.2182 11.3146
24.8353 28.6266 34.8204
60.4972 66.6289 64.5515
19.1292 9.69838 2.91965
22.471 28.4663 32.4708
18.7897 14.4337 13.6869
29.2518 31.8112 28.1234
4.54408 6.56501 11.1533
19.85 23.4357 26.3195
24.0616 20.9702 17.8744
32.5371 33.8929 27.5384
45.2162 75.4109 97.6683
59.2251 43.2578 37.5099
20.6496 21.9251 27.0483
44.3383 45.5442 43.1929
10.2123 8.56029 8.91917
2.88297 3.87194 8.0758
26.9256 26.0605 16.85
8.16331 16.8098 21.7132
31.1764 39.7224 49.0772
30.7223 28.6686 29.4563
24.6357 33.7676 36.1847
7.79062 8.27286 12.9772
9.70729 9.38804 14.5731
7.22091 1.84355 2.01981
25.6587 28.819 26.5124
11.6673 14.0098 13.1486
10.1727 15.5266 23.5069
24.9445 17.5541 13.034
27.5994 29.3844 23.6499
6.33891 14.4539 23.4585
11.5795 6.59383 4.87542
11.8676 16.4256 22.3961
7.88277 6.84098 4.72601
7.94078 15.0602 21.6599
15.8249 18.37 27.0909
27.6062 29.3876 24.8562
16.3831 31.9098 47.9096
6.29147 4.50417 14.8935
23.5481 14.2061 3.94302
25.773 36.2109 40.254
8.15008 8.35081 11.7202
7.15015 7.38659 11.4893
17.7145 15.2308 10.8929
11.5532 24.1555 39.7993
20.8365 18.885 20.6989
22.935 20.9624 12.983
20.3984 38.0475 48.802
10.989 20.2349 40.7786
39.6909 32.8784 23.3293
18.1188 27.1501 40.567
41.5126 45.3616 48.131
34.5696 44.6919 53.498
14.9768 24.6755 49.1948
31.0719 26.7522 22.38
26.2439 32.8303 40.8702
17.711 24.3654 35.0858
14.1642 12.0269 16.0681
34.2392 41.5148 38.4972
15.3438 28.1141 39.036
14.7898 12.3124 13.3692
8.81257 10.4455 19.5439
27.669 29.8839 29.8925
19.0742 31.2627 41.3059
36.0197 37.5291 36.5006
8.24015 16.6222 24.6073
16.9479 24.4385 34.1551
6.65849 5.5941 8.86156
13.8618 18.8207 26.8172
3.28922 2.46557 6.03111
14.2325 19.3117 28.0632
25.3613 33.1431 38.9755
19.4649 24.8878 33.8034
11.6768 10.9238 15.6156
19.0193 13.3773 8.44254
44.8679 59.5921 64.0806
20.7967 34.3864 47.8483
35.6382 55.9318 82.7828
25.1496 33.3344 52.4459
12.6969 10.0176 20.2737
25.8041 32.3821 36.2577
31.8801 45.2721 64.2198
24.0564 30.1855 38.2505
28.6199 43.4899 54.0283
15.4237 25.7344 40.2246
11.0585 6.54706 13.7289
32.1465 37.8029 32.6777
6.61124 13.7457 19.3558
7.30784 16.0051 32.2302
13.5597 12.2902 20.2283
27.1111 38.5863 53.5335
20.0693 23.2699 32.486
26.1389 36.3308 38.3161
10.6927 23.0183 44.9889
25.7812 24.8053 21.0657
12.1718 19.2646 23.119
3.18725 5.74011 14.0823
14.7451 16.0906 13.6235
6.36769 23.3325 52.473
24.0726 22.5168 24.9328
17.9345 23.3998 27.8296
11.0734 15.1754 16.4663
13.1389 30.8432 57.1809
19.6378 17.6633 15.3855
4.7611 6.40307 11.8439
16.5645 24.805 29.1268
2.07756 2.7187 7.43414
11.6227 18.1018 25.7537
23.7619 36.5247 48.4338
5.74762 5.32485 10.1468
7.63605 18.309 35.701
26.9604 43.7366 71.9193
17.5987 11.6813 4.65855
16.1712 38.3887 77.5978
44.0063 50.7651 50.4274
7.27398 13.3388 23.4225
7.31836 14.1526 26.9423
7.55518 5.96515 9.59889
13.7086 19.4461 22.4583
20.0433 36.3539 52.833
11.3704 20.2638 49.6395
21.4129 25.7552 24.3256
1.554 4.99659 16.6328
5.5269 10.8561 32.9149
32.3 43.4036 54.3502
22.5335 31.6026 31.738
11.7917 18.3204 26.406
22.1855 30.599 31.2555
5.45918 10.4679 17.3764
20.1691 44.1 79.9052
16.9063 22.1346 33.387
10.4158 16.4731 21.9598
13.7036 29.5856 49.7163
5.32501 4.4164 12.3911
4.60973 2.64811 6.08296
7.16535 8.71409 11.0767
8.89566 13.0262 17.0467
8.2636 12.4235 15.4287
5.60994 21.4401 57.3623
18.4445 12.2482 9.74662
25.8942 47.9268 74.2622
9.26417 9.52551 19.2401
14.4505 21.2129 24.1797
4.04002 6.19452 12.2414
9.95907 18.9534 26.6619
2.82227 2.75878 5.6229
7.47165 13.9968 20.3696
2.3776 4.93794 17.4763
13.3201 20.5054 27.27
4.17299 12.5715 43.9536
30.885 41.5868 43.2516
17.5626 41.5101 75.9146
9.91412 10.384 29.1526
30.745 41.2787 42.0502
6.76906 21.2044 50.3572
14.5591 25.9841 56.2945
13.4926 10.8513 20.1833
18.4183 20.8021 17.5498
11.5443 16.9255 24.1355
14.6518 19.5838 16.5029
8.44241 27.1286 54.9099
10.86 16.8304 36.9973
16.7245 24.2055 37.044
8.86828 12.2163 15.3573
8.35027 16.4046 27.7151
12.8801 19.5087 30.2867
6.89513 10.5684 19.767
12.6834 26.2387 48.4376
16.7883 32.7604 48.9709
10.2723 19.0455 34.3547
2.824 3.66317 19.9412
16.873 20.8503 21.1651
2.18712 7.98525 24.401
8.07057 10.3947 37.6946
32.8642 36.774 28.7503
6.33424 16.0035 26.7656
4.30957 10.0714 33.1688
21.2044 35.1403 41.5185
6.74974 12.3697 14.8858
3.77024 16.516 50.0758
11.5776 15.3842 17.9869
5.5345 9.31808 19.3373
4.52318 10.2921 21.5257
8.26725 8.95386 8.80211
4.12696 15.2358 42.553
9.82088 11.9267 21.2075
8.94872 15.6437 20.8813
4.87203 6.89019 18.8658
24.0519 50.9545 78.5981
13.0167 26.1355 57.3863
10.1826 11.6652 17.985
9.92262 27.4483 63.1917
16.3583 16.7048 23.1169
9.67441 14.1162 18.6583
5.87943 12.7062 28.3246
16.1607 23.7451 27.4477
8.90688 20.1322 28.483
3.74056 21.0114 70.322
26.9377 42.4913 67.5659
21.5258 41.3095 61.048
5.99711 8.95684 12.188
1.49122 8.06266 26.0133
10.3313 16.1297 27.3083
8.6663 17.3261 33.5917
11.6967 21.8117 32.1921
7.11746 17.4255 39.8589
10.0768 15.7748 20.1309
4.13947 16.9323 48.9299
19.7726 50.6792 127.878
21.6687 18.1751 9.37679
3.87503 6.50246 16.3092
10.1032 22.9091 64.5287
19.0047 20.4486 12.168
8.12471 20.0171 24.8944
5.9288 19.9098 46.4774
9.87203 17.0949 29.9386
11.1114 20.5943 32.5943
4.73048 12.7507 27.1493
5.05348 12.7301 39.8203
15.1542 36.9948 92.7061
32.5189 37.2749 29.6484
7.32547 23.2747 55.6475
14.7192 30.4441 50.1476
6.61523 18.9134 61.7489
16.5981 22.056 35.4116
13.2817 23.478 33.8139
8.40592 21.0836 47.7939
19.1313 38.8688 73.1761
14.4054 25.7112 41.7215
2.7766 5.94356 28.4171
11.3608 22.3929 32.3982
8.79583 17.6211 42.675
15.8389 32.0032 67.3087
13.9697 28.5046 52.824
11.5385 13.5264 11.9478
6.34076 23.9205 60.6173
10.0143 13.2613 27.3272
11.027 19.4536 25.2813
10.3415 34.65 78.8277
10.5514 16.4364 38.5475
16.3248 32.7142 68.9038
8.75905 11.12 13.2872
4.36306 11.9675 26.3684
7.05568 12.0751 15.9612
1.50343 1.89281 6.02348
7.98665 23.4273 37.4853
1.69038 11.485 46.5317
15.7712 25.6479 38.6416
6.45144 11.234 27.2292
9.25591 27.0774 61.8841
8.9746 14.4684 36.1734
13.4981 25.2911 38.8618
2.21156 4.9506 21.2345
8.82 18.1913 37.2628
8.88523 18.8356 42.0555
12.7239 23.9141 42.8644
11.5492 28.8453 58.278
3.69505 7.02449 39.8072
14.0553 19.7933 18.4095
2.46846 5.47542 14.2547
6.43186 17.811 44.348
9.78671 16.4633 39.1437
17.093 31.4635 50.7167
11.6303 33.6946 74.4941
9.10253 12.8465 22.3373
1.69627 5.07308 29.0684
10.3315 12.4435 13.2986
10.1292 25.8141 48.1173
4.54296 6.97793 13.3614
6.84022 17.2651 33.5582
4.62099 16.4389 51.9321
9.45582 20.5195 46.4517
15.6895 32.0366 64.2316
4.7317 8.08797 22.4151
8.57604 15.8994 24.3516
2.1399 3.82754 14.1079
7.70237 25.8419 59.4264
11.8996 23.453 54.6396
8.60134 12.8456 20.0444
6.27785 15.5772 32.6724
5.85204 11.6976 33.0752
5.26529 10.6589 21.1502
8.79435 25.924 61.1197
9.01917 19.2227 49.085
11.5084 9.6532 5.72974
13.0866 40.3279 85.4908
9.49252 24.2235 76.7884
15.7355 28.0023 39.2588
4.11703 4.96033 11.7014
9.7967 27.5165 59.3953
11.0733 23.7881 59.4884
10.0337 18.4164 38.8286
11.8896 28.7113 61.5432
6.76341 12.6234 21.3689
4.98235 16.8293 40.8283
5.47491 13.9876 37.3189
2.88274 1.72872 19.9196
7.42221 12.9591 21.1121
3.41579 5.95652 31.8543
17.4783 37.0531 29.0843
2.07678 21.8521 60.4276
7.40448 13.1603 29.3934
9.34783 21.1548 32.0301
1.78239 17.4284 69.6412
6.4922 9.69061 34.2966
7.93389 13.1696 25.5114
7.93009 15.4543 29.5774
11.6342 27.938 47.6463
7.46038 27.2358 74.5642
11.9973 21.9377 47.8189
4.71065 10.9189 29.9826
8.59239 24.6152 60.4472
10.6909 29.1772 88.8262
14.0831 25.2737 68.5364
18.3988 37.4279 47.5399
3.20023 15.1602 63.0111
15.2827 29.7563 56.8998
7.25398 20.0088 66.4969
19.5408 35.1128 43.4128
2.32152 11.8044 44.9924
7.21345 10.6621 13.9867
1.24667 4.18174 29.803
13.2653 30.7908 53.6684
2.92421 6.10075 11.4101
1.18204 5.61197 31.6726
14.9137 34.9356 53.295
3.0906 20.6467 82.3432
12.2436 12.4038 13.5086
4.81097 18.678 50.0712
4.95251 11.0001 39.0425
4.7171 6.10672 33.7933
11.4031 19.9693 26.7369
7.19628 15.0523 28.8673
1.51496 4.37302 18.1266
2.81976 3.03323 28.4705
12.0698 24.3298 25.3231
2.60885 14.9616 48.4981
9.69853 25.3457 43.4415
3.00995 3.10427 6.25081
4.71369 17.6437 37.2323
2.64701 4.41088 18.1139
4.19354 12.6635 36.4611
7.30626 19.8158 40.9201
3.23768 3.54034 15.6946
5.08265 16.0178 55.1535
8.95476 19.6384 28.3286
4.90795 17.0869 38.3208
2.44449 5.15955 25.1721
8.3585 21.4873 65.2805
12.429 23.2 38.6164
6.08175 14.9978 26.1616
12.0771 43.5888 88.9058
6.74121 20.886 67.1492
5.2515 3.69782 14.0141
3.56806 6.75534 19.2722
7.12256 29.8452 78.2795
6.08012 5.34183 11.5888
4.64484 14.8687 37.2194
2.83608 4.03416 18.5204
2.65275 9.63148 49.6841
12.1295 26.1655 57.6061
7.1735 11.4937 32.3799
8.01655 18.0475 43.6249
6.82365 13.4008 28.727
1.72299 2.04266 11.7984
6.42125 25.7357 83.5905
9.58294 13.3091 36.9287
9.63758 21.8815 53.8414
9.78467 23.7066 78.7227
15.3457 21.7042 29.0645
11.2873 36.2271 64.6771
4.59159 15.9032 60.186
11.7506 26.9239 70.7302
13.1262 29.8877 48.9667
5.45568 19.1623 73.9808
9.0492 11.4205 9.79671
5.638 25.7407 62.8415
6.02198 15.1547 41.207
8.17335 30.3239 76.2764
6.79416 8.33104 15.7185
2.7108 8.7631 22.3591
5.70979 15.691 23.7767
2.19501 6.53441 13.6054
3.83044 24.2851 76.2056
7.75876 18.9229 61.1332
9.38931 14.6201 29.6118
2.1901 4.82924 18.3518
1.62959 3.32754 4.43635
1.06615 4.03538 4.47238
1.03822 8.49971 32.088
3.77251 8.89591 39.8414
8.23684 16.0255 33.6864
2.5394 9.27364 26.1168
5.02712 7.53586 27.6445
11.4075 36.9856 88.9299
3.11633 4.20244 23.5732
3.6394 6.52694 6.96552
2.10266 7.38434 15.8871
1.37999 5.25656 24.1275
5.09152 14.3072 39.3639
5.32192 12.41 27.5165
7.17272 27.4327 87.7448
11.8108 23.9028 67.3287
8.07597 13.8127 7.57555
2.03163 10.4165 29.4471
12.2374 56.1454 128.346
4.68616 9.70513 58.8957
9.02678 30.0648 82.5479
6.88447 17.5292 83.2396
10.7827 19.1483 49.457
7.5739 11.7962 5.99259
1.55192 6.05481 11.7467
2.30893 10.752 32.5152
3.39137 5.07509 20.1116
5.33807 14.7516 27.3181
3.14102 11.19 27.7489
2.26895 6.73578 18.5223
1.9771 6.25952 19.3687
2.29823 11.2347 53.7891
7.47844 13.909 32.6863
6.9517 19.9447 31.7772
2.18535 9.00078 41.6
7.34363 17.0713 36.1469
5.25255 12.7425 32.9363
3.01487 11.6752 34.5956
3.93949 13.4017 33.5729
3.36147 10.872 37.8064
7.37753 21.4643 51.4245
4.30972 14.3299 49.9418
4.3403 5.39629 9.16005
3.78475 23.069 70.5218
4.88136 4.86222 15.0457
3.0627 9.3071 42.0947
6.79538 18.1803 44.6516
3.28283 9.01952 42.1574
7.81075 13.6217 13.1839
1.01739 6.19408 28.1148
5.25445 20.5359 57.0841
4.66287 3.74709 15.8386
3.6437 10.1263 38.4645
3.89519 3.39522 15.3954
6.89408 35.0561 102.264
11.4646 20.1692 20.2569
3.57768 19.4417 55.5901
3.0552 6.09113 49.4116
7.90702 27.1861 79.6309
9.25275 12.7465 23.0138
3.34228 9.29638 25.336
4.48378 9.99031 17.6336
3.52306 11.7937 29.7323
2.00634 8.71081 25.3173
2.63369 10.2454 41.7142
6.46151 13.4059 43.0234
7.28857 21.4193 64.6815
6.05579 10.1957 32.3732
8.14953 35.0246 80.9587
7.60685 16.7724 41.3846
2.86782 9.37024 28.6704
3.02923 7.57869 28.262
4.87839 14.0253 39.2284
5.3162 13.0204 26.4678
0.992744 5.71535 34.2575
4.46806 8.77033 39.1202
5.63498 14.9025 38.6948
5.1209 6.35074 5.03445
2.70472 10.4125 22.2783
1.86132 4.6918 10.3222
1.59837 8.76155 53.2822
8.83097 19.1193 24.2024
3.53975 22.5847 69.6334
3.77801 12.1104 65.6335
7.78975 20.1204 33.5354
2.86224 7.91942 25.4316
1.91185 3.42265 7.82031
1.43355 8.95142 41.2023
4.26462 7.71872 26.2174
2.96195 7.35466 11.3632
3.65905 22.3699 75.8281
7.70781 21.6968 49.1886
3.35882 13.7842 45.7294
5.39677 17.0275 51.6564
3.7788 7.41573 26.929
6.70044 32.2576 118.056
6.06129 6.13835 55.4693
9.33909 18.2483 25.6112
2.75012 4.57439 8.18706
3.02381 9.41791 26.9512
3.68286 10.1827 20.1271
4.66702 18.8545 28.0617
1.36003 7.14348 20.5565
4.5176 17.5935 36.4321
3.10355 24.5646 112.795
7.58738 10.7806 16.5535
1.31052 6.58673 36.8482
6.60943 19.1804 56.6728
2.81984 4.07431 12.9067
3.88381 18.6724 36.5603
0.91593 7.35653 70.7444
8.52396 18.1034 34.6239
5.73208 23.5139 47.1355
2.50632 7.42646 45.2011
8.22213 24.886 49.6522
0.980305 2.63525 29.3085
3.6231 10.7923 22.5414
2.0384 13.0466 56.3036
5.13352 9.6861 29.946
3.75239 15.5719 79.7257
9.63308 24.0616 55.2371
3.72883 16.4983 64.1278
6.31837 17.2762 31.868
3.46106 8.40173 19.7478
1.20259 3.62939 16.954
2.13718 7.38673 21.5419
2.91003 7.68234 22.4105
1.92361 4.73997 18.8917
2.20589 9.31482 44.2573
5.89449 9.17659 30.7068
5.01904 11.0592 18.7308
2.39627 8.31654 13.5288
2.7955 21.2895 50.1332
2.27685 11.7903 91.7738
9.34885 29.9119 101.014
9.50725 21.4501 32.1267
1.53791 3.09137 11.7949
1.5096 5.50204 15.1805
1.99999 8.53911 29.602
3.87342 15.7664 61.2336
5.19975 19.7854 93.2237
10.2161 24.4706 43.5116
1.57132 1.84981 24.9291
3.12894 7.69855 9.86997
2.1045 16.28 76.724
7.61454 19.0071 38.7902
2.3912 4.29321 5.24059
1.00369 7.67712 42.0569
5.3436 14.3118 53.9736
4.6359 9.36328 19.037
3.36877 10.704 12.0015
1.23716 8.90077 20.5618
1.99179 10.743 36.9872
3.25619 12.6773 48.3811
4.52095 10.0236 44.636
5.47546 9.47352 15.9096
3.81854 18.1481 43.9385
2.14348 14.3444 68.9923
4.18699 4.46162 21.3474
3.69052 11.1081 35.3368
5.27292 16.5401 45.743
3.02172 7.64677 20.4078
2.49817 13.1642 56.1251
3.04195 11.4208 69.9791
6.38682 12.2959 11.4679
1.70831 10.5116 52.2975
4.64872 9.76473 37.0368
4.02551 8.99289 17.0691
1.84719 6.74389 17.4258
2.43715 11.0388 38.7795
4.46883 17.4068 62.7632
7.56117 21.3602 34.7343
1.88868 11.1665 44.5597
1.83073 3.88708 49.5033
5.18866 13.0267 21.9822
2.5807 18.7709 56.7307
3.98763 8.04448 32.3007
2.84242 8.04024 10.8081
1.15998 8.36768 25.3574
3.21238 17.1684 68.1845
4.72454 9.33522 19.3962
1.67701 8.5616 33.7243
1.64217 5.59337 45.0066
3.59362 4.54372 25.4663
2.90873 7.5981 14.2354
1.39017 5.54776 23.7676
2.26207 14.4341 75.2687
6.10373 11.3756 16.9108
1.53891 6.80565 14.312
1.00943 7.38194 51.0069
4.83747 10.6384 20.3819
1.32704 7.52373 49.0874
4.7111 4.88174 8.81238
3.26824 16.7362 19.8965
1.88561 20.8593 88.5767
6.44861 9.08808 16.8867
1.62855 11.0827 38.9294
3.85413 11.008 33.0978
1.87859 3.52762 12.6383
1.30306 8.05442 38.0961
3.55321 11.0065 12.028
1.97659 16.9411 69.5804
3.4962 4.82668 35.6581
4.11245 4.0372 5.86782
2.14919 7.79956 16.3887
1.08026 6.33144 34.6338
3.13008 10.8844 22.4348
2.35098 8.00399 17.6949
0.853417 8.19404 59.8281
4.66333 10.8985 24.1398
1.63412 5.95214 17.5354
1.81275 7.26183 23.9982
1.87102 14.5951 67.053
5.09478 17.8394 78.5297
8.5586 18.5454 26.1012
2.40239 5.7927 13.2845
1.29733 6.93854 21.1383
2.31163 7.75309 26.9861
2.06919 3.182 31.4137
3.27289 15.1876 50.6751
4.18612 9.37295 24.0822
1.86695 5.81858 14.5224
0.779941 5.73811 24.6667
3.44058 11.2999 27.4732
1.58166 6.85849 41.8252
3.95211 8.86141 64.2073
6.99903 26.6129 36.1853
1.89893 13.5758 66.7971
4.7821 8.88278 24.6923
2.69338 10.3606 29.9002
2.39017 2.96356 16.2277
2.7574 10.2537 36.4086
3.21067 11.6282 28.5903
1.73444 6.77894 26.6186
1.89278 8.22591 27.0678
2.43577 8.74992 34.4608
3.95155 17.5836 65.7914
6.02658 15.9156 36.0552
2.55415 9.33347 25.1187
0.924153 6.09356 48.7627
3.24611 6.64064 73.7459
10.0154 29.4496 48.246
2.50319 3.1723 9.54465
1.7857 9.69292 27.4443
2.46083 15.0294 64.3307
4.89548 23.7205 76.1458
5.56692 8.41022 24.4594
1.54553 3.8385 27.384
1.91401 3.69399 32.3029
6.19238 28.7604 54.4195
1.85631 9.10291 78.2119
6.35528 10.3272 14.3418
1.08548 8.84534 32.3997
3.07957 13.1431 63.5188
4.52694 15.8472 39.6977
3.71221 9.64303 24.0479
2.50281 11.8384 25.1
1.8015 15.4427 83.1546
6.81082 12.5238 38.4635
2.96567 6.8213 25.6046
2.30432 3.8972 14.4126
2.12728 7.40362 17.075
1.99847 17.5392 69.9588
3.56139 4.77102 17.0783
2.21576 9.55389 28.4433
2.30699 6.18737 22.398
2.41384 14.0467 62.3756
4.6862 12.0649 27.2479
1.31514 5.07997 49.3567
3.93247 14.3903 28.5682
2.36271 3.51244 19.2216
2.16683 15.7047 61.6694
5.61876 11.5962 30.6496
2.7743 9.40219 21.7469
1.06696 5.66492 37.0591
3.12885 8.48631 21.3533
1.83029 7.23555 14.6012
1.64309 16.3637 67.7683
4.99448 7.528 11.1574
0.681654 5.80289 39.415
2.89035 11.6605 26.7295
1.65004 7.92147 36.8509
2.98864 7.17086 42.7273
4.07622 9.33728 13.1631
1.54791 9.29871 23.5111
1.66385 10.2361 50.9191
3.59713 9.92493 17.57
0.973196 3.95282 36.9732
3.22219 5.82936 18.6481
2.12052 8.97867 18.9432
1.97174 10.147 42.2629
2.0502 8.35976 29.9621
1.93555 3.44772 33.4757
3.35638 7.65653 23.3543
1.67695 4.76362 2.504
0.551409 8.02641 38.9879
1.96085 2.95581 16.0078
1.21535 4.84232 12.5181
1.53232 5.29381 13.7104
1.22823 12.4829 32.3965
1.77452 5.77123 36.6131
1.83086 4.45075 24.0904
1.44392 1.61132 35.9392
3.60318 13.1149 21.2548
1.50598 9.05358 22.162
1.62857 6.15875 24.3586
2.53298 9.3564 12.9817
0.564578 1.55463 18.9943
2.44225 15.5372 54.1953
3.64602 5.49401 12.4676
1.1276 1.8644 10.4149
0.589028 5.52651 44.8666
3.87925 7.55822 20.1931
2.6023 9.49375 33.979
1.52059 2.56953 8.54484
0.716128 5.79703 22.5462
1.54893 5.18714 10.9629
0.604087 3.85422 40.7872
3.92983 12.7666 33.603
2.65098 4.05216 15.2099
1.8931 12.1599 58.1132
3.91297 7.77341 24.7276
3.08791 19.4339 62.7179
3.29966 9.13093 39.6939
3.09323 17.46 47.2261
2.69947 2.47205 18.4975
2.50274 13.546 41.7275
2.74626 10.2379 24.6747
1.86697 8.88737 53.8428
4.69485 12.0911 29.4045
1.71732 2.26081 12.3607
1.31262 6.50751 48.4841
4.07368 17.2033 50.614
3.05631 3.51024 9.36973
0.74331 5.16744 37.5388
3.54443 7.49802 34.1317
3.62337 17.2451 34.8377
1.60109 5.12714 65.4025
7.05163 18.7091 37.1062
1.798 6.16462 30.678
3.16023 18.4455 37.0935
2.43266 18.2539 91.6494
6.30361 9.8356 16.101
1.66512 6.60169 19.278
0.555154 4.03485 26.5202
2.00011 8.2311 22.0203
2.04311 10.4723 28.7477
1.53566 1.52635 39.0908
4.48263 18.7609 64.5555
3.75971 13.3664 45.7465
2.57706 12.6771 47.8015
4.07226 13.2806 44.646
3.11835 3.0818 11.6132
1.40813 12.1352 42.1686
3.01948 6.73885 33.7289
2.45977 10.7639 45.356
2.78388 7.21993 9.69378
0.415138 3.34462 33.7871
3.27039 11.8311 34.6593
2.34794 13.4263 59.3109
5.2668 16.9586 72.4271
5.42714 9.43666 9.55093
1.27504 5.56126 17.905
1.59289 11.0512 32.5428
2.17801 3.26515 10.5647
0.957704 9.21632 35.3117
1.93595 3.67055 8.62145
0.836078 1.14294 17.8013
1.29773 8.07901 51.3494
4.43568 9.36024 23.4053
2.40083 13.2204 25.3133
2.1155 11.0215 38.3226
2.42355 3.38631 26.8468
3.32536 21.774 37.5062
1.07364 6.56328 101.961
7.1597 11.815 5.15702
0.517949 3.18678 12.7889
1.30996 4.69001 31.3018
2.75719 11.8135 50.1707
2.71107 4.36739 11.5939
1.46017 8.81064 19.5479
0.678217 4.20367 18.1437
1.02318 10.1821 46.6879
3.72018 9.28559 32.1251
2.92352 5.34022 11.1227
0.966306 5.79371 22.4409
1.42974 7.53808 72.3354
6.00142 23.3375 43.4671
2.8352 11.2581 35.8545
1.82005 3.12093 20.8245
1.9352 7.52691 14.0269
0.620878 2.61551 48.763
3.83625 11.3314 32.033
2.70003 9.78846 41.8839
3.06335 7.30481 25.2789
2.46576 13.7102 23.899
0.920646 7.35005 63.5882
4.43632 15.013 58.0057
3.85615 14.0113 25.5017
1.60608 11.7916 51.2831
2.70892 10.6256 75.1843
5.08104 14.3228 32.0671
3.04819 9.6708 10.5962
0.94471 12.3704 55.1092
4.19456 8.68519 30.9126
2.75516 11.4651 38.6824
1.9729 7.63787 16.9444
1.01446 10.0503 72.8108
4.13277 8.47461 41.7868
2.82372 9.49281 16.0166
1.41695 7.21035 20.0289
1.06647 1.45308 13.2755
1.02771 7.42504 24.9512
1.87328 6.45589 47.766
4.4061 16.8767 36.9893
1.59356 5.72621 25.2002
1.57527 4.33072 14.8697
1.15635 9.5269 18.5073
0.994472 5.8392 48.2498
3.0498 3.36467 40.69
2.89351 14.9194 61.5065
4.11675 7.02217 31.7575
2.83774 21.1296 72.268
3.71529 8.38584 17.9307
0.844735 9.36108 32.5643
2.82858 6.21781 60.3292
4.12407 23.9967 61.5738
3.61977 3.2792 62.4751
5.44157 15.9696 17.7936
1.39293 16.3642 65.3683
4.28927 7.61917 25.4501
2.23085 4.29036 19.1313
2.07459 10.055 12.9419
1.24646 7.99114 53.9357
4.1265 14.0544 26.7754
1.35602 6.19794 64.1203
5.59272 10.3221 20.1365
1.59348 8.67354 20.3576
1.16423 0.951827 24.1466
2.48617 8.48369 32.6227
2.77098 10.8386 12.6112
0.817794 12.1655 55.0713
2.69048 13.824 31.1925
1.40155 7.48389 72.5272
4.62536 9.36457 33.2247
1.83607 2.39227 24.7797
1.79811 4.58823 9.4206
0.712863 6.53692 19.3801
1.3788 4.65806 50.1117
4.24858 9.81405 8.38178
0.937611 7.14953 15.9536
1.99448 24.3862 93.5974
5.47997 13.0496 40.1945
2.10842 6.46275 15.4613
0.470286 1.55783 26.2857
1.39627 5.24403 48.6535
4.53926 13.5442 14.0929
0.702358 3.83264 13.4352
0.935528 4.19883 14.3178
1.41988 8.54286 24.1719
1.11577 7.95477 47.669
3.76499 3.52384 18.4478
1.5838 3.43453 42.9604
2.614 13.3834 33.4911
2.07232 7.43202 28.1487
2.08539 2.93328 18.785
2.2309 13.9151 57.0809
2.74715 14.3792 45.9933
3.02642 7.64029 55.5097
4.67321 15.0959 65.4897
5.16626 5.77297 19.3377
1.58689 7.6143 23.1325
1.64838 11.0528 27.9707
1.05108 3.47165 20.8269
1.4068 4.82292 17.3606
1.50551 5.33939 8.45805
0.581219 7.49703 29.0277
1.56651 4.43279 10.6015
0.430958 8.35128 35.6822
2.12718 5.03147 19.4982
1.86351 3.26221 14.8374
0.698929 5.66773 21.0923
1.03297 3.92965 13.453
0.846625 2.32386 4.92293
0.577546 9.40311 67.6381
3.7048 16.3674 31.7487
2.4126 15.5648 124.847
7.55597 10.6583 22.6954
1.16103 8.85887 31.5058
2.23632 12.9191 9.56014
0.718991 6.47114 63.4536
4.43059 13.103 40.4044
2.45509 5.14137 19.4469
1.31875 10.7472 37.9392
3.07301 3.5436 24.7919
2.02955 2.72117 7.91233
0.51045 9.1874 49.5379
3.69505 4.87038 31.1293
2.76848 14.1061 33.0783
1.93928 1.17582 18.1174
1.85913 11.2849 40.4418
3.17722 5.51709 13.3874
0.929597 6.43167 24.3968
1.48377 7.3324 10.0842
0.856627 5.58226 35.8955
2.55658 8.33953 14.0799
0.777266 1.62891 18.5447
1.44619 17.7464 42.9956
2.28318 9.75101 35.4078
1.80557 3.42755 58.1887
2.92406 10.7618 65.6634
4.3199 6.41416 11.2627
0.8109 3.77581 14.3249
1.31123 9.27646 20.0985
1.27887 2.17409 28.1658
2.08243 3.85019 38.4774
2.32164 7.25039 4.55642
0.444097 8.79461 10.2592
0.796317 9.66225 58.982
3.59166 3.48557 25.591
1.43846 6.08093 8.07084
0.654649 5.76992 73.8933
4.27222 12.6352 5.10147
0.622752 4.99566 9.85944
0.796696 13.2469 49.8366
3.1014 1.4848 10.5751
1.33299 4.80697 18.9206
0.943034 5.2861 49.6425
2.48002 12.0776 75.6678
5.65192 23.4361 23.1317
1.1104 2.68098 11.9241
1.21972 6.81797 30.2666
2.04406 3.21246 31.6006
2.24976 7.53103 32.7121
1.5974 4.38385 36.7352
3.14561 16.3921 33.8333
1.37493 2.20794 6.35087
0.751822 3.15196 37.6361
2.25239 15.0981 55.2513
3.52321 7.31908 35.3095
2.61957 6.47486 26.4215
2.08605 16.8761 35.6655
1.99618 8.44104 51.2458
3.22487 11.1754 95.8792
6.61426 22.5606 38.7198
2.60055 8.40827 34.5783
2.85875 4.98335 3.44815
0.375496 6.16798 46.4895
3.27534 5.07968 22.0159
1.71956 6.69371 17.9104
1.58181 7.6329 19.8925
0.715487 10.6823 76.8416
3.72474 7.1585 37.867
2.32622 12.5264 28.0466
1.70149 5.37555 17.1598
1.68885 5.04043 13.7116
1.44532 10.9612 32.1545
1.76241 3.82344 32.7757
1.68903 6.92081 16.5949
1.36603 10.7808 30.7218
1.98638 2.3971 36.6866
3.2377 16.0928 39.4528
2.20948 4.61388 5.324
0.297173 3.50903 31.3182
2.36989 3.72456 47.2293
3.25135 8.73614 11.9508
0.831006 2.88707 23.7535
1.81857 11.4185 18.3899
0.879944 5.07449 71.9852
4.22111 19.2976 28.0098
1.2351 0 0