# pn-170911/RbIIR-50-RbIIF-1280-1959.psd
# Power spectrum* (dif=0,1,2) (really just |FT|^2)
# NOTE: only the first half! (symmetric)
# weeks: 1280-1959
# 1806 clock-days, 735 excluded
# PSD: 1441
817.636 0.21564 0.0343422
35789.4 0.559838 0.053481
203858 5.56311 0.0489456
27512.6 1.03651 0.0479276
97263.2 8.50117 0.0501308
9732.65 0.888538 0.051234
9765.54 1.8969 0.0513687
4906.24 0.871678 0.0475852
5316.04 1.6314 0.0504332
3061.95 0.868629 0.0476254
2796.12 1.14112 0.0493967
2083.7 0.999165 0.0489672
2153.71 1.16645 0.0493615
1525.3 0.953185 0.0527103
1318.12 1.06278 0.0523227
1245.41 1.06654 0.0503142
1094.37 1.17561 0.0507232
958.316 1.06719 0.0501647
959.81 1.24254 0.0515126
818.84 1.16699 0.0506528
804.257 1.28244 0.0561374
679.972 1.19195 0.0535507
654.378 1.31888 0.0559179
612.035 1.28533 0.0572177
588.356 1.43569 0.0569814
526.564 1.33988 0.0558827
505.955 1.41427 0.0569229
509.618 1.45338 0.0557354
485.661 1.58577 0.0606912
451.95 1.5881 0.0577364
454.547 1.71995 0.0600446
424.971 1.64807 0.0559069
442.989 1.78649 0.0622456
368.903 1.70618 0.059222
357.216 1.74168 0.0590119
385.233 1.96915 0.0615117
350.948 1.89652 0.0659148
341.555 2.00723 0.0625695
337.152 2.09364 0.0614695
351.558 2.2575 0.0652045
332.999 2.22716 0.0693691
299.184 2.20396 0.0691732
320.132 2.35237 0.0647148
307.867 2.50113 0.0713953
290.225 2.37156 0.0673504
294.96 2.60968 0.0789237
289.045 2.67873 0.079106
282.255 2.67488 0.0770951
284.715 2.86149 0.0821554
271.749 2.81673 0.0867882
264.437 2.89504 0.0849624
269.378 3.02669 0.0851553
265.883 3.10687 0.0902036
258.863 3.05176 0.0943443
244.519 3.20927 0.0975723
247.21 3.28798 0.098868
257.461 3.50687 0.103092
246.015 3.45527 0.102392
242.498 3.6138 0.107294
234.893 3.61361 0.110139
238.342 3.71992 0.114431
229.421 3.69628 0.114538
237.269 3.96838 0.123152
217.199 3.88957 0.124209
227.909 4.07801 0.13104
212.807 4.1112 0.136566
217.987 4.20486 0.142797
214.672 4.38859 0.146588
212.945 4.38295 0.148589
206.263 4.38615 0.152621
212.41 4.68263 0.162335
206.814 4.70971 0.165913
206.795 4.80994 0.169417
205.138 4.85711 0.171337
207.381 5.0298 0.183617
204.972 5.13466 0.191228
213.105 5.53591 0.19634
192.53 5.18496 0.20135
200.77 5.35701 0.210917
187.576 5.25392 0.207831
193.386 5.5494 0.226612
192.267 5.70232 0.221314
184.529 5.79214 0.232994
195.666 6.2194 0.253027
181.076 5.88687 0.245568
187.288 6.10767 0.265638
180.103 6.01875 0.261406
173.549 5.99435 0.265329
174.111 6.14896 0.269076
166.805 6.12948 0.290011
179.671 6.64289 0.307142
173.872 6.65914 0.301379
172.189 6.62473 0.31522
164.733 6.57876 0.318586
167.722 6.83003 0.330975
168.392 6.91264 0.347247
179.683 7.5232 0.370156
162.52 6.91414 0.360171
158.725 6.99504 0.372429
175.693 7.6843 0.398245
170.54 7.65852 0.411394
170.59 7.92738 0.436518
159.455 7.46836 0.415922
161.887 7.82861 0.432328
159.518 7.82218 0.446614
157.267 7.83569 0.451054
163.842 8.2564 0.476438
163.599 8.60658 0.513217
150.382 7.86391 0.48346
151.519 8.18245 0.509366
150.463 8.25248 0.52125
148.409 8.42334 0.534666
139.313 7.9907 0.517306
147.309 8.67938 0.573504
153.214 9.18071 0.611382
144.698 8.74588 0.599379
145.577 8.98033 0.623452
149.325 9.45904 0.655351
144.573 9.29299 0.653921
147.024 9.46702 0.693371
144.405 9.47497 0.678804
145.313 9.83768 0.735723
139.39 9.57321 0.727491
138.523 9.5693 0.726554
143.976 10.1527 0.778342
140.317 10.0004 0.793966
141.778 10.5541 0.831741
133.615 9.89791 0.793303
136.812 10.3595 0.839055
137.236 10.4948 0.867376
134.222 10.4327 0.883569
135.589 10.7959 0.914752
138.627 10.9492 0.937855
134.675 10.9327 0.962337
141.115 11.7543 1.03709
130.475 10.9401 0.97742
128.785 10.998 1.01054
132.454 11.3055 1.04897
130.201 11.3346 1.07322
133.416 11.7884 1.11657
132.797 12.1013 1.16185
126.28 11.4891 1.1194
125.813 11.6835 1.16064
125.36 11.8544 1.18162
129.143 12.3695 1.25342
118.097 11.2528 1.13675
123.198 12.0385 1.25576
124.46 12.5007 1.31283
122.214 12.2512 1.30463
121.576 12.3753 1.33605
118.833 12.2796 1.3595
120.974 12.4282 1.36172
121.271 12.7405 1.43021
121.026 12.9992 1.47925
116.815 12.6714 1.44765
116.146 12.8276 1.49939
118.308 13.3037 1.56315
116.159 13.1768 1.55947
119.893 13.786 1.65399
111.433 12.9915 1.57965
122.158 14.37 1.74784
116.452 13.9259 1.73178
112.335 13.5623 1.71916
112.609 13.8798 1.78411
115.157 14.3834 1.86396
112.696 14.092 1.84567
113.663 14.3793 1.90202
113.553 14.5253 1.93169
113.842 14.8255 1.99091
114.777 15.0561 2.05907
113.332 15.0077 2.06654
111.317 14.9406 2.06908
105.672 14.6549 2.09108
113.67 15.6282 2.23357
109.113 15.1994 2.20218
107.054 15.0953 2.21995
111.824 15.9768 2.33485
108.416 15.8153 2.37982
109.772 15.9801 2.39505
108.539 15.921 2.4229
109.761 16.4701 2.51669
110.792 16.5611 2.59109
105.076 15.8759 2.49007
103.382 15.8205 2.52997
104.265 16.0786 2.59335
108.641 16.8104 2.70023
103.22 16.4856 2.69631
105.836 16.8161 2.78746
101.959 16.3091 2.72272
107.398 17.2808 2.93933
98.4414 16.2987 2.78001
101.498 16.7701 2.89466
102.413 17.215 2.99141
101.456 17.4415 3.09398
101.341 17.3846 3.07926
102.268 17.8233 3.18186
102.721 18.1425 3.29361
98.4865 17.5007 3.22424
92.1468 16.6495 3.10058
98.7049 17.8912 3.33238
95.8707 17.7806 3.34011
99.4908 18.5568 3.54043
100.257 18.6822 3.54942
91.839 17.3981 3.38605
100.502 19.4679 3.82408
90.4577 17.4633 3.47976
97.2632 18.9547 3.79245
94.2718 18.4756 3.72825
96.7758 19.2986 3.91844
90.1484 18.2555 3.7791
86.9448 17.5471 3.65527
92.0433 18.9848 3.98501
89.2141 18.2989 3.84162
90.9964 18.9212 3.98817
91.397 19.4031 4.20082
93.2679 19.7912 4.28767
90.381 19.5496 4.3067
90.709 19.6511 4.34218
89.9104 19.6043 4.36066
85.4487 18.9109 4.28964
87.3223 19.4786 4.40663
84.0626 18.6657 4.26536
87.0103 19.5391 4.50415
85.387 19.4711 4.54123
85.4316 19.6288 4.61511
88.3025 20.6745 4.92408
87.0835 20.3319 4.85414
86.3633 20.3792 4.88367
87.504 20.8059 5.07954
87.0985 20.9359 5.09241
80.7002 19.7169 4.92043
85.1491 20.8808 5.21634
83.0564 20.641 5.19885
80.7126 20.0776 5.09116
82.4001 20.642 5.27196
83.3855 21.2607 5.48533
79.0798 20.3606 5.34489
80.9101 20.7146 5.44939
79.4627 20.6339 5.49168
80.3566 20.9269 5.59741
81.5713 21.5264 5.72607
78.9911 21.0599 5.74033
81.6576 21.8362 5.96502
79.0343 21.4989 5.89213
79.273 21.5102 5.98464
77.0914 21.1805 5.95622
83.3634 22.8666 6.45142
80.6199 22.5749 6.46378
79.3546 22.4512 6.41332
77.5698 21.8867 6.31759
76.6401 21.9105 6.41719
79.8868 22.8908 6.73193
75.9349 21.893 6.43584
78.4888 23.2035 6.97593
76.8176 22.7019 6.7669
75.4629 22.2498 6.67776
74.852 22.3998 6.87507
73.3875 22.0055 6.73497
74.6413 22.6014 7.02573
75.8587 23.2114 7.19151
72.3822 22.1867 6.95989
72.2799 22.3281 7.05211
73.4749 23.0846 7.36237
72.7148 23.1385 7.54221
73.4256 23.2431 7.44493
73.8403 23.5829 7.65647
70.054 22.7231 7.43588
71.28 23.1366 7.59514
71.552 23.4181 7.80587
71.5366 23.8905 8.16388
74.6273 24.5129 8.17691
71.1643 24.0705 8.26742
70.0165 23.6346 8.08665
70.0886 23.5869 8.06717
70.644 24.0485 8.32287
71.5747 24.712 8.6728
71.0033 24.4875 8.56831
71.1689 25.1424 8.98904
67.7198 23.6198 8.3817
69.5524 24.3363 8.69516
70.0374 24.9155 8.97904
71.0778 25.6693 9.41779
68.661 24.9328 9.11507
68.6414 24.761 9.14003
65.1174 24.1164 8.98204
67.2653 24.8964 9.31066
68.1996 25.2329 9.50313
65.8417 24.9136 9.50757
67.8281 25.8406 10.0667
68.9467 26.1086 10.0125
68.9089 25.9983 10.0311
64.9865 25.0118 9.8659
67.6843 25.7757 9.98654
64.5142 25.1097 9.98509
63.5885 24.9438 9.95511
65.1897 25.4169 10.0823
66.2352 26.3199 10.5346
64.9665 26.1704 10.6605
64.7663 26.1937 10.7701
62.9011 25.7679 10.6775
61.1067 24.584 10.0831
60.8947 25.4338 10.7768
62.5354 25.6977 10.7953
63.5446 26.4124 11.1895
61.5759 25.8818 10.9516
61.4949 25.6292 10.8226
61.7557 26.1807 11.2999
62.656 26.8735 11.6856
63.2099 27.0684 11.7724
61.3601 26.6263 11.6757
58.0581 25.0301 11.0564
58.1772 25.4033 11.28
59.6196 26.291 11.6738
57.2802 25.6905 11.6541
60.1262 26.6444 12.0899
59.1574 26.3987 11.9401
60.4241 27.0545 12.2659
59.8906 27.4743 12.7951
59.1249 26.6659 12.2535
58.7295 27.0082 12.6245
59.4538 27.1467 12.6103
56.3387 26.5258 12.5696
56.9539 26.6691 12.7207
58.3742 27.2724 12.8423
58.3999 27.5412 13.0966
54.2075 26.1961 12.8013
55.0411 26.3357 12.907
55.7135 26.9933 13.2266
57.7295 27.6355 13.3703
56.4924 27.618 13.5958
55.1437 27.2645 13.6106
55.9585 27.506 13.7542
55.1324 27.2535 13.709
54.1217 26.912 13.6688
53.7058 26.9633 13.7062
53.1418 26.9983 13.878
54.8597 27.9603 14.2686
54.1661 27.781 14.473
55.3385 28.0079 14.4144
53.4467 27.4908 14.3917
51.7404 26.6972 14.0954
54.0443 28.1534 14.9539
54.7715 28.6153 15.1563
54.5197 28.7288 15.3406
52.2868 27.6581 14.8769
50.6304 27.0705 14.7022
54.4261 29.1907 15.7728
52.8872 28.4542 15.6146
50.5172 27.582 15.2213
50.789 27.7479 15.4154
51.1512 28.3346 15.9914
52.9663 28.4655 15.6385
50.5823 28.1549 15.8923
50.8171 28.0861 15.8955
49.9099 28.2819 16.1787
49.8221 28.3264 16.6495
54.3987 30.2506 17.0113
52.4061 29.3392 16.7088
50.8571 29.2136 16.9115
48.3352 27.8818 16.4181
55.7771 32.1268 18.5492
50.6402 29.4005 17.3267
49.7847 29.1197 17.1887
47.7108 28.2034 16.8542
49.443 29.3459 17.5178
49.8558 29.6009 17.9778
50.5153 30.2075 18.2905
47.8659 28.2774 17.1265
48.0848 28.9623 17.6643
46.6664 27.736 16.7034
47.4042 29.2346 18.1073
47.061 29.1132 18.277
47.5888 28.9347 17.8694
47.8636 29.7132 18.6394
45.4891 28.1911 17.9121
47.418 29.7474 18.8389
47.5975 29.5724 18.6
45.4757 28.9391 18.6757
46.6247 29.5838 18.8802
44.8492 28.8286 18.7609
45.0708 28.4279 18.4499
47.0838 30.2991 19.6668
45.8505 29.8262 19.5362
45.7559 29.3106 19.1289
44.4326 29.5735 19.8925
45.585 29.4616 19.3056
43.7597 29.2767 20.0037
47.2185 30.6432 20.3184
44.5494 29.9834 20.4667
44.2427 29.4624 19.9547
43.4123 29.0868 19.7841
44.0818 29.834 20.5335
41.7161 27.9091 19.1516
43.802 29.8626 20.6161
44.5048 30.7222 21.6383
43.8961 29.8894 20.7433
42.8014 29.4226 20.6888
42.3315 29.0262 20.243
42.6529 29.7584 21.079
42.4529 30.0091 21.5772
43.126 30.0185 21.0894
42.0445 30.1288 21.7299
40.884 28.8612 20.8287
41.2584 29.6675 21.5434
43.2978 30.8809 22.0762
39.5132 28.6266 21.0058
42.5246 31.2082 23.0447
40.3761 29.5963 22.0981
41.3658 30.2631 22.465
42.173 30.915 22.8897
40.6977 30.1774 22.582
40.0501 30.0258 22.9475
41.4007 31.0118 23.5659
39.7176 29.6362 22.5511
39.8673 29.525 22.2861
40.2478 30.4218 23.1115
40.264 30.677 23.6419
39.004 29.6717 22.882
38.5721 29.7633 23.3297
39.4178 30.1525 23.7706
41.058 31.5216 24.3221
38.5334 29.9169 23.5687
38.6843 30.1807 23.9226
39.4205 30.5237 24.1454
38.4743 30.0483 23.6731
38.7389 30.4466 24.2858
38.133 30.6096 24.6728
37.8519 29.8733 24.0754
37.3965 29.8296 24.3603
38.9419 31.1218 25.1383
37.4187 30.1869 24.5641
37.3495 30.9193 25.529
36.0316 29.4148 24.5376
35.1305 28.8429 24.1889
36.0664 29.1384 23.9974
35.4681 29.6961 25.2561
35.6675 29.08 24.3546
36.5731 30.4029 25.6419
36.856 30.4285 25.5209
36.5906 30.4879 25.917
36.0981 30.3019 25.8241
35.6861 29.6166 25.1338
36.8423 31.6542 27.1208
35.0535 30.0443 25.9248
36.1028 30.9831 26.8328
33.8419 29.0863 25.6092
35.3119 30.4416 26.4893
34.3624 29.9013 26.4565
35.1924 30.3186 26.626
33.5205 29.339 26.1948
34.4035 29.6097 26.11
33.636 29.7171 26.5109
35.36 30.8567 27.1961
34.7161 30.4056 27.2575
34.9413 31.1958 28.1607
33.8446 30.5947 28.2832
34.0167 30.0307 27.1968
33.5292 29.8093 27.1122
34.2441 30.8217 28.126
33.5008 30.3004 27.8228
33.3613 30.5611 28.1493
32.0699 29.7339 27.9805
31.7403 29.1021 27.3269
31.3254 28.5021 26.622
33.5696 31.1724 29.1524
32.762 30.1511 27.9973
31.8403 30.428 29.3028
32.5303 30.3418 29.0238
31.2049 29.1386 27.7085
31.2155 29.9056 29.0762
32.9092 30.8956 29.6146
31.69 29.9852 28.8038
30.2251 28.7984 28.4484
31.5544 29.9633 28.8538
32.4156 31.719 31.1918
30.6723 29.1198 28.7238
31.5394 30.9079 30.7176
31.0853 29.4769 28.8006
31.2817 30.7666 30.8439
32.7595 31.7703 31.4024
30.9196 30.0363 29.6663
30.9274 30.8739 30.9781
29.9671 29.7357 29.97
30.9407 31.1162 31.4649
30.9017 30.6953 31.2759
30.0718 30.0175 30.484
29.5817 29.5231 29.9788
30.3449 31.0782 31.8532
29.9776 30.6959 31.9298
30.2147 30.4369 31.0658
29.6757 30.5361 31.494
29.1018 30.2342 31.6751
28.7533 29.724 31.2389
29.1495 30.0365 31.196
27.8991 29.5973 31.8457
29.8115 30.8468 32.4145
30.2223 32.1184 34.1891
30.4042 32.195 34.4995
29.4045 30.9619 32.9215
28.6973 30.2933 32.2773
28.2613 30.3425 32.9286
29.3183 31.2631 33.8783
28.5845 30.8825 33.5498
27.2413 28.9665 31.8643
28.0021 29.589 31.6954
28.4623 30.9369 33.5075
26.3911 29.2019 32.7259
26.7275 28.767 31.7341
26.6717 29.715 33.406
26.6684 28.963 32.4973
27.4328 29.9911 33.3531
26.8993 29.1306 32.349
26.6354 29.9828 33.8361
27.7251 30.5453 34.2487
25.8829 28.8246 32.8257
27.2145 30.5665 34.59
26.9565 30.3835 34.334
25.7242 29.1219 33.2783
25.8971 29.4426 33.9971
26.3439 30.2467 34.9602
25.1335 28.1151 32.5197
26.8506 30.6252 35.3509
25.913 29.5247 34.2692
25.4512 29.3028 34.0655
25.678 29.7155 34.8723
25.9091 29.6883 34.4436
25.277 29.7414 35.2202
24.5732 28.7247 34.7257
25.5183 29.6423 34.923
25.4279 29.681 34.9008
24.4819 28.5493 33.8934
23.9211 28.4349 34.3479
24.3561 28.7914 34.8442
24.7314 29.3479 35.6959
25.6569 30.1275 36.19
24.8081 29.3512 35.2944
24.8781 29.4758 35.5898
24.7548 30.1701 36.5793
24.2961 29.5057 36.5855
24.3236 29.5368 36.7668
24.8103 29.7769 36.0445
24.1532 29.7614 36.7574
24.0295 29.6864 37.0146
23.5341 28.7721 35.888
23.3951 29.3552 37.1193
23.8586 29.0855 36.3466
23.1434 28.3909 35.567
23.9376 29.716 37.4947
24.4944 30.8318 39.1156
23.3046 28.8161 36.92
24.1689 30.1018 37.4599
23.669 30.1178 38.2377
22.3968 28.7567 37.0978
23.0725 29.7496 38.594
22.5401 28.6156 37.4911
23.0546 29.3198 37.7035
22.7545 29.1087 37.9958
23.0178 29.3631 37.9729
22.7228 29.6147 38.7388
23.1442 30.4809 39.8805
22.216 28.5181 37.7228
22.2999 28.2 36.5201
21.9008 28.9581 38.4186
22.0872 29.1094 38.8426
22.5101 29.4209 39.0514
22.1033 29.244 38.9411
21.5442 28.7644 39.5147
22.6219 29.6486 39.3145
21.9307 28.4892 38.1421
21.1769 28.4162 38.8099
21.6688 28.4839 38.8857
22.3259 29.9728 39.963
21.3595 28.5631 39.274
21.0607 28.965 40.3725
22.0427 29.0455 40.0136
21.5668 29.2284 40.4476
21.6755 28.8859 40.236
21.2627 28.386 38.7716
21.3838 28.8063 39.4902
20.4154 28.0976 39.519
21.2042 29.1423 40.8614
21.0665 28.9961 41.1067
21.3854 28.8306 39.9599
20.7526 29.0251 40.5979
20.6912 29.1292 41.2432
20.9764 29.3798 41.9961
21.2893 29.8256 42.2062
20.7669 29.2851 41.9689
19.9661 27.8973 40.0333
20.0528 27.9558 39.4078
18.8057 26.941 39.6306
20.437 28.7313 41.2029
19.6062 27.8786 40.5051
20.4815 29.1414 41.6958
18.9195 27.2903 39.9631
19.7232 28.6881 42.1918
19.8775 28.1874 40.4488
19.2559 28.4169 42.0661
20.2733 29.8172 43.4226
18.8185 27.3653 41.0397
19.5117 28.7789 42.8844
19.4002 28.1108 41.0259
19.0631 28.5719 43.089
18.7743 27.9202 42.383
19.58 28.7496 43.366
19.412 28.5752 42.0226
18.5457 27.9837 42.9045
18.7901 27.8324 42.7212
19.7626 29.0148 43.417
18.8972 28.2234 43.0762
18.5955 27.6046 42.3312
19.7786 29.2201 43.0385
17.807 27.1301 42.2591
18.9322 28.6389 43.7278
18.8278 28.4776 43.9673
19.0811 28.9601 43.9918
17.6583 27.7852 44.3165
18.125 27.2576 42.5268
18.4866 28.3205 43.8319
18.2237 28.4061 44.4589
17.5439 27.0578 42.7367
17.2433 26.4218 41.7669
18.1658 28.161 43.8174
17.2671 26.7206 42.8747
18.0939 28.2488 44.1296
17.5279 27.5568 43.6808
17.467 27.3229 43.2403
17.6325 28.3359 45.5542
17.5752 27.375 43.6482
17.0658 26.7363 42.873
17.1917 27.5692 45.2743
17.2271 26.8374 43.455
16.9603 27.0714 44.4255
18.0276 28.3042 45.2844
16.6117 26.1528 42.4745
16.645 26.4308 42.4531
16.0737 25.9553 43.0239
16.9974 27.1355 43.3331
16.6933 27.8783 46.6553
16.4308 26.3341 43.3489
16.2982 26.5957 43.8312
16.7892 27.8572 46.7777
16.6428 26.914 44.4126
16.0197 26.3021 44.7284
17.2731 27.848 45.2277
16.3449 26.823 44.7872
16.2091 26.8345 44.4526
16.1766 26.979 45.2401
15.7216 26.1844 44.3746
16.2541 27.3449 46.4292
16.0481 26.5215 45.213
16.2279 27.5478 47.2618
15.6886 25.8696 44.0234
15.9801 27.1803 46.9418
15.6394 25.7968 44.622
16.1382 26.6817 44.6363
16.1032 27.4535 46.2874
15.49 26.238 45.6736
16.0951 27.8011 48.4107
15.7064 26.2291 45.184
15.6434 27.3607 48.1701
15.8702 26.578 45.7932
15.0358 26.1987 46.9742
15.435 26.1579 46.263
15.1896 25.6931 44.9752
15.0851 25.8284 45.4324
15.4024 26.7116 47.1666
15.3852 26.6023 47.2497
15.2351 26.4927 47.2984
15.3537 26.4104 46.7881
14.9337 26.328 47.2547
14.8249 26.2036 47.8339
16.3579 29.1216 51.3472
15.463 26.6147 46.9496
14.6999 26.2424 47.4229
15.0025 26.5375 47.4571
14.9436 26.7295 48.1903
14.6771 25.9109 46.1104
13.6467 24.2788 44.9887
14.2864 26.0551 48.8374
15.1631 26.0547 45.8487
14.2264 26.0953 47.9594
14.0874 24.7181 44.8869
14.5043 26.8751 49.2721
14.2365 25.0771 46.0656
14.4947 26.5573 48.6676
13.8445 25.0254 46.6688
14.0354 25.7924 47.783
13.6909 25.0445 48.0636
14.541 26.1413 47.88
14.2305 26.2469 48.1733
13.8884 25.8498 48.8555
14.0323 25.4096 47.6227
13.9053 25.8037 48.1345
14.0415 26.2852 49.318
13.768 25.8756 49.8424
14.0925 25.5189 47.9953
13.3408 24.7744 47.3251
13.806 25.6562 48.8034
13.8403 25.7946 48.5817
13.5492 25.5139 48.6302
13.0905 24.2992 46.057
12.7275 24.5429 48.6198
13.5894 25.3395 48.249
13.211 25.3123 49.4326
13.4398 25.1602 49.0438
13.5061 24.9106 47.3079
13.1798 25.6895 50.5846
13.6 25.5485 48.566
13.1401 25.0129 48.0209
12.7133 25.1272 50.3087
13.3161 25.172 48.6768
12.7689 24.9753 50.4952
13.6578 25.6814 49.099
12.8243 24.6716 48.7262
12.7805 24.7467 48.4903
12.7624 25.1999 49.7585
12.725 24.9481 50.2467
13.0748 25.2527 49.8078
12.5381 24.5752 49.5729
12.7375 25.0782 50.0328
12.869 25.7545 52.4728
13.2008 25.6133 51.1091
13.2712 26.0694 51.2217
12.0468 24.0711 49.6066
12.5742 24.0196 47.4764
11.9359 24.742 51.5311
12.6428 24.3203 48.5666
12.4986 25.2614 50.2989
11.8137 23.8814 49.8367
12.2526 24.6581 51.1274
12.485 24.3734 49.4225
12.5346 25.0516 49.8378
11.9329 24.5727 50.7403
12.1525 25.1498 52.5125
11.8965 23.6124 49.2943
11.952 24.1816 50.5988
12.2724 25.0775 52.1469
12.4304 25.0084 51.2143
11.5768 23.3628 49.1148
11.8653 24.408 51.031
11.7946 24.4947 51.9397
12.0094 24.1661 49.7546
11.7007 24.0626 49.7541
11.4531 23.8052 50.3118
11.3829 23.5797 50.2292
11.8434 24.4829 50.5223
11.0172 23.4784 51.3462
11.786 24.2072 51.5517
11.6444 23.9001 50.6066
11.5274 23.4353 49.8369
11.6346 24.7361 52.1966
11.418 24.1873 52.026
11.6854 24.8516 52.6286
11.1416 23.1244 50.436
11.5844 23.8966 50.2516
11.0953 23.7357 51.9057
11.2028 23.5354 50.4055
10.7577 22.8892 50.3269
11.1989 23.1847 49.1549
10.6848 23.1251 51.3423
11.1341 23.5044 51.1081
11.5228 24.9111 53.5022
10.8414 23.0731 50.2399
10.7181 23.8018 54.0656
11.2605 23.0514 50.0763
10.922 23.2867 50.218
10.4776 22.5591 50.1137
10.7954 23.2152 50.4574
10.8837 24.0102 52.2567
10.6785 23.7025 53.0479
10.667 23.099 51.6814
10.7078 23.1864 50.9905
10.5246 23.648 53.3474
10.6213 22.8335 50.5783
10.2498 22.8042 52.504
10.3527 22.1299 50.4579
10.5653 22.8324 51.3585
10.3183 22.9241 51.4411
10.2709 22.573 50.9462
10.1934 22.2825 50.2553
10.1526 22.3936 51.2661
10.4007 22.9318 51.7604
10.3025 22.6549 50.4468
10.2305 22.7928 51.1088
9.7647 21.6187 50.2437
10.6903 24.0224 53.5426
9.98709 22.5771 51.9021
10.0859 22.8754 53.0687
10.2681 22.9962 52.5127
10.1029 22.7202 51.6129
9.83393 22.0966 51.5483
9.92698 22.6104 51.6821
9.79258 22.8096 53.4935
9.861 22.1494 52.3675
9.98091 22.4971 53.1187
10.0786 22.3826 52.4223
10.1617 22.6286 52.083
10.2733 23.4022 52.5181
9.59956 22.3136 53.0875
9.84079 22.5133 52.5229
9.70547 21.8946 50.2681
9.65073 23.1763 55.0352
9.70236 22.0586 52.2289
9.72712 22.4439 52.9365
9.62331 22.233 52.315
9.60476 22.5213 52.9698
9.25511 21.6092 52.9251
9.72137 22.5218 53.1602
9.39172 22.075 52.5775
9.0606 21.2455 52.2602
9.53534 22.1027 53.1688
9.52884 21.8509 51.6244
9.43506 22.3151 53.4911
9.30506 22.0149 54.4764
9.75156 22.2808 52.0224
9.28607 22.068 53.45
9.18224 21.6656 52.6042
9.36704 22.6956 55.0017
9.5132 22.3198 53.5987
8.96733 21.3271 53.5422
9.35826 21.7301 52.7288
9.0701 21.785 53.6846
9.20764 21.734 52.7656
8.87055 20.8855 51.3156
9.03715 21.7164 53.325
9.13717 22.2354 53.7506
8.73249 20.8822 53.061
9.10694 21.1957 52.2789
9.08056 21.5252 52.0735
8.85225 21.6842 54.0551
9.04004 21.7586 53.5073
9.14513 22.5923 55.5153
8.85415 21.2847 53.3907
9.16811 22.5525 55.0384
8.39761 20.2044 51.3411
8.80571 21.6143 54.6636
8.82468 21.0271 53.0743
9.1637 22.6379 55.7913
8.83185 21.3309 53.3078
8.37455 20.4903 52.3123
8.77295 21.3896 52.7896
8.67798 21.5558 53.9702
8.38272 20.762 52.8159
8.54097 20.8784 51.4297
8.3321 21.7755 58.1969
8.90987 21.0837 52.845
8.57024 21.7402 56.4695
8.92422 21.4621 53.053
8.28943 20.8635 54.734
8.90047 22.1608 55.6134
8.59503 21.3151 53.3552
8.21116 20.7675 53.7492
8.29388 21.1861 55.2472
8.53541 21.2343 54.158
8.43043 21.2938 54.653
8.3939 21.4694 55.6002
8.43275 21.1329 55.3197
8.43151 21.4741 56.0201
8.38869 20.5222 53.0326
8.47988 22.1895 56.9238
8.43636 21.2614 56.8232
8.60402 21.5658 56.4205
8.58068 21.627 54.7782
8.24845 21.4681 57.0202
8.4048 21.261 56.6495
8.8795 22.3923 56.2993
8.1739 21.1932 55.7807
8.15609 21.2614 55.5822
7.78397 19.5762 51.5315
7.62836 19.5799 52.577
8.0213 21.0296 55.5355
7.95068 20.695 55.1142
8.04021 20.9126 55.3291
8.06596 20.8252 56.3589
8.13016 20.7967 54.1266
7.87657 20.4712 54.8798
7.92045 20.2796 53.0602
7.49248 19.9716 54.9712
7.84415 20.06 53.0335
7.54163 19.5011 51.9721
7.6084 20.4288 55.3646
7.70103 20.4339 55.6295
8.06546 21.3685 56.2992
7.72565 20.472 56.2614
7.71475 19.836 54.4402
7.68645 20.144 54.4506
7.6611 20.2661 54.6985
7.5902 19.8372 53.141
7.47882 19.7857 53.113
7.27321 19.1465 52.4137
7.10858 19.3479 54.976
7.66627 19.7614 53.4722
7.27714 19.0684 52.2765
7.62048 20.2934 55.398
7.6532 20.2791 55.4686
7.56238 19.8671 53.8488
7.49106 19.8868 53.3136
7.22964 20.1127 56.3367
7.55937 20.5434 57.0563
7.70033 20.6295 56.0285
7.65441 21.126 57.2729
7.23528 18.913 52.8354
7.30852 19.8883 54.8521
7.0115 19.2942 55.8521
7.57141 20.2487 54.1121
6.87779 18.8846 54.6937
7.35401 19.3473 52.7499
7.20315 19.859 55.341
7.01952 18.9818 53.5866
7.02522 19.3514 52.9272
6.90285 19.6774 55.6085
7.13922 20.0273 57.8855
7.35354 20.0368 56.6752
7.11629 19.1432 54.9317
7.2299 19.3297 53.796
7.00594 19.2966 55.6398
7.46494 21.0667 58.0417
7.04654 19.0989 54.5192
7.01885 18.816 51.9456
6.72757 18.9685 53.4202
6.54601 18.1272 52.8229
6.84471 19.159 54.3882
6.78613 18.8158 53.7004
6.96604 19.4346 54.0414
6.61182 18.9645 55.304
6.84383 18.9137 54.1391
6.64106 18.5663 54.0813
6.8687 19.7229 57.2428
6.91469 19.0934 54.6101
6.91911 19.869 56.9251
6.80971 18.8464 55.1464
6.82677 18.4804 51.7663
6.62386 19.2718 56.5287
6.71668 18.3637 53.9387
6.73144 18.41 51.3329
6.36393 18.5503 54.5433
6.85522 20.0212 58.1373
6.71559 18.5716 54.3511
6.62718 19.0039 55.1946
6.58373 18.7024 55.1714
6.66309 18.8978 55.6587
6.65947 18.84 54.6214
6.64904 18.7944 54.9023
6.64015 19.2743 54.5133
6.23288 17.8863 53.0532
6.20503 17.8513 54.3563
6.52775 18.5002 54.0235
6.49555 18.741 53.7297
6.2776 17.875 53.2831
6.33528 18.6692 55.6734
6.41488 18.368 54.3301
6.25648 17.7387 53.4612
6.5061 18.7558 54.2313
6.30779 18.7158 55.9904
6.43702 18.2625 53.5265
6.23628 18.5204 55.1969
6.24546 18.0952 56.1475
6.56533 18.9522 55.7452
6.3493 18.398 56.5641
6.58536 19.1002 55.8754
6.34106 18.2082 53.8847
6.1056 17.5822 53.7446
6.20507 18.0752 55.2303
6.43242 18.5676 53.9348
6.15414 18.3704 54.1624
6.10998 18.1632 55.9438
6.29087 18.5634 56.8939
6.3966 18.0586 54.5912
6.19621 17.6124 53.2864
6.20882 18.1068 53.5783
5.86908 17.2964 52.9837
6.13952 18.0889 54.4531
5.91428 17.586 55.6443
6.11145 17.2442 51.6474
5.96669 17.9973 55.215
6.11019 18.1245 55.0399
5.92738 17.699 54.5334
5.91026 17.6381 55.3095
6.11011 17.5473 52.639
5.82717 17.9652 57.2921
6.32154 18.5772 55.6072
5.9081 17.1015 53.1906
5.90401 17.8794 53.6822
5.75833 17.4576 54.6365
6.00235 18.3876 56.8324
6.03107 17.6868 54.3166
5.85682 17.3077 53.5702
5.89145 17.9495 54.7603
5.81868 18.018 56.4063
5.93953 17.8202 56.8152
6.05382 18.0654 55.8389
5.94026 17.4872 54.6193
5.71624 17.2974 54.2304
5.82125 17.7504 55.1272
5.76546 17.5248 55.8284
6.00333 17.8447 53.2972
5.50479 16.8093 53.4783
5.73315 17.8152 57.1075
5.92655 17.38 53.9483
5.67832 17.132 53.3261
5.61473 17.2614 53.3313
5.5511 17.438 53.5455
5.38269 16.6736 55.6364
5.94782 17.8666 55.7435
5.78134 17.6714 54.4374
5.5357 17.0472 53.9142
5.50383 16.6744 53.6032
5.38117 16.4619 53.2853
5.50898 17.3517 57.0131
5.9334 17.6088 55.4593
5.81508 17.7668 55.5607
5.58992 16.962 54.0857
5.53843 16.8114 53.1181
5.42845 16.8558 52.8883
5.39357 17.1415 55.5307
5.68353 17.9387 57.9599
5.70328 17.2138 54.603
5.52388 16.9685 53.1939
5.34098 16.8097 54.4553
5.42709 16.8636 54.3866
5.41112 17.0499 54.42
5.50706 17.043 54.1212
5.39683 16.93 55.7902
5.4223 16.5942 52.524
5.12461 16.5874 54.8159
5.29426 16.2974 51.9435
5.104 16.3809 55.2381
5.54138 17.5217 57.0732
5.48799 17.0873 55.111
5.36998 15.9818 51.1761
5.23223 16.7022 52.9002
5.15153 16.9246 56.8268
5.53151 17.2129 55.1389
5.25472 16.3975 54.1033
5.25532 16.1325 52.0172
5.10876 16.6118 53.1384
5.09511 16.8039 54.7792
5.15002 16.1112 55.3854
5.38499 16.6756 54.348
5.19069 16.6087 55.0715
5.25214 16.4045 53.6823
5.15959 16.2981 53.7563
5.21014 16.6394 53.7894
5.03226 16.2022 54.1886
5.19544 16.8579 54.174
5.04881 15.8481 53.3808
5.0682 16.0042 53.3934
5.18802 16.5368 53.5575
4.95697 16.0794 54.4673
5.18705 16.8693 55.0141
5.02938 15.9487 53.9235
5.13996 16.6762 55.4195
5.11945 16.5012 56.1625
5.26918 16.1285 53.0834
5.04053 16.4152 54.8345
5.11295 16.2073 55.0791
5.18373 16.7231 53.7826
4.98012 16.1591 53.4946
4.93726 16.2331 52.5788
4.82635 15.7635 52.6038
4.77937 15.5692 53.1142
4.8702 15.4232 53.5608
5.03125 16.7567 57.2126
5.19763 16.3158 55.1553
5.1107 16.2496 54.0981
4.95466 16.5781 56.043
5.16565 16.6584 55.7778
5.06126 16.3398 55.3467
5.10905 16.5093 53.954
4.71519 15.4939 54.372
4.99405 15.984 54.3854
4.96214 16.2694 54.6086
5.03516 16.6016 55.6952
4.90827 15.8102 52.7545
4.80539 15.7119 51.9899
4.62717 15.8907 54.7236
4.98611 16.3618 55.1199
4.86943 15.9196 54.8006
4.85904 15.5576 51.7305
4.66109 15.7855 55.4924
4.93394 16.1147 55.7626
4.98951 16.0403 54.9696
4.97554 16.3692 53.6074
4.68503 15.8209 57.6697
5.15921 16.5405 55.528
4.87974 15.6992 52.3067
4.66205 16.271 56.7077
4.94872 15.978 53.7482
4.72108 15.8159 55.6886
4.82074 15.8921 56.1803
5.05127 16.5401 55.0312
4.81862 16.3078 56.1584
4.85691 16.0469 55.511
4.9214 16.4963 53.7494
4.61284 15.4176 52.9409
4.51509 15.2257 52.8529
4.58305 15.7449 55.1571
4.63468 15.2209 54.2695
4.80642 15.9819 54.4993
4.6219 15.072 54.0319
4.78419 16.2641 54.8201
4.70094 15.5677 52.5266
4.49529 15.4945 54.5394
4.57838 15.1699 53.1249
4.6153 15.5148 51.9135
4.34973 14.921 54.3665
4.6845 15.9501 53.6888
4.42913 15.1161 51.9239
4.51927 15.1922 54.217
4.56195 14.8822 53.315
4.58977 15.7506 53.9062
4.42891 14.9126 53.3353
4.57893 15.6913 52.9471
4.24776 14.2093 52.9225
4.58711 15.1804 53.2443
4.57407 16.1506 56.0251
4.6103 15.3875 55.3736
4.55192 14.7784 51.7694
4.40356 14.9792 53.4277
4.56344 15.5207 52.9117
4.39342 15.1735 54.5751
4.55504 15.4058 53.8788
4.44643 15.1685 53.9368
4.47761 15.2369 55.0232
4.54002 15.2251 54.0787
4.496 14.9901 54.1709
4.54809 15.321 53.7956
4.45506 15.0627 53.2045
4.45229 15.6866 54.8559
4.4415 14.9551 53.2645
4.40843 15.2905 53.2761
4.31472 14.8435 54.6883
4.52005 15.3467 54.1533
4.45574 15.7867 56.3378
4.50717 15.1845 55.3211
4.49129 15.1346 55.978
4.56073 15.2365 52.6732
4.28263 15.0193 53.649
4.35368 14.9103 54.0397
4.4287 15.457 54.9837
4.45453 15.7571 54.0002
4.25485 14.6719 53.8435
4.40267 15.5094 55.9328
4.49407 14.7463 50.4479
4.05608 14.9643 54.5509
4.47372 15.2458 55.9597
4.476 15.7515 57.4616
4.5932 14.9823 53.6817
4.34186 15.4142 56.1469
4.59977 15.764 58.1203
4.65851 15.805 54.2551
4.42235 15.5528 57.7274
4.55693 15.2101 56.9303
4.80424 16.3922 55.9993
4.37445 15.4677 54.4263
4.30289 14.6053 53.0816
4.13275 14.4497 52.9339
4.24615 14.7555 53.8623
4.17235 14.7299 53.02
4.21737 14.9983 53.8966
4.15199 14.7719 55.1603
4.34679 15.1516 54.6178
4.28372 15.0743 55.319
4.29387 14.3082 52.1536
4.09317 14.3663 53.4989
4.31046 15.5507 54.1954
4.12217 14.8477 55.53
4.25497 14.1222 50.7604
4.03792 14.475 52.5578
4.13208 15.3287 56.6937
4.30832 14.0511 51.2085
4.03433 14.4546 51.7001
3.98909 14.5848 53.6046
4.12348 14.4897 53.4123
4.12952 14.2469 52.1593
4.04649 15.2255 55.4597
4.18547 14.3932 52.566
3.98694 14.1789 51.5938
3.97969 14.2086 54.0417
4.14622 14.473 53.5681
4.17503 14.9361 54.2403
4.14697 14.92 54.0817
4.06781 13.9773 49.9354
3.8668 14.5039 54.1372
4.12242 14.9905 53.7246
3.9235 13.3182 51.3283
3.97404 14.17 51.7875
3.95323 14.5502 54.7362
4.05053 13.8857 53.0467
4.08534 14.7683 53.6536
3.98681 14.4432 53.881
4.05292 13.8313 50.9651
3.7992 13.6175 52.052
3.97169 14.3641 51.6341
3.92172 13.7271 51.7759
3.93335 14.1387 52.5011
3.94806 13.8443 51.955
3.93018 13.9052 52.2352
3.92418 13.6782 52.6466
3.94273 13.8583 50.6631
3.80531 13.645 50.7366
3.83532 13.9186 52.9106
3.93402 13.7688 50.7757
3.82821 13.9595 51.5294
3.80216 13.8909 52.4278
3.93556 14.0707 54.6416
4.15412 14.29 51.1374
3.82426 13.6154 49.7724
3.68216 13.5286 52.584
3.94927 14.1982 51.1694
3.72708 13.6215 53.2156
3.90861 13.9091 52.5358
3.83862 13.9342 52.1687
3.83089 14.0495 53.3347
3.93587 13.942 50.9443
3.73968 13.5771 51.6395
3.84556 14.57 52.1953
3.74897 13.5233 53.7769
3.95883 13.9246 50.7311
3.67434 13.4291 51.7263
3.84047 13.8372 50.9751
3.71461 13.6039 51.9406
3.77048 13.6077 52.2863
3.82267 14.2782 53.3847
3.88563 13.5137 51.9846
3.84141 13.9671 50.9403
3.72866 14.0092 52.5578
3.7641 13.3644 51.9715
3.87953 14.2655 52.4739
3.75687 13.5729 51.807
3.72971 13.6359 51.4018
3.69121 13.6082 51.2219
3.68778 14.0441 54.4008
4.01172 13.9114 52.3003
3.78372 13.6333 50.5416
3.63992 13.9039 52.8123
3.70986 13.4899 51.742
3.71098 13.2945 50.9795
3.68485 13.4617 52.4837
3.82051 13.68 51.7155
3.71302 13.4864 51.7844
3.75027 14.1923 52.0138
3.6128 13.5329 53.1652
3.76158 13.7954 54.7002
3.94273 14.0783 52.4945
3.73862 14.3202 54.3951
3.82331 13.5447 51.4255
3.65394 13.1204 50.175
3.61711 13.5107 50.8213
3.61761 13.5035 52.2857
3.71793 13.3434 49.502
3.56227 13.7992 51.9822
3.61234 13.4091 52.1541
3.74262 13.6034 51.7066
3.65189 13.7811 51.9875
3.66687 13.2027 52.2441
3.69481 13.3233 50.7606
3.61481 14.019 53.517
3.74735 13.5875 52.2218
3.67472 13.4606 51.9288
3.65747 12.9908 50.2072
3.60664 13.6836 52.3374
3.71189 13.9087 51.9204
3.58567 12.9187 49.0605
3.45595 13.2344 52.1147
3.65545 13.4651 54.1314
3.83878 13.4018 50.1886
3.59285 13.535 53.5541
3.81304 13.295 50.5257
3.59246 13.2825 50.3815
3.58565 12.9262 50.0793
3.49913 13.4208 52.0261
3.63664 13.6187 52.1479
3.61022 13.5364 51.7246
3.57896 13.2777 52.0582
3.62818 13.3349 50.3613
3.47466 13.0418 50.2393
3.47296 13.1127 52.5051
3.61164 13.523 50.9707
3.59423 13.0633 50.207
3.49064 12.9222 49.9228
3.46868 13.0575 51.3888
3.60942 13.4342 52.2291
3.6406 13.6022 52.1753
3.62119 13.7007 53.8388
3.77887 13.5522 53.1909
3.6508 13.237 49.768
3.46926 12.8968 51.7526
3.6501 13.0527 50.0978
3.48712 13.3199 51.3281
3.55885 13.5005 53.0795
3.68533 13.367 51.1768
3.47312 13.1926 51.7745
3.59199 12.9975 51.8824
3.58106 13.4114 50.444
3.46477 12.7365 50.4929
3.45689 12.7786 49.6896
3.4378 13.0427 50.7451
3.46544 12.8132 49.687
3.42899 12.962 49.8126
3.40502 12.8069 50.363
3.45247 13.0347 52.1266
3.57135 13.0213 50.8307
3.50055 12.7837 48.7379
3.35919 13.2178 51.9074
3.62129 13.3015 49.9996
3.38534 13.0937 50.7301
3.48896 13.0394 52.5984
3.54547 12.8641 52.7318
3.5967 13.2677 49.9337
3.3994 12.4388 47.5488
3.2625 12.65 52.1867
3.56838 13.3628 49.7303
3.38328 12.4251 50.3284
3.396 13.2237 51.1184
3.43527 12.8317 50.0024
3.3583 12.5436 50.2775
3.40385 12.9125 49.8465
3.38861 12.733 49.0174
3.34489 12.7922 51.1904
3.41433 12.8024 49.6354
3.3317 12.9048 51.4602
3.50659 13.0041 50.8996
3.45044 13.1456 52.1432
3.5352 13.1091 52.5802
3.58319 13.118 49.3358
3.32202 12.6731 49.4706
3.33251 12.8186 49.9476
3.38764 13.2119 51.3853
3.43903 12.8526 51.4275
3.45994 12.9361 50.5899
3.42496 12.8956 51.3312
3.49723 12.806 49.8553
3.40201 13.0371 50.3678
3.4085 12.3421 49.679
3.39029 12.6841 50.7992
3.4274 12.6267 51.5219
3.54473 13.2972 51.9707
3.50738 13.1466 50.328
3.42224 12.6718 49.5343
3.38846 13.0595 51.5904
3.5088 13.0895 50.2137
3.38121 12.4565 48.9332
3.30701 12.7875 50.8786
3.4258 13.0213 50.0022
3.35017 13.1009 51.9281
3.40402 12.6372 49.1843
3.32361 12.9115 50.9973
3.39111 12.4762 50.7244
3.40387 12.8655 52.8908
3.53721 13.3218 53.9898
3.59484 13.1712 49.7393
3.33967 12.831 52.1524
3.44036 12.964 54.0551
3.68108 14.1679 51.4298
3.38347 12.5411 50.6847
3.45063 12.5906 50.9204
3.46347 13.1448 51.7937
3.48925 12.638 50.9071
3.36063 13.0328 51.5303
3.47921 12.4548 49.3628
3.32398 12.9993 50.4205
3.42323 12.283 51.3755
3.40213 13.2879 51.0857
3.41429 13.0067 51.9771
3.41594 13.2747 52.0529
3.49113 12.83 49.8882
3.29116 12.4243 47.749
3.16778 12.2016 49.8556
3.32422 12.9318 50.1763
3.33683 12.4277 50.4176
3.40641 12.6647 50.3225
3.30061 12.6132 50.7435
3.36294 12.8213 50.8574
3.42631 12.3358 48.7961
3.23112 12.7307 50.8191
3.31287 12.3619 49.6952
3.30081 12.4812 48.0746
3.20185 12.326 49.2436
3.28605 12.5403 51.2424
3.4146 12.4123 49.7067
3.27901 12.3882 49.6328
3.28084 12.9432 51.6458
3.41341 12.725 50.2446
3.34514 12.4227 49.6515
3.28146 12.5984 50.353
3.32284 12.3931 47.774
3.18914 12.5296 50.931
3.38865 12.5664 50.1385
3.32123 12.6208 51.326
3.35134 13.2645 53.3893
3.50689 13.3281 51.7043
3.36757 12.9364 52.1317
3.42491 12.8298 49.0168
3.21249 12.667 51.8821
3.39401 13.0403 51.6384
3.38042 12.8588 51.2655
3.36478 12.3153 50.4341
3.29797 12.5782 50.6575
3.35225 12.2811 48.3275
3.17853 12.7252 50.2748
3.36255 12.6178 48.6979
3.22661 12.3598 49.4026
3.2379 12.8959 49.6578
3.28207 11.9608 48.6314
3.17108 12.3036 51.6889
3.42832 12.4599 49.4182
3.26993 12.8086 50.5856
3.32326 12.6425 50.5287
3.33272 12.8888 50.6757
3.32764 12.2964 52.17
3.42465 13.7035 52.0118
3.38375 12.7221 50.972
3.3737 12.4497 50.5735
3.31338 13.3412 50.6267
3.31307 12.7383 52.2834
3.42124 13.1609 52.3619
3.43948 12.8199 48.6146
3.17328 12.224 51.1191
3.40978 12.5845 48.6402
3.20069 12.4102 51.3885
3.44182 13.2263 52.0178
3.38159 12.8459 51.1349
3.35488 12.7542 49.8987
3.27515 12.7706 53.1298
3.5 12.5055 50.5217
3.31068 12.5036 49.2945
3.25772 13.0894 52.4859
3.42135 13.4817 53.3215
3.47867 13.6455 53.9732
3.51478 13.3147 52.0146
3.3689 13.3152 51.0875
3.33195 12.9537 54.6542
3.5859 13.6364 53.3377
3.4953 12.8829 54.5788
3.59453 13.192 52.36
3.3899 13.5771 55.3151
3.59541 13.9538 54.7023
3.60398 13.9067 54.3362
3.5312 0 0