# pn-170911/RbIIF-72-RbIIR-1280-1959.psd
# Power spectrum* (dif=0,1,2) (really just |FT|^2)
# NOTE: only the first half! (symmetric)
# weeks: 1280-1959
# 1 clock-days, 0 excluded
# PSD: 1441
90.3302 0.164997 2.03674e-05
360534 3.57376 0.0021298
811012 12.7519 0.00106633
112637 3.13791 0.00298541
162738 8.65934 0.00358459
175258 17.744 0.00764332
13067.9 4.03628 0.00375876
145889 28.5973 0.0134183
13995.4 4.35998 0.00654967
20616.1 8.72934 0.0103217
22732.4 14.0687 0.0134036
10815.4 9.16763 0.00419396
51720.4 28.4577 0.0225976
6698.49 6.92331 0.00213785
4466.43 2.54205 0.00778818
17040.8 22.5151 0.0171788
29188.3 29.1093 0.0457593
5140.15 4.523 0.00509288
4217.34 5.1632 0.0176394
12047.4 17.3612 0.0207219
2577.7 5.01736 0.0198506
2538.07 8.25046 0.0212407
8001.94 15.344 0.025904
11434.9 34.3639 0.0938211
15945.6 52.7833 0.151027
1547.18 2.25294 0.0117922
8343.44 21.0872 0.0752134
15819.9 54.1775 0.150639
19504.2 83.8686 0.300786
6038.27 17.8976 0.0760786
1913.44 6.13172 0.0405899
732.525 3.54136 0.00678845
4745.52 28.4249 0.121144
5219.34 33.2895 0.190816
12301.8 59.315 0.359835
4588.33 28.1419 0.130054
1137.76 9.55263 0.0679758
359.737 0.946316 0.00628185
5198.08 38.5521 0.299754
1798.53 11.1756 0.110198
5926.75 52.7231 0.37392
7074.75 54.3616 0.496947
1427.12 9.75787 0.0578353
4919.27 50.7617 0.419166
2351.19 29.8631 0.287563
3483.52 25.494 0.230621
462.742 4.26096 0.058207
960.663 6.96699 0.0891129
542.588 3.99696 0.0607314
743.385 11.5337 0.134668
4288.25 53.6372 0.718432
1119.09 16.5545 0.173493
279.31 3.2069 0.0588921
2878.16 37.3318 0.583781
1264.58 20.0452 0.232653
779.42 10.0671 0.113473
38.0394 1.47864 0.0299563
621.999 7.01836 0.0971943
2059.44 33.8537 0.597516
435.836 11.7135 0.209251
1747.14 22.995 0.384177
1.34359 0.121292 0.00192443
527.229 13.2383 0.251106
384.021 11.2643 0.252105
1495.4 23.9415 0.432292
1193.92 27.8843 0.591278
9.71411 0.572747 0.0236508
472.795 15.2992 0.34017
133.929 1.70072 0.057393
74.4589 4.09209 0.102025
372.47 6.41015 0.107389
82.5411 0.360878 0.00392911
2821.46 64.7158 1.52052
185.088 2.99578 0.0851946
221.658 6.56152 0.168243
73.5916 0.499574 0.0113128
399.531 9.10598 0.238078
5047.27 132.702 3.79666
1436.74 38.4965 1.26534
451.588 16.0375 0.572499
428.47 11.5488 0.455978
476.039 19.7966 0.711515
824.463 22.6746 0.616666
717.596 28.1265 0.927787
1513.18 63.1417 2.18952
611.054 12.9485 0.371809
1296.89 47.964 1.8768
222.337 4.72636 0.205797
392.926 9.14852 0.310695
921.193 29.5125 0.920987
826.857 34.419 1.24054
100.34 8.20334 0.387331
2431.83 83.07 3.26413
155.493 4.47644 0.180146
202.519 8.4061 0.340224
868.455 30.4697 1.34225
811.129 33.9374 1.67664
192.175 9.62149 0.66491
1564.68 75.7542 3.1179
156.876 9.19059 0.38974
33.0113 3.95282 0.199788
148.2 9.48728 0.551479
686.658 27.917 1.3185
249.817 14.5821 0.723123
2080.54 101.006 5.39224
150.734 10.1793 0.817234
68.5652 2.18446 0.0321592
439.453 19.0554 0.80368
878.947 52.0341 2.82137
523.606 23.1922 1.30142
543.205 29.1674 1.74844
674.301 37.416 2.49764
414.107 26.6759 1.49908
387.274 22.4586 1.11301
695.817 47.935 2.66355
544.956 43.3554 2.80359
252.553 17.8058 1.28477
25.1895 4.31089 0.420002
215.928 9.59641 0.591315
415.456 36.2333 2.50418
215.478 11.3767 0.651831
4.84275 0.957492 0.0911717
338.927 27.3475 2.1682
801.554 45.8732 2.97915
705.81 47.2531 3.53154
312.442 21.5702 1.95016
66.308 5.47048 0.26168
67.9037 4.30623 0.46673
359.754 35.7665 3.00473
453.186 32.4189 2.18017
268.911 15.7163 1.21561
192.899 17.0626 1.55581
750.409 57.7467 4.71665
71.8135 8.14983 0.849209
59.5268 6.71619 0.845877
38.7118 6.66254 0.883352
435.71 33.2137 2.65695
598.713 56.6243 4.45015
36.8071 5.1439 0.368255
644.218 72.5505 6.9019
508.645 61.3124 6.34242
982.663 71.1499 5.74756
47.5842 3.04417 0.384218
30.7676 5.60143 0.638751
137.915 9.79868 0.724177
54.836 7.10905 0.554349
340.789 38.1077 3.60663
221.444 20.0323 2.08129
170.821 22.0937 2.31302
116.534 8.62201 0.727603
162.156 20.3618 1.94326
189.901 28.2084 3.31834
151.789 17.9688 1.98948
41.8254 3.52195 0.353397
84.6814 12.7611 1.47164
185.28 31.011 3.85856
234.57 39.1918 5.47769
319.478 28.8936 3.16239
398.525 34.4336 3.31699
44.1405 1.64733 0.109518
368.229 35.687 3.99764
88.8115 7.21347 0.868142
614.968 85.5557 12.2587
620.185 65.0441 6.75012
11.3639 2.60758 0.324776
14.0198 1.62741 0.0996916
331.885 56.0778 7.9249
280.77 25.2842 2.81533
168.939 17.1382 1.94822
13.9904 0.809925 0.112788
57.7167 4.14052 0.517157
216.37 22.0122 2.81592
242.04 32.1493 4.49398
66.3483 7.71362 1.02494
90.7198 10.6858 1.83338
36.5241 7.11303 0.88052
51.8872 4.63687 0.435174
739.561 108.015 17.2246
348.159 50.6471 6.56879
56.1723 6.76363 0.830881
9.53815 1.81207 0.303161
0.535708 0.764667 0.164453
32.5836 6.56052 0.866402
146.984 21.7693 3.16727
8.54391 2.90415 0.637981
314.202 48.1236 8.86779
442.359 74.3609 10.5867
51.6421 14.109 2.9304
4.41908 1.52872 0.449464
57.8455 5.3036 0.519666
20.1626 1.50418 0.114318
101.335 19.9905 3.54376
118.102 12.9136 1.86347
45.2571 6.5584 1.29887
96.5031 16.1968 2.59804
24.767 2.42679 0.451345
88.6097 11.4838 1.96193
23.8001 2.38642 0.407052
48.4657 7.47273 1.6622
87.331 21.3047 3.80169
193.841 43.3389 9.32925
402.934 57.6095 9.13634
208.45 43.4243 10.3263
122.225 15.6921 1.68297
766.395 162.537 31.5438
88.6433 16.1472 4.18233
109.771 32.5736 7.67787
52.284 9.81185 1.97301
117.883 19.1826 4.79225
482.934 102.703 20.3504
734.024 122.834 21.7929
52.9038 12.502 2.41089
79.3737 12.4457 2.23608
281.428 50.8543 10.2878
62.2527 13.6485 3.31598
94.9368 21.8287 5.9341
20.9977 3.37809 0.897398
19.5524 4.95513 1.98718
63.9155 15.4398 2.75783
23.651 4.58955 0.797077
34.0832 11.7512 2.55788
32.2706 8.26408 2.35884
5.52668 3.08603 1.23169
366.218 74.9921 16.1539
2.48015 0.150363 0.0104424
7.45772 1.34626 0.39155
44.046 13.5603 4.14591
235.13 44.7748 8.9129
135.024 35.3287 8.90073
173.076 53.9502 17.8817
191.947 46.371 9.78639
138.438 23.8948 4.06936
100.784 23.53 6.29109
0.575561 0.365219 0.53581
211.935 56.4841 13.8158
28.1133 13.1026 4.14799
18.952 11.4986 5.85698
290.773 64.7257 14.1484
57.781 16.0966 3.3942
74.933 29.7323 9.23775
241.824 58.6761 12.6311
182.647 46.6522 11.3019
68.5863 17.308 4.78082
154.25 58.1761 17.4453
102.78 28.9691 9.30523
158.684 35.0635 9.72683
293.176 72.3061 19.5753
21.4591 8.50092 3.97835
143.658 46.0934 12.2688
325.672 87.3552 23.5189
137.012 50.9119 19.9338
57.1851 14.0871 2.95313
17.3984 3.4478 0.618921
93.1606 31.5629 12.3763
39.5295 4.3605 0.108655
122.443 30.0162 6.35957
63.5672 22.0214 8.11424
118.645 37.2085 9.61765
146.012 49.0533 13.7686
0.537471 2.51222 1.26197
25.8779 10.8141 4.82236
158.533 40.1543 10.1158
78.881 33.9194 13.459
102.317 27.9616 7.6114
29.2508 8.94003 1.76522
27.2029 11.8488 4.1037
285.568 107.681 34.0423
6.78527 6.84543 3.56339
48.7161 18.2783 6.42514
124.558 67.2201 28.32
79.2832 9.91772 1.3399
14.0259 0.196583 0.209326
106.285 23.3622 5.59765
55.2426 28.7667 12.6115
269.57 75.7596 23.3414
9.30637 8.16617 4.76395
26.9461 5.45013 1.261
116.63 52.4726 25.2803
367.097 103.336 28.0755
10.159 3.30503 1.89386
99.9847 24.8411 6.29753
281.268 110.52 39.2363
17.2276 12.4342 8.08976
38.1753 7.80161 1.60218
9.07091 4.98269 2.3834
1.18271 1.75383 1.29723
162.302 78.7999 38.7405
274.13 70.0061 15.9998
215.673 76.3281 27.3449
139.772 48.5488 19.1502
43.4909 16.2051 5.66523
1.68596 0.126292 0.474326
200.967 67.4653 23.7938
86.4336 44.0168 23.3668
6.98285 0.835969 0.0524795
17.7248 11.7002 8.39894
23.8406 4.12849 0.0297116
223.1 107.458 43.8128
105.564 24.4047 6.14395
49.5054 17.9336 7.57598
12.6072 5.65686 3.49857
7.26808 4.29876 3.60194
34.1077 17.0395 8.19836
43.5307 16.4091 8.37089
29.8177 8.00698 0.81829
203.217 97.4233 38.4294
24.5654 14.5172 10.0165
106.782 43.4088 15.5718
16.9037 16.2107 9.24843
12.8082 5.90261 6.37579
401.77 167.405 68.2301
23.6413 11.6323 9.27499
60.0021 19.8949 9.03201
58.659 25.7975 8.55226
61.1328 33.1725 16.5198
156.706 55.0102 21.1105
92.6337 51.3057 27.4625
88.3328 34.9549 15.5511
28.7215 15.5138 6.50897
45.5535 16.9023 5.71459
124.557 65.9766 36.6511
29.4208 8.13716 1.32469
36.0621 17.6915 7.34837
7.09509 2.95167 0.841568
80.2305 49.6849 28.8783
91.5394 32.7361 15.4117
106.654 52.1676 26.2446
107.182 50.28 18.1902
29.1671 23.8103 14.5254
97.1849 44.2016 21.3192
0.365841 2.23816 5.07148
221.415 101.011 44.3673
1.78217 0.368687 0.31035
34.0424 24.8822 12.8598
32.0409 11.696 5.72084
36.8621 18.9284 12.3734
151.426 88.7565 41.8047
20.174 22.9571 20.2299
130.694 41.4502 13.4805
47.6555 17.6956 7.01795
78.3983 51.545 36.6372
65.7579 26.8007 9.97607
253.276 134.93 63.3832
5.10251 6.8615 5.17099
113.104 70.6889 41.2567
58.1565 28.4105 18.7945
8.59322 7.26787 7.69653
143.575 60.1009 25.3677
59.526 35.7637 22.4335
2.41078 4.91515 7.01811
2.98934 4.86667 7.10851
72.0155 37.7783 16.4218
35.462 17.1103 11.879
34.8333 13.662 9.40932
204.256 119.09 60.6246
28.0537 19.3775 11.1785
42.7605 21.6409 13.1668
32.5426 14.728 6.1009
14.6133 15.1524 9.75324
19.3841 5.79769 3.11501
51.1641 25.458 12.7549
11.9236 11.9019 11.3977
25.0674 13.2694 4.4231
34.2088 30.7345 20.1615
17.3878 21.1801 22.6922
212.061 92.0849 39.1549
75.0722 52.7408 34.8185
80.1934 50.8954 34.5715
3.32014 9.33467 15.445
74.3952 51.3796 39.4476
119.914 55.4039 17.1929
36.4588 30.373 16.1531
23.6998 21.7628 15.4766
55.8403 43.5957 29.1502
5.6402 3.69829 7.38513
35.3986 8.62506 2.27286
24.6229 7.17022 1.69547
53.6071 33.7896 19.078
186.276 108.235 59.7954
40.2894 43.5127 37.1646
14.4541 22.6057 31.0615
41.8482 13.6141 4.86522
12.4129 3.81495 0.0491716
41.0755 30.3827 16.6165
25.7962 17.7454 9.77382
45.591 27.3522 18.7036
20.185 11.7702 3.33612
35.8346 39.5961 29.8351
35.9834 15.7481 8.42598
20.6567 8.05347 3.95495
62.5897 50.2217 40.5506
19.7089 8.4059 1.81182
2.1239 4.08732 3.30527
54.0946 47.8231 48.4352
124.785 71.7492 32.1994
21.8218 24.0776 17.1679
21.4586 12.4391 6.47871
3.65319 1.86788 0.899687
10.8039 6.35144 3.57053
89.5708 90.0372 78.2098
80.0509 52.975 29.3003
16.0098 38.5926 47.1937
40.6041 5.43661 0.471536
49.0919 19.7043 7.84117
128.107 105.043 95.619
184.722 90.9118 35.5372
72.4391 51.5067 24.1586
75.3844 82.3605 67.4576
17.1175 8.77354 5.29344
3.50748 3.81794 4.90892
38.2572 22.4014 16.0164
8.65864 9.19773 7.55469
57.5975 37.1766 27.1515
28.5991 19.7154 14.4357
50.0218 35.8658 15.7752
24.677 27.5072 17.7599
60.3625 60.1445 47.12
6.99625 19.9267 25.9732
1.07398 6.95611 16.6126
24.7888 12.2166 4.45297
6.4371 16.2077 20.2836
40.6589 24.8723 17.5217
68.4769 75.2939 80.6363
146.035 78.7557 36.5509
13.7473 9.21264 6.38159
9.21648 7.37899 7.41502
0.269138 0.971673 3.52033
38.8343 46.3777 43.0138
82.3394 53.9961 42.0555
58.6007 54.416 40.8552
34.4065 13.4333 4.36096
46.2636 43.2148 41.335
33.1106 29.1478 26.2335
78.4986 75.55 54.1184
21.5748 33.9685 48.0374
61.6734 41.5709 23.2775
19.7736 25.9508 26.2426
5.88158 2.36262 8.23175
21.1754 2.73799 1.30845
109.68 73.4726 42.8533
60.612 80.9535 95.7475
18.5468 3.55805 6.78259
26.8589 9.4457 2.20281
121.804 101.001 57.6167
49.1785 67.0709 57.4075
3.83233 8.45496 9.64501
12.5749 31.2819 38.3577
11.1123 17.9757 34.8427
53.1395 19.1594 5.18312
108.022 125.699 120.233
39.9693 16.0191 12.56
34.4158 16.5961 15.8124
137.385 111.719 81.367
0.69815 6.77779 13.9641
22.8367 14.7579 12.3333
1.48575 5.71174 18.8562
113.892 113.146 86.5795
7.17259 3.92889 8.36991
130.373 145.188 139.051
11.2323 23.2845 67.6404
153.983 78.3357 24.1516
61.28 66.2968 59.8619
90.9933 69.1939 52.4873
10.509 6.71058 1.2846
79.5193 91.1274 82.9958
18.1657 22.7641 31.617
5.02798 13.1455 19.9543
13.3332 33.2698 67.8816
68.3419 30.2182 6.05822
15.15 10.0997 5.17487
16.6347 6.47701 0.522768
38.7626 32.9997 22.8718
10.5547 18.2616 18.6099
13.3805 6.3097 2.21181
57.2657 89.5465 118.825
77.3507 35.6793 12.1682
65.4024 67.3528 54.7224
14.0565 42.7578 79.9245
99.7918 76.5877 51.2545
20.8066 22.9095 17.3325
15.7543 28.6757 39.2664
0.952709 5.51308 28.2462
80.2007 51.0601 29.346
27.1283 33.1712 28.9808
8.41392 2.10892 6.1052
96.7533 88.0337 69.3385
1.31058 0.254816 0.426541
1.57297 3.51414 7.36101
79.8343 81.1316 77.4224
2.52877 0.286741 0.466377
0.733995 1.00406 0.375996
12.9262 17.2252 29.8112
60.4164 62.1711 42.401
17.6463 50.3558 83.024
94.848 63.9379 41.3497
15.9365 22.1774 21.8552
28.9562 34.8953 39.3771
11.3274 20.9412 41.3827
33.5389 23.3136 17.8634
4.91553 5.111 3.07363
17.874 24.3232 36.5968
9.68829 3.91293 2.12399
60.0082 88.9591 100.365
61.9439 44.4297 31.2897
45.3238 68.4439 100.465
46.3343 35.4465 22.0189
17.7202 24.9709 24.9277
1.96981 0.973498 4.10204
24.4257 21.3075 16.5054
13.0134 28.1205 50.0281
32.6374 30.3303 26.8184
28.9008 23.3444 19.5188
3.90728 7.65664 16.8156
43.2097 61.5002 65.1115
26.4587 26.5951 29.8717
8.88058 33.8811 80.0856
84.0712 75.349 73.067
35.7633 43.161 43.4249
30.8903 33.3834 46.8135
49.9066 59.6462 77.7023
17.4994 17.1687 29.7105
30.2166 21.4756 10.4361
22.9794 17.6047 8.08027
28.0977 48.4453 72.3515
16.2538 8.13953 2.07283
19.4163 37.5451 63.0604
86.4242 88.0611 70.4736
1.79361 3.7147 5.66131
1.63184 0.925963 9.5998
50.0422 60.1832 46.8423
14.3313 37.9835 53.5815
4.82282 1.75781 12.6105
51.0545 50.2652 52.1018
33.7852 51.2843 59.5561
17.2553 12.6538 13.4582
10.192 16.7325 25.5529
14.7563 16.9678 20.1459
23.1038 29.1282 42.3151
33.0813 34.4574 19.5845
5.47886 10.0581 14.3542
30.5404 45.49 42.6348
28.4624 61.0549 79.9203
5.104 8.21622 40.7369
80.7099 82.3592 46.8124
38.1278 93.5701 125.604
49.8572 99.8312 159.497
18.3838 6.31945 18.8144
13.9961 6.53029 5.50992
15.9858 31.2898 45.0318
2.8092 6.82774 29.6739
32.1034 21.6693 13.421
0.617993 6.25436 14.6534
15.3079 37.6936 80.127
48.2241 30.2522 18.7622
3.38157 1.47978 1.46941
6.20342 15.6501 28.695
5.25983 5.67074 23.9114
21.6481 12.5085 7.86001
10.7262 25.7047 59.5981
32.7317 13.2507 14.2873
44.6268 31.6978 13.4141
22.0969 37.0404 67.7797
61.9923 67.7193 62.04
11.6417 31.0642 78.187
104.085 97.8006 70.0791
16.4552 25.4925 31.1651
1.15906 7.89237 23.875
34.6335 48.108 69.0869
43.3976 61.5807 81.4283
32.2618 42.6136 56.473
17.1395 10.5672 7.01814
9.45445 11.8435 25.4654
62.0009 75.1033 85.4732
62.585 102.855 171.564
59.4756 47.984 29.0868
3.47815 3.75412 1.473
8.77327 9.60034 7.8607
35.513 76.3296 130.852
42.7592 58.6306 78.2164
47.3157 48.8356 54.4848
14.6321 26.6337 42.7604
8.72196 3.71319 0.203499
20.0316 42.5908 59.5528
3.57439 2.89565 23.7671
29.8767 16.8327 8.16848
18.3979 16.4524 28.8172
67.1356 72.2572 43.9154
33.604 67.5692 74.858
14.171 58.9852 108.896
17.0629 46.9609 124.818
21.964 9.58647 26.1248
39.3635 27.8066 17.2461
76.2406 124.298 174.464
11.8456 15.7277 45.3598
45.7338 34.5702 10.1203
70.5899 146.459 240.853
18.0483 5.28556 6.88763
15.279 19.1333 22.0077
3.87183 5.49568 4.7717
9.01362 28.4279 52.1695
12.6372 3.32539 0.732194
26.991 35.3157 38.7818
17.0738 38.7067 66.8494
0.0743333 5.83785 39.613
22.2605 23.4935 14.55
10.1485 15.2249 16.1971
7.94736 20.9054 25.2309
2.55843 15.8547 33.1933
16.6993 44.8282 99.9081
4.18857 3.75822 52.1651
45.5324 40.7499 43.9033
17.1231 18.7834 14.6116
15.4708 16.5717 13.028
1.45077 2.59367 6.32481
8.37146 21.8812 64.1453
20.3291 11.156 2.48019
18.5668 23.0879 11.9525
10.4589 25.2019 29.3032
21.2763 46.3676 80.6189
11.4266 6.14389 3.635
1.34999 3.51755 13.6462
15.6095 38.8025 67.2418
19.4094 12.3651 14.4639
30.8315 40.258 36.7704
11.585 28.6016 47.6593
15.9172 57.148 150.896
17.1349 2.512 11.7124
24.4037 24.531 7.04994
33.0112 84.1334 146.187
23.1832 18.218 25.391
4.09843 3.5769 6.98616
2.72301 10.0064 52.9339
85.3495 163.289 241.625
40.5352 36.7021 38.8889
13.2974 38.2101 103.399
36.891 35.0689 14.0511
7.91187 33.8129 115.268
133.896 249.672 339.258
15.0372 9.13584 28.4097
2.26827 3.84627 41.0144
24.4973 11.722 7.13715
12.1753 4.86283 2.65635
46.8622 70.2638 70.6605
3.4958 13.2891 22.2237
3.29102 15.6494 34.9045
13.0544 11.8757 6.83749
14.8187 38.2806 68.6302
6.24636 37.689 130.438
28.6301 17.5351 1.25008
5.19541 8.33141 26.61
33.3384 71.0051 105.17
37.4549 64.7532 104.914
17.2882 32.7757 90.5671
17.3538 8.90584 12.4107
28.8567 51.6975 55.1186
16.7291 42.6407 95.4601
8.09451 1.57017 5.26896
10.7909 14.4111 10.9686
0.75243 5.21557 18.5795
5.40575 8.20372 16.8813
10.6019 18.6149 23.7777
0.0179777 2.41712 15.2973
0.970405 0.434238 14.8738
8.20416 7.11626 3.34071
1.04735 6.20261 46.4633
49.3428 84.1347 95.6687
1.53717 5.31672 56.4265
51.7765 76.2985 68.0451
25.8926 77.7413 122.145
3.14999 7.02144 32.7132
9.14008 5.3211 1.91544
2.13273 6.36583 18.6018
16.6535 23.8419 25.168
1.90772 6.0219 26.6511
27.1772 83.4214 178.346
44.5434 39.9877 30.284
15.2993 62.535 179.101
59.0897 62.0533 40.7336
9.14893 43.0236 137.294
33.4783 36.9832 18.2177
12.474 40.2442 100.855
23.3457 30.8414 22.113
6.08319 22.4232 46.0721
7.99976 3.31584 0.242268
22.9745 65.2991 146.674
11.313 5.40559 28.3455
11.7679 7.81605 17.3196
40.3958 74.2627 62.0802
6.69724 43.7277 121.052
19.2979 11.2849 0.0829084
14.359 33.4434 34.9214
1.74235 7.54175 14.3243
1.87949 9.73609 22.6569
6.87434 8.53739 20.4105
5.43392 8.49546 5.55818
3.47264 15.0399 73.09
39.2137 68.4225 68.1073
12.4499 33.6079 45.24
0.691163 10.5817 36.2685
5.44797 9.21384 15.2754
1.26971 0.719274 14.0222
9.56122 12.5691 8.45761
4.04464 5.3648 7.32088
3.07777 20.7362 138.003
87.3776 133.58 77.6188
23.387 112.818 200.377
3.61223 10.5425 37.5822
1.28643 8.89415 33.2492
20.4276 59.4506 115.75
8.58234 21.2187 53.166
6.59949 13.2738 32.5759
2.6557 15.6661 49.4266
8.14659 16.6298 39.2096
1.59668 29.0655 133.715
34.2653 32.0116 35.4216
4.45271 10.9784 66.765
28.95 25.8361 18.278
11.1437 29.4327 53.1245
4.51747 0.498913 2.08298
6.5204 22.8991 82.9892
35.9624 67.2273 105.252
9.80876 4.73765 6.91184
5.47859 11.5299 24.123
4.902 11.0074 17.3075
1.07062 23.3194 128.238
55.2339 68.7964 52.6934
5.27026 27.2495 82.4713
8.46287 0.618105 19.972
30.9328 44.988 40.7749
7.54914 27.7386 68.2559
27.0161 83.398 209.135
15.5227 3.02893 17.0063
19.8227 37.3938 55.0302
27.3476 53.8216 56.7538
0.589298 15.8016 48.2998
11.7738 18.5897 27.0567
0.622195 18.8347 88.866
25.0679 30.2041 40.777
4.27515 7.7371 16.5669
4.15822 7.90752 11.8703
18.5185 81.5752 193.292
20.1092 16.0795 50.9836
24.4799 32.1835 42.4564
8.15652 18.7182 68.4573
22.5449 37.5706 44.4753
1.45846 2.47272 9.62707
0.269038 3.23458 49.4661
28.7189 63.0268 79.155
6.70336 9.12337 5.72236
2.68801 18.264 32.664
5.46638 52.5455 187.711
24.0202 6.88781 36.6186
41.4394 67.3203 89.113
12.9045 28.8015 72.2719
27.3299 39.791 31.3766
10.1654 48.677 146.373
19.9509 31.2029 32.4166
20.7217 87.1033 244.878
28.8316 19.0564 26.0004
22.1331 56.2352 97.5636
6.6327 14.4507 37.7196
12.2955 20.9098 15.0922
3.76329 36.9296 131.368
35.6418 105.386 286.955
50.8098 45.4591 20.6334
3.69506 6.76674 6.8996
1.37177 7.82841 36.6501
20.0234 42.3171 70.2581
6.17865 15.6648 55.8119
14.8981 44.6739 108.623
14.7647 24.8808 48.1391
11.0966 10.6463 5.95945
0.694365 1.56882 6.70757
1.80013 8.00681 23.9635
16.4938 64.3381 176.756
7.71546 6.20907 183.368
92.8168 129.099 49.7365
49.6242 196.546 348.298
9.72607 67.7032 316.868
40.2694 30.5105 55.4704
14.8888 33.4988 67.9673
8.43985 6.37792 43.0125
25.842 36.8819 37.173
7.54184 6.92931 14.6418
37.4787 111.652 220.388
6.19623 3.11859 7.90989
1.9635 18.5183 112.263
27.3794 55.8034 71.8305
6.05702 12.2049 56.7479
19.4697 58.8395 108.19
8.96237 15.9636 52.5231
14.8769 28.5667 68.6878
5.29049 2.78826 18.2587
8.9893 5.02781 4.98971
19.4461 42.716 48.1208
1.18241 11.2488 33.3133
0.659386 4.67614 33.8886
8.70236 18.5004 20.1194
1.22662 2.72351 6.99432
7.24958 30.7659 57.6252
0.724663 23.9458 98.0559
1.68537 15.5509 168.511
32.3492 18.6826 41.8362
30.2317 39.9138 9.89996
33.0565 120.397 189.741
7.19677 13.1601 21.6048
4.30409 53.6778 218.116
34.3117 63.7284 164.532
43.6679 80.1203 102.154
16.4572 80.3506 289.882
37.9751 67.3639 94.3935
2.89355 0.248212 22.9801
10.0073 32.3373 94.8531
31.6886 91.0988 221.06
10.0525 0.191313 42.3085
15.2826 15.4984 7.59881
14.1449 43.4587 40.3707
1.04961 18.0677 48.4827
1.95566 1.53574 30.8771
12.9519 19.0578 13.7628
1.1185 1.72624 0.797116
12.1408 55.7433 143.202
9.18157 22.5504 53.9652
4.22778 13.8648 95.635
19.1591 23.075 13.6788
0.577774 1.76007 12.7751
1.48557 0.610197 12.8764
10.8517 35.3173 58.5124
2.48058 18.0611 102.547
22.3535 24.0242 10.6627
2.87341 12.0977 62.2471
25.8061 66.9893 135.116
12.4915 22.0036 27.5239
1.73004 8.95433 33.2599
3.39634 9.93865 27.5775
1.3644 9.38851 39.4789
5.35905 12.8848 46.7382
0.828433 5.77502 123.432
38.7749 91.8697 116.225
3.81852 0.145606 16.2413
9.41422 21.2302 13.5314
1.21453 10.4354 18.3096
1.98722 9.22686 22.6158
0.317992 9.33139 50.5916
3.94772 21.7728 189.035
31.193 37.9237 255.333
142.149 429.529 613.94
17.212 107.905 430.603
29.3622 4.86655 12.1511
2.55701 7.88815 84.0976
12.4959 5.98764 16.3715
7.6738 26.4671 70.0003
5.63964 0.793205 78.7381
35.6445 65.35 41.987
6.38621 40.7894 125.728
10.7095 18.7666 18.4933
2.21676 21.2296 59.5334
2.30771 7.38021 70.0457
9.99796 3.03556 42.9865
17.905 37.7636 90.2118
24.4421 45.0211 78.4573
29.1771 83.3205 146.965
3.63806 5.74545 40.6769
22.7653 54.3373 54.7899
11.8704 84.9966 274.309
9.91291 0.0427239 43.4582
11.941 26.5609 43.1213
0.549778 6.84917 61.834
10.2217 15.6189 25.8418
1.40226 1.53409 23.3929
11.0533 57.3997 258.903
45.6057 94.6099 87.5388
1.78111 7.04065 21.7499
5.28745 27.4174 62.5719
9.17603 26.2522 41.8222
0.373104 2.8747 14.3412
3.55776 21.0891 63.2288
10.4939 38.0981 104.143
6.82044 1.78386 16.5961
12.2337 53.1517 85.5714
0.158429 27.8244 183.97
25.2405 21.6318 6.24225
1.47183 12.002 89.6063
17.7437 52.0926 94.2657
12.9095 53.9836 153.285
12.6326 35.386 149.645
11.9828 20.219 235.639
67.4103 123.23 86.9216
3.96237 31.2527 78.1686
6.30519 17.6914 68.3598
7.39272 8.68933 30.7667
11.9725 28.7541 38.3611
7.47492 23.6436 32.4519
3.36522 31.5772 116.182
3.90867 0.0226387 18.9549
3.12836 21.4183 78.9038
5.59917 1.79339 41.0184
7.49262 9.11647 37.1328
10.9265 12.6514 4.17997
1.21065 3.14279 14.3542
3.35077 0.638578 66.089
39.0235 111.251 158.611
2.93259 25.3032 125.377
10.4406 22.3781 39.4705
0.830149 1.12056 19.6876
3.40393 14.9481 25.3741
1.91248 18.8577 118.851
13.6572 20.9277 50.7485
13.7653 72.5546 204.703
15.0172 5.19992 15.8541
9.09974 23.3763 38.1945
2.8294 3.88364 11.7511
4.42617 26.1294 83.9932
9.8405 25.2899 85.0445
3.86334 0.456998 19.2072
4.843 20.8551 106.804
22.5756 57.9394 58.382
1.3379 13.979 60.2659
5.55149 6.59581 6.13915
2.42501 20.0814 47.0867
5.33861 32.8795 68.0318
5.23915 73.8562 351.107
30.1484 44.7885 264.854
39.375 35.3995 24.6321
10.1323 15.2235 62.4868
15.1889 9.40565 27.4878
29.4169 79.0464 77.7869
10.2849 52.4552 116.983
2.04353 0.238891 8.30185
5.06595 9.63428 1.07226
6.00615 39.5896 141.983
12.4167 20.4846 17.957
3.314 23.6824 61.745
7.59046 20.2127 36.8872
3.55503 31.5087 123.91
6.56875 3.0923 0.91918
1.55291 6.6065 38.9728
5.16557 15.358 29.5259
4.88899 16.0084 42.3979
2.69055 14.0185 49.7064
6.48047 41.4097 233.757
20.5195 20.3568 3.10186
6.38813 29.0528 17.6106
1.0462 37.7525 163.744
15.6453 22.0143 40.5523
2.47862 6.25205 97.4581
19.9253 25.9045 36.0615
16.7286 56.4506 83.3285
2.69212 11.7697 11.6955
8.4576 71.079 250.359
12.3679 21.9004 84.7231
2.77544 4.41035 76.34
6.43602 1.43791 37.9179
11.9705 41.5814 75.2614
7.31369 23.4215 72.0253
5.06984 4.38509 1.44238
1.89833 11.2948 96.6273
15.282 47.9027 60.4576
1.82792 1.64313 13.684
0.876974 1.10042 59.9961
13.55 27.4076 3.98466
3.23125 23.7212 32.3048
1.41106 21.2934 55.6116
3.34058 35.4743 167.174
18.6157 34.421 99.1868
13.1378 54.8958 137.342
8.16199 5.34323 28.7284
8.59722 25.7589 53.6831
2.23584 11.5095 22.9025
1.2808 7.41049 29.7734
0.815079 18.6093 128.893
13.743 12.2267 2.64121
0.430765 4.0481 53.2259
9.6917 27.4703 52.2143
3.18862 9.2865 35.8366
4.50053 6.52601 21.4353
2.2671 38.7567 263.379
30.1653 22.3995 17.7802
23.1274 102.858 189.594
9.71748 30.5108 143.125
15.4267 25.709 22.5265
4.30449 29.3149 83.7002
3.06575 12.8857 67.7223
6.04691 41.1986 243.97
26.7469 58.8874 117.797
12.9043 47.696 117.68
11.6546 37.9431 98.7323
11.196 86.1771 409.277
44.1173 63.2785 41.2709
0.0961301 4.18502 31.563
4.57276 47.5569 307.773
43.9801 89.1182 79.675
1.57705 9.51867 5.40218
4.21089 40.109 72.3482
2.16346 28.2711 127.436
4.03996 0.2374 11.724
0.70003 45.2324 314.434
23.8168 9.1126 28.9517
7.25249 4.90491 67.8576
20.7433 52.1161 17.4219
1.9899 34.643 100.256
6.17149 4.55608 25.0099
6.04711 12.0885 14.6175
2.41001 9.95108 38.4837
6.27429 27.5121 66.2292
6.45166 15.1829 21.5125
0.318897 6.50436 56.5977
11.7785 54.8971 168.333
7.15346 11.6872 42.5554
2.33853 8.04248 72.0976
6.20607 7.0746 9.14622
2.00394 6.43202 0.812545
1.03022 9.57772 9.18411
1.30522 10.751 26.9498
0.590352 2.08832 19.6585
3.07201 8.64828 52.2978
8.95001 46.4529 130.304
7.4313 4.66108 0.973969
0.341901 3.86131 48.3822
8.30541 50.7815 144.406
7.26449 1.69052 1.87814
0.102815 7.03191 66.8091
7.42712 5.01261 11.5383
7.2075 31.9696 85.5167
4.01629 17.553 112.662
11.149 45.9157 145.919
12.0784 10.0361 27.8173
3.46488 1.8664 69.7578
18.39 69.088 53.9166
4.77062 98.7367 590.545
51.319 83.4027 45.993
0.0579327 12.2 90.7814
7.98287 18.7447 9.22804
0.0466859 5.16604 48.2653
9.89494 59.526 161.329
7.73915 6.81582 31.0698
4.62218 25.6658 128.986
11.5361 8.58698 2.59158
0.549485 2.09399 25.4752
4.29466 11.4589 88.72
15.5917 34.6498 20.1338
1.05906 31.6521 204.369
16.0162 18.8169 27.1066
10.8515 46.7336 53.0615
0.184713 7.62807 39.1501
6.55346 82.0961 326.52
16.5913 12.3122 169.532
24.6587 35.3609 6.51931
6.80364 60.4681 263.847
18.5623 38.8706 20.3961
0.289905 10.2878 36.5712
1.87026 9.67272 48.3108
4.15928 18.0306 139.381
13.8039 6.85338 24.2331
8.13213 22.5785 104.745
16.9606 37.296 28.3364
8.63492 45.8325 104.587
12.3754 66.3643 139.495
3.38506 21.3396 89.2112
1.98873 10.3585 184.714
20.5207 52.6221 46.4534
0.0622036 18.5284 114.835
4.02107 4.4188 158.999
18.1654 48.435 29.2462
0.553405 6.44407 42.2056
4.98953 17.0405 60.664
5.11436 26.4578 56.4061
2.7851 0.505855 29.4399
5.73163 14.4875 39.7834
5.15712 46.4277 196.347
11.2869 43.3016 291.943
27.9673 27.5313 24.4283
11.7568 49.722 97.6041
9.84347 35.7414 86.3496
5.79407 11.7678 27.3284
5.72526 32.8798 58.1197
0.977602 7.66102 41.2174
1.93743 5.27181 81.0241
14.0991 86.4174 178.827
7.17916 3.35099 14.763
1.98034 31.3252 133.078
10.4374 13.6593 22.5034
0.949614 0.262628 25.9401
10.7722 81.3071 322.73
17.3672 26.4711 30.383
2.87492 5.99315 12.6421
0.546347 5.34637 8.28926
1.8621 23.6488 96.6815
2.63233 0.862971 44.0806
3.91417 13.8471 61.7659
2.18009 9.73123 193.993
20.2903 65.0231 67.7302
1.71101 2.06255 27.5209
4.43744 23.2866 114.277
5.61057 2.71302 95.9099
16.2578 58.5477 82.3334
1.02761 2.45633 40.8565
1.70551 0.413654 8.15892
0.299228 0.410666 21.6105
1.05358 0.861912 22.9956
1.03389 0.780509 126.126
15.6149 50.7594 16.4136
0.211168 25.4554 133.049
10.6617 17.6614 48.4069
4.26987 19.7871 74.9479
8.85253 41.7518 121.973
11.0493 44.054 21.6712
0.0683903 23.9607 32.4916
0.212935 34.2191 151.045
6.9483 6.88898 144.398
14.9913 18.3432 39.3461
4.36646 5.11257 2.63686
2.03568 14.2524 37.7479
1.4875 28.2318 233.452
21.2038 34.1118 51.1353
10.1758 44.8696 52.0769
0.172156 14.8071 82.0018
3.43684 1.96289 8.93459
0.900009 2.07587 35.0506
4.96362 44.0425 122.711
7.18581 9.0265 53.4581
3.61369 13.5867 47.8044
4.82428 27.7734 158.985
10.7437 3.61413 52.483
10.6584 66.8531 224.095
15.5908 36.001 100.908
8.60901 15.2704 23.31
0.360274 1.03331 32.5988
2.71172 11.3682 72.8381
7.79329 7.07964 3.18422
2.35771 6.83054 61.79
9.41232 54.6031 153.592
13.9128 54.6663 196.728
11.7033 23.2241 21.2845
1.18448 2.22398 2.33204
2.11077 29.1904 164.682
9.22762 9.07916 9.1394
4.13865 45.9822 216.761
14.1024 34.7252 60.802
5.29181 19.2095 87.6082
6.20311 13.2921 36.6382
5.18976 17.9684 31.679
0.291033 1.6796 30.0724
1.44158 2.01031 6.29692
1.25845 25.376 133.682
11.9366 21.8572 47.0334
7.90175 62.5066 293.946
17.0473 44.6451 143.676
12.331 22.3484 18.8725
0.118273 0.353217 27.2459
3.37305 18.1421 44.1158
2.9439 8.21935 40.6898
2.1965 9.16613 48.5586
5.07475 22.5406 98.3173
9.91785 16.8651 7.76126
1.50993 5.42773 34.5428
10.1491 100.57 358.685
16.1599 16.1032 129.859
8.58225 6.91295 48.1939
8.05917 41.3749 57.1811
3.26704 24.2684 57.0849
6.1184 77.3849 198.321
8.85127 2.7118 30.4463
3.20588 27.4492 169.109
10.6498 10.5768 163.027
15.7528 38.8151 7.82287
0.293157 21.374 122.854
9.08919 9.42635 7.24999
3.87542 42.8518 206.488
14.0702 33.0388 52.4258
2.23489 4.74345 27.2796
1.1866 4.32835 2.93248
0.133766 2.77579 37.7573
5.31707 17.6204 29.9651
0.663411 14.2936 112.642
8.45781 14.8266 16.857
2.28295 12.7305 47.5265
1.86342 3.79396 18.892
3.54758 21.2084 86.3114
3.98019 12.4596 99.4159
15.053 118.703 581.865
34.9337 60.2057 25.8931
0.686666 3.03559 22.0688
2.90509 17.8237 49.6818
0.768142 7.26836 138.463
8.33549 14.8575 54.8797
5.30826 17.333 51.1432
2.03845 2.73908 116.172
10.0638 25.0295 5.89839
2.47071 46.0533 124.517
8.59039 15.4579 46.8799
2.17522 5.04924 5.86945
1.67371 21.1215 27.2512
0.90616 25.8772 75.9333
2.60433 8.45829 211.461
18.0389 49.7687 26.6353
0.312112 14.6198 107.316
8.54732 4.15346 16.6409
4.59539 29.3549 83.6397
2.87478 1.81816 5.30661
0.208317 0.0795525 11.5185
0.832079 4.70848 7.85442
0.784766 15.1393 114.42
10.5324 39.0734 123.465
7.39068 38.5096 126.672
10.002 23.3208 48.3564
1.6007 1.00986 18.6421
1.7597 15.8383 51.7191
2.70474 6.44273 2.79235
0.446444 23.2634 116.491
8.73746 13.9538 37.9713
2.95291 37.1028 82.5644
3.62224 8.64952 156.642
14.0668 32.247 132.67
11.5484 22.7577 10.0541
0.230267 3.429 7.53442
0.0652129 2.71729 30.1172
3.03062 11.3829 53.7684
5.28011 12.4717 9.30907
0.405086 9.9632 48.5682
2.34694 2.08785 20.2736
3.86837 29.2295 110.797
4.48296 3.02867 40.5012
3.53744 25.9087 91.9389
7.18305 32.8135 129.371
7.81976 8.73876 3.87683
1.02111 12.2407 5.08729
0.170605 9.3014 37.2732
3.07032 5.00748 1.02861
0.405441 23.2998 132.118
7.34336 1.90016 41.0406
5.01169 19.0431 175.973
13.5353 33.2547 3.96934
0.729791 30.6139 80.5901
3.57565 1.14489 75.9452
7.57435 20.236 19.4572
1.56902 16.4428 82.3874
3.63266 1.97036 43.6913
6.01977 55.5564 141.178
5.77005 35.2936 322.789
25.3945 52.2685 58.9281
2.09151 8.29487 12.2444
1.35385 8.20867 47.6679
1.88612 2.61729 12.1973
0.998482 4.17253 0.911557
0.371227 6.57133 88.1467
6.75341 56.1844 212.925
14.6204 11.22 10.4109
3.69696 39.5106 110.67
3.34438 1.31346 105.705
6.88444 18.9846 59.4019
4.1603 22.1311 47.7073
2.58999 2.58666 44.6275
4.65237 28.646 27.8588
0.987758 8.61843 50.0279
4.08371 6.42417 5.18963
0.91803 24.0567 273.944
23.6288 77.3174 91.7078
2.08677 13.3918 350.893
31.7503 152.185 318.02
12.6765 14.1726 112.999
7.42507 42.3821 124.026
9.24113 25.5944 94.0578
3.80867 0.679721 59.2242
4.12625 8.42804 88.4083
8.90147 85.7258 144.91
8.8471 36.0721 48.5896
3.08312 51.3769 277.191
16.6507 17.5436 135.039
8.88212 20.2708 68.3079
4.10245 20.9994 32.4678
1.6681 10.8201 20.6382
1.12572 4.10832 68.4125
5.44906 18.2523 22.3904
1.14548 2.46498 31.5949
2.96014 14.9498 43.4701
2.14133 4.48074 106.683
8.45741 6.31502 11.4039
1.71165 3.05832 19.8914
3.13441 39.5457 116.057
6.23929 0.445934 81.2548
7.33863 20.4191 2.78081
1.45149 40.8891 186.611
13.2631 51.4532 196.217
8.74425 3.77362 81.058
5.92202 8.72469 5.58756
0.487903 0.192137 69.9521
5.87846 33.6402 8.64313
0.0946113 15.5451 36.4497
2.29205 6.40725 81.734
7.2714 16.0708 35.0157
2.4342 4.2692 9.00361
0.523384 0.513198 12.7188
1.71358 10.2637 9.4909
0.152292 9.92487 44.6726
3.06121 1.14557 86.8021
8.4275 13.9234 40.9476
5.74703 44.375 28.6121
0.109299 25.3888 109.455
3.79195 19.2783 239.685
13.4384 24.3416 115.859
8.13483 10.0862 26.4175
2.53498 24.6736 32.7244
2.7127 16.2642 9.66534
0.638011 23.6017 188.076
14.1155 12.1707 75.9825
9.88948 78.7946 121.674
3.70131 10.7892 110.694
6.83415 12.381 157.306
9.21288 14.3144 89.7918
8.75671 57.8212 105.482
6.15128 10.311 19.1163
0.54322 15.0172 208.753
12.7822 53.9323 59.7697
3.5919 3.68882 41.5768
3.95171 10.5041 56.4443
3.06047 11.2756 9.31488
0.348337 15.9552 22.4626
1.10235 16.7563 177.713
12.8307 4.86144 104.835
10.0932 42.6818 23.7775
1.55515 20.1468 86.3402
3.74863 3.59537 0.39753
0.16106 0.649011 23.3516
2.44643 18.7031 99.5687
5.13891 14.6818 18.3793
1.47025 7.5625 8.91132
0.875635 25.842 164.938
11.5221 0.914871 100.628
9.80211 22.791 75.1692
7.15445 40.2719 82.4113
5.24525 13.6996 53.7538
7.20474 92.0967 196.439
7.24283 5.0218 169.199
9.64087 32.8721 94.8856
5.32571 56.0584 174.449
11.7116 13.9409 41.5961
2.84731 22.2082 408.414
29.0964 106.956 125.869
5.38791 1.86077 8.23317
1.41619 24.4398 153.349
8.32242 49.4999 294.835
21.4082 94.1803 272.841
12.8442 5.59921 21.1762
0.978705 4.53209 1.73007
0.190259 1.93961 1.8087
0.063869 1.43949 4.96446
0.808561 16.7519 105.144
5.20332 2.09203 140.936
8.46342 26.1943 1.82254
0.190593 1.26052 12.0547
1.11212 4.43338 15.3289
2.06313 15.7413 33.6744
0.920354 3.06923 104.19
5.40395 8.3441 24.2746
1.61374 21.4793 11.7458
0.9772 4.59711 33.4841
1.51005 18.6196 67.7651
5.62595 26.0539 168.431
9.05844 17.1982 17.394
1.76649 12.4402 59.6036
2.92077 24.8967 48.6732
3.38084 1.20393 33.0526
3.30231 11.4032 31.1693
1.26434 6.64209 17.2575
1.14274 12.5704 217.156
12.5591 20.879 141.304
9.1263 102.005 161.99
10.3709 0.971973 17.1523
1.32431 16.0808 4.86387
0.175835 31.417 283.01
20.5162 40.9342 32.5641
1.11565 18.254 248.283
15.2382 75.2634 92.1439
5.53572 2.79337 90.882
6.40985 18.5456 32.6444
1.58494 7.18132 43.5756
3.37374 24.721 162.736
11.4212 40.6483 77.5478
3.46203 2.61205 49.0931
2.70673 23.1509 182.371
10.6727 57.8057 120.991
8.92944 19.5315 97.6039
5.42629 23.152 72.6588
4.46564 9.58619 7.24088
0.221988 18.4403 40.3085
3.29052 19.2353 259.199
15.0071 61.5286 99.521
7.03359 20.1271 11.162
1.13901 40.7787 214.328
15.09 7.034 32.2355
2.89326 12.0101 2.42874
0.015638 22.0119 91.1662
6.56096 0.508183 101.531
8.28555 11.3426 41.4778
4.20512 30.082 52.4311
2.6053 23.2878 18.5705
1.196 15.5216 60.582
2.63116 3.05259 24.3585
2.15131 21.2865 149.709
8.13495 8.24206 102.632
5.16835 15.7623 49.3302
2.83073 17.0759 146.208
8.08037 37.7334 19.7185
1.61922 6.39184 0.313521
0.0312084 20.755 68.0555
5.32743 0.486857 76.8555
6.48918 23.5244 65.91
3.59912 25.9759 160.422
8.85281 18.9397 12.5917
1.03446 11.4037 58.0174
4.85536 28.8307 75.8086
3.69647 10.2869 18.4582
0.897581 45.3159 334.285
23.0211 48.2122 17.7033
1.41142 10.209 48.2025
2.55258 21.6946 132.959
10.2101 25.7313 153.752
9.09168 24.3122 30.2044
2.76715 3.64959 55.3717
4.6638 1.93268 42.7207
3.85803 28.1705 109.43
5.48056 67.6685 211.677
13.6142 2.41745 167.129
12.1836 30.7815 21.5002
0.670743 0.511127 8.69868
0.629841 0.650979 13.7863
1.27788 1.00705 21.4831
1.44757 6.05198 118.657
6.08051 60.0228 108.388
8.3706 2.19795 3.55045
0.594993 1.83933 61.5931
3.82704 21.643 26.9469
2.35645 3.83203 140.084
8.18659 82.9622 118.27
8.49166 3.6141 51.9632
3.85038 4.38737 136.956
10.3597 13.9819 65.5186
5.24757 46.4812 146.114
7.77435 12.5269 7.638
1.03149 0 0