# pn-170911/RbIIA-24-RbIIR-1280-1959.psd
# Power spectrum* (dif=0,1,2) (really just |FT|^2)
# NOTE: only the first half! (symmetric)
# weeks: 1280-1959
# 1 clock-days, 0 excluded
# PSD: 1441
903.336 0.00450007 0.0123269
1.72162e+06 4.19006 0.0357515
2.06689e+07 554.762 0.0654295
1.13833e+06 27.4103 0.0510779
931462 44.3778 0.0180852
452965 70.2949 0.0142852
974.484 21.8215 0.0391915
83749.8 50.3457 0.0235551
131380 5.61995 0.0487914
45931.1 0.330401 0.0413052
401547 228.71 0.0306525
50582.4 60.1791 0.0213953
50471.8 13.6953 0.0817589
75012.2 61.9352 0.166741
18443.1 8.03128 0.013109
123344 85.4128 0.236643
14061.5 20.3288 0.110566
53219.7 46.8466 0.198826
10689.5 64.0728 0.166707
24384.3 81.3847 0.275573
8447.43 59.734 0.10471
17109.5 31.126 0.00844202
4907.23 37.8336 0.0627283
11910.2 1.2207 0.0478536
25454.1 26.4213 0.197164
7388.09 3.77596 0.00725047
36581.6 72.9826 0.450242
7875.02 4.6139 0.00683931
15585.9 54.4427 0.0706957
18038.2 118.644 0.692133
385.151 32.3123 0.19595
15790.1 20.1132 0.060762
2105.78 57.4088 0.291734
28946 62.2766 0.416833
11417 50.3512 0.112812
219.887 24.5383 0.196153
7119.2 79.4602 0.730703
12334.4 47.966 0.135962
2699.34 3.13463 0.105878
13395.8 28.4544 0.222456
696.244 5.07621 0.0701932
57053.2 352.177 3.40468
1768.26 23.2564 0.110227
26774.7 126.099 1.32911
29085.9 150.367 1.6047
34.0401 20.4831 0.213129
45558.9 316.667 3.68826
14601.8 72.4311 0.700552
19.6609 14.3072 0.188656
26569.1 183.136 1.9362
3105.75 15.9918 0.0776331
43.1735 23.4424 0.286867
1424.02 0.181784 0.0498797
7250.15 100.18 1.81531
9386.76 51.7369 0.724858
306.005 4.79949 0.113985
8094.06 98.0505 2.03997
3043 7.20537 0.168239
5862.75 67.0014 0.695708
2708.33 118.25 1.97834
1570.28 5.17957 0.258376
3201.92 10.6874 0.269438
1605.79 57.7172 0.773235
687.459 5.73484 0.0474729
3022.14 10.8221 0.213261
2250.3 29.0209 0.950373
7728.39 72.4069 1.46223
1827.41 15.6842 0.17457
829.775 70.4988 1.47539
592.459 17.2654 0.233639
1615.54 17.3903 0.220356
1892.85 115.713 3.05249
2779.33 18.3431 0.269289
2798.17 42.2864 1.46861
4318.12 37.6961 1.08022
1764.05 6.58634 0.278956
4778.23 56.8484 1.90518
1715.9 17.1023 0.876537
4397.18 51.0143 1.39574
3514.15 56.3985 1.35118
2291.36 19.6895 0.817729
2585.21 57.3628 2.50215
2367.96 39.0447 0.934011
47.852 9.70907 0.294118
1043.96 52.5412 2.20932
388.311 1.96302 0.00879206
904.23 22.8779 1.27688
119.101 28.4826 1.3158
2410.22 28.211 1.21389
804.322 76.2036 2.33617
301.651 22.888 1.4441
7429.04 235.553 7.95715
2838.59 90.6119 4.47301
1911.25 30.3557 2.03908
2520.64 147.519 4.63803
3258.38 132.229 4.56282
1691.88 161.938 7.43763
2993.78 131.356 4.70793
3335.31 74.4069 2.95777
341.168 12.3468 1.03951
5163.51 243.18 9.60269
3035.23 119.548 5.28166
177.668 5.0054 0.124415
8.45359 20.9995 0.873956
1041.43 96.687 4.22307
7282.35 416.551 21.5573
694.659 8.63486 0.324379
2156.87 65.4482 3.7965
73.1972 10.9375 0.732477
1361.9 20.3829 1.30574
312.755 50.2008 2.44962
1196.81 41.1284 2.33506
2016.19 80.4485 5.0631
392.081 77.2746 4.82289
645.471 19.0354 1.6853
2505.54 72.4425 5.19056
222.543 17.2526 0.574847
0.360725 19.8711 1.30682
834.316 15.305 0.653788
422.719 8.59355 0.300713
2509.03 110.204 7.75254
699.296 107.201 6.78245
274.817 11.4633 1.07143
1373.93 34.2248 2.85507
62.2519 3.9507 0.125412
110.78 35.7138 2.81236
1466.97 48.2627 4.40492
431.106 10.7318 0.597239
332.056 27.8547 2.56444
224.606 30.6371 3.3446
1102.36 158.637 11.4517
2122.59 92.5681 6.71199
192.726 28.0792 1.92163
418.386 45.7113 3.86988
136.249 16.7337 1.7965
284.326 85.1645 8.32314
1745.85 105.545 7.57093
86.2013 4.74295 0.419717
424.13 42.3865 5.11734
761.887 46.9622 2.84896
972.181 188.092 16.6472
799.186 47.879 3.53125
124.446 44.8669 4.04416
27.1468 10.9544 1.24649
553.136 22.147 1.72534
72.7239 38.8502 3.76789
162.153 3.58702 0.500343
34.9942 34.6278 4.52312
2077.62 165.555 16.3482
1654.17 88.2822 8.99786
250.197 15.1039 1.97354
268.329 38.8721 5.37055
122.994 12.846 0.785163
713.966 28.9814 2.91193
1651.36 233.196 23.5082
521.542 160.933 19.4515
1292.21 56.4663 6.07623
45.8558 39.0964 3.83042
328.775 46.486 5.46152
596.405 181.053 22.9911
606.592 11.5925 0.956142
524.694 29.3313 4.13526
370.213 106.728 14.5963
36.799 13.8474 1.93413
270.79 82.5476 10.7388
15.4402 33.0416 6.8941
2708.49 195.008 23.0257
354.288 87.634 11.9856
232.42 10.8774 1.30829
873.721 80.0156 11.6542
530.781 49.0858 9.97525
438.072 24.4419 1.4074
717.335 34.0089 3.79842
207.075 13.9555 0.931275
308.954 80.069 9.88644
250.169 73.328 11.8225
927.028 43.5348 5.32424
1110.9 102.653 14.1089
242.386 4.20488 0.980135
85.5059 42.9083 6.82398
619.414 41.0816 5.33866
223.993 17.4699 3.35792
362.88 60.7935 8.81075
13.5855 11.2937 1.39163
255.936 54.7282 9.38049
318.41 148.621 25.8401
212.531 84.2282 17.2403
1571.52 117.54 16.7152
246.055 17.1242 1.64445
338.591 10.887 1.03022
410.889 37.1757 5.73513
84.5798 4.43043 0.933022
339.375 10.235 1.64915
141.668 22.9797 3.85625
231.008 86.3948 16.2557
169.578 14.0867 4.6907
506.094 37.8188 4.38014
542.06 32.5315 4.88369
66.8188 5.61045 1.00206
225.047 19.6784 4.00265
596.818 38.8598 6.4292
77.0151 11.2696 2.81933
449.038 22.4603 3.74588
112.738 21.4345 5.58475
838.01 88.0214 16.6137
162.327 80.896 15.7857
80.6624 3.11135 1.93174
805.465 58.4102 9.85779
334.477 18.1798 2.64343
733.51 71.3393 16.4747
38.8705 0.20456 0.341927
144.832 88.312 17.6334
724.173 69.0479 12.2555
112.359 1.20686 0.615304
210.514 82.6169 16.1575
165.282 24.6645 6.29629
162.696 1.15035 0.23041
140.788 2.12015 0.817865
766.568 85.0835 19.4759
210.725 130.951 30.7111
554.125 29.0037 3.48461
1198.11 160.493 37.5629
348.712 37.2678 13.0476
53.5611 30.0039 3.52649
21.3897 40.0926 8.22886
192.512 8.13691 2.84374
444.747 170.129 40.5214
9.54539 21.5454 9.23309
357.643 112.717 25.149
821.842 163.259 41.8633
699.734 131.077 31.5513
925.379 111.133 24.3149
5.9287 30.1485 8.23042
868.082 114.89 26.4922
162.787 76.161 19.5533
137.727 2.14955 0.994582
142.665 11.6131 2.39873
19.4168 10.1318 4.00893
402.671 43.1791 10.0348
265.403 14.8245 3.72399
385.155 35.7777 10.0049
33.5711 1.36169 0.131238
35.7756 6.53641 1.90306
402.343 38.6854 11.4131
176.778 89.2324 22.9087
236.134 19.9608 5.42573
45.3556 4.89313 3.94713
959.265 126.062 28.0678
461.409 63.5424 19.4408
358.129 43.7399 15.2452
93.3994 3.35015 1.67919
263.738 61.8068 15.3402
489.691 84.9594 30.4891
3.24819 9.29424 3.13703
183.198 79.492 20.9775
127.279 1.39869 0.0869071
597.533 106.572 37.6171
66.8766 20.297 3.56281
116.255 103.525 35.3536
849.624 172.891 49.3593
8.92772 13.8235 2.90034
33.3828 1.952 0.670887
47.0901 21.5137 9.31192
528.703 75.5508 21.3717
275.995 39.9674 15.2195
21.1553 20.9571 5.90949
254.187 27.2279 8.98286
127.152 16.5889 8.67171
44.5289 52.7142 16.7148
260.801 97.7186 30.2904
82.1695 4.54926 1.09092
50.4282 1.45991 0.927834
255.281 25.1296 8.53712
14.5275 8.93635 2.84499
342.075 63.2739 24.8903
147.908 29.3085 7.36187
218.193 27.3342 12.9023
125.097 43.2923 13.3743
42.5651 41.0692 17.0672
74.1442 61.4181 21.5389
295.059 28.5871 8.21493
72.9064 1.71168 0.805786
78.7954 7.83782 2.36888
24.1261 14.0477 8.25256
346.882 125.448 37.9984
118.209 12.2629 3.85584
285.169 81.6429 34.1589
218.354 34.2034 18.8235
21.8794 31.3495 6.68214
93.591 113.794 44.3853
235.764 33.5348 8.64809
327.168 98.0838 41.0467
90.25 74.2938 41.4859
50.5632 22.728 5.30365
84.1901 70.1602 25.8308
31.334 6.50981 4.99834
92.446 8.55013 5.27457
44.5745 14.7361 14.2679
321.017 51.7291 10.7941
205.208 46.2434 17.739
201.322 38.2811 18.6167
378.361 124.008 44.755
66.9067 26.4737 19.7795
676.748 169.455 67.3542
4.49932 12.5826 3.17432
62.3434 4.4798 0.862958
107.526 36.8812 14.8757
48.8794 21.0081 12.9757
245.661 42.5854 22.1128
78.4235 4.40698 4.97264
45.8976 7.41457 0.389538
370.931 130.779 49.6419
41.986 25.8251 13.6252
59.0967 24.1818 18.4955
47.2338 19.4928 4.55626
72.4619 2.75525 2.49201
2.89631 18.6691 7.02133
76.3163 10.0463 0.83655
260.012 173.443 67.2301
113.679 140.931 86.8341
363.272 44.2302 10.7772
159.312 30.2407 15.4665
121.987 11.0726 5.41931
68.8869 36.1218 20.2093
3.19819 28.3132 21.3475
602.803 165.146 77.1904
10.3061 6.32596 8.8478
135.534 43.4584 13.4482
82.4487 13.809 8.47119
108.44 21.6931 10.2339
2.27994 26.0527 11.5638
132.467 48.2136 25.8415
181.446 41.9043 28.8589
20.009 40.4648 20.5321
260.993 53.4199 27.8834
137.848 29.4887 24.0289
36.7768 56.7889 20.1971
53.6354 84.4217 45.0051
73.9329 5.97759 6.32995
373.85 89.0417 42.7224
14.1458 14.2262 8.52985
2.09823 35.5837 23.5914
178.938 20.6247 7.96427
46.264 23.0878 10.5367
67.9853 2.59964 1.21872
61.045 5.7898 4.1269
229.11 78.7434 41.9539
23.8349 29.6671 26.8403
10.1347 15.8045 24.566
481.783 128.342 46.6688
53.1237 3.46394 0.669388
141.678 30.7622 10.8191
295.371 124.881 84.604
43.9238 16.4142 3.46354
22.2198 26.444 14.3177
67.7295 32.5548 19.7917
133.836 79.415 41.6062
30.4509 5.09781 7.99224
37.237 5.01864 0.61895
27.3689 81.3786 49.9713
76.3482 18.7715 20.0967
325.944 80.3113 42.2602
73.7195 17.3681 9.06154
3.60375 32.7102 18.3241
74.7269 3.92249 2.99904
33.6485 16.0911 22.9507
224.606 70.4112 28.1527
2.91059 11.2872 3.63007
163.378 132.362 77.3979
37.8019 30.705 23.9676
119.17 12.8164 4.20482
76.36 4.24305 1.84911
163.495 74.7331 59.8261
77.5602 57.5705 21.8468
47.2801 72.7117 60.8277
278.308 55.3247 20.9258
39.406 5.30401 6.44503
121.863 17.42 11.2632
62.268 14.1859 4.01929
47.3666 1.91259 0.327922
71.8021 13.6831 9.23055
14.034 49.7507 35.2013
44.8861 62.0039 57.0989
316.516 61.4623 20.7019
207.092 98.8124 53.2059
205.296 40.8042 15.1779
337.097 181.913 127.102
43.0934 5.02955 12.7317
25.2335 28.7382 19.936
352.169 130.463 83.3623
53.2995 41.3081 42.1607
266.51 204.2 124.356
23.8448 7.77419 19.9641
192.279 32.08 7.04954
255.283 90.5919 62.3639
57.4937 15.831 12.3758
8.64116 2.11036 0.431429
79.68 14.4703 13.9186
55.7517 43.3097 18.549
33.063 58.3137 53.4924
274.833 83.2577 50.4627
125.889 50.5905 42.5181
4.39955 6.75782 1.40242
51.579 16.6102 9.00889
37.0737 55.7578 54.676
121.716 26.2325 7.77807
45.0504 13.522 9.70481
84.6157 9.7068 4.33018
82.95 15.7289 10.6603
49.1529 56.7399 50.9181
153.155 22.5944 4.99191
349.729 176.604 138.704
73.2178 36.9211 58.9243
12.4836 22.1747 5.34267
13.6706 0.451104 1.99733
14.6855 47.4471 77.6023
359.379 158.414 72.1032
55.0038 108.796 83.7946
211.159 43.6533 10.1429
230.806 85.5168 47.009
185.84 152.849 106.067
1490.99 1150.28 983.483
50.8932 5.45967 14.2787
56.6635 87.8119 62.549
17.1226 18.7241 9.99366
72.2261 19.697 32.5819
29.5589 17.4463 2.32912
18.4643 0.237394 2.54532
43.4642 11.3921 19.048
62.3231 70.8028 39.1762
4.79065 2.50938 0.172325
24.3436 20.2232 32.419
83.1484 118.67 63.8433
18.0833 9.01093 4.00088
27.7839 93.764 92.4001
158.486 40.7966 32.5268
104.957 49.6304 49.0571
22.5297 56.3433 27.8046
7.62273 20.1286 19.7834
29.0544 0.159242 2.47905
21.7688 16.5073 11.904
107.757 46.1132 35.9706
35.0152 6.24929 12.9945
2.89621 8.30252 6.53592
73.387 47.9701 37.6177
6.52139 9.2416 6.21621
49.124 21.6642 22.4945
19.1133 29.3012 20.1361
62.0356 23.2403 22.6758
27.4187 4.89244 17.1743
90.0052 82.1591 56.4714
11.4026 6.65577 4.20509
3.44506 51.169 68.2022
170.154 45.7988 26.6016
76.4926 15.4822 9.54054
54.088 30.4588 21.1265
25.677 10.1759 14.7643
150.609 58.3934 48.4206
90.4611 67.2963 77.3737
8.21377 33.6774 45.7042
19.8037 14.9634 4.76674
26.4156 14.8161 35.1908
60.4938 44.8906 18.5377
11.3985 1.7141 1.63209
17.3259 4.49212 1.77004
62.4884 32.6712 24.8652
1.44388 8.45449 3.93965
5.43712 21.985 21.9646
38.4871 4.72406 5.50747
53.8686 6.41132 4.96705
40.1787 14.0742 19.0884
3.54933 16.1498 10.1807
20.5433 2.01351 0.531198
11.5184 21.9861 23.7633
29.7948 10.1784 22.5126
108.128 29.8327 13.6173
97.7271 23.6295 10.0959
172.511 115.159 131.385
11.7832 7.60675 11.9867
4.63313 13.5191 7.65538
61.7392 24.3487 37.0008
30.6564 23.0323 42.3783
45.3321 94.7626 56.0591
21.2866 15.902 24.3568
48.0097 108.7 98.1691
54.5225 2.76177 0.761105
29.059 57.4992 63.6394
25.9349 12.8261 25.4844
87.9046 11.0646 1.37347
78.3605 26.5519 17.1858
89.1359 44.2848 52.843
15.0131 2.28238 0.934786
53.9715 25.3216 51.5841
73.1383 153.701 148.935
50.4148 0.826895 2.75044
54.4888 7.56275 1.45116
52.3964 11.8881 8.2956
44.4289 19.2217 25.2476
11.2351 0.790675 4.0577
1.81891 20.2878 21.2904
73.6591 29.249 32.2865
9.59926 8.56579 8.03084
41.3087 25.09 28.6169
11.8693 1.79144 11.7301
20.1214 11.9693 3.16124
22.0654 3.84288 14.7538
49.939 113.969 95.6324
21.0058 21.6164 44.517
46.2205 9.92304 3.23878
19.0613 0.108596 1.35716
21.8582 4.90603 3.3964
9.64794 4.94805 12.6433
93.1186 32.6295 32.6743
51.3743 28.7258 36.4695
3.06105 36.2389 38.0873
112.033 88.4573 99.6207
64.9799 25.206 43.4432
13.0259 24.219 11.5292
10.3727 2.65399 3.87167
23.7838 27.5784 43.796
99.9639 48.0747 43.8809
78.1027 66.3904 100.458
11.192 0.520992 11.5964
48.8373 45.3002 43.8041
7.36202 27.9598 11.6482
17.8613 82.1744 69.2625
3.1974 24.0517 29.9789
29.1792 89.3978 160.357
218.74 110.867 91.8893
18.746 35.5719 32.7562
0.99094 17.3827 27.3946
49.3279 12.6155 16.7664
6.62773 63.4586 81.0487
91.6219 30.216 27.6721
10.6955 4.01162 4.56753
27.9404 29.9887 50.3007
39.0367 120.113 154.522
128.346 46.3702 38.7965
32.9696 3.66878 0.848906
60.5506 28.7282 47.7455
85.2554 153.245 189.805
26.1647 2.46549 6.0309
60.0517 26.7389 47.8402
25.9762 42.4553 29.6161
4.7296 34.4831 23.4465
7.54522 32.3779 36.6595
18.6581 2.33039 6.30641
36.1899 17.0773 49.5804
90.0405 231.787 254.256
26.5714 16.1328 43.1818
48.2667 2.24006 3.06632
60.5826 19.9044 37.9851
60.3718 101.414 84.8246
0.31802 50.5734 90.7522
91.0594 74.48 110.113
19.4469 6.47874 20.3075
30.2337 0.431099 10.9045
31.7064 1.25918 4.17905
32.2813 1.7734 2.21241
17.9944 4.13246 24.7201
78.3702 52.5594 81.8984
125.961 51.387 22.314
57.12 27.1395 23.5515
23.9597 21.7744 26.111
71.8102 59.7815 92.8102
11.6218 7.92042 39.3485
47.964 13.0023 31.1041
10.0781 8.42748 72.2852
125.84 74.5952 23.0959
69.1518 70.4029 66.449
9.89464 18.1746 28.7777
11.7621 7.48313 14.972
58.7432 40.1241 41.6188
6.22899 10.5829 27.5478
55.546 20.507 18.9602
12.7028 0.84072 4.13275
11.0762 6.2989 12.7235
21.6907 37.8484 54.1646
18.0492 12.9041 32.1978
128.728 83.7463 102.513
1.37708 1.20526 4.72101
4.40652 10.0863 7.28895
17.5203 17.4923 53.0013
49.2458 35.4506 18.4366
14.0117 9.20229 16.5694
50.4775 14.0982 8.65584
72.8369 43.2336 54.9844
28.1875 28.9619 76.2157
25.3339 62.3727 58.8752
42.4251 21.0876 24.8375
94.1823 58.747 54.6849
85.3286 70.6357 102.692
20.0128 30.5995 78.8089
0.908175 16.5278 24.8502
12.5486 5.38469 32.7414
6.63066 3.9099 0.898537
0.367001 31.5459 57.4905
71.9868 44.2082 42.1773
8.94456 1.2724 13.8302
1.74917 13.6014 4.5846
0.151958 25.4286 27.5358
12.4888 0.910767 2.29299
5.94596 18.9428 34.8902
41.5403 8.38162 9.95281
5.38145 9.6055 7.05695
10.3269 18.2674 37.3868
27.4026 1.49796 12.3956
45.3151 20.8596 15.6638
15.904 25.9067 55.1922
31.8367 38.8823 49.1981
15.7166 4.89592 1.58575
13.4523 9.90187 13.2377
17.0785 2.59528 10.439
24.5373 23.4047 47.2496
50.3774 41.6145 57.6286
106.66 97.2541 164.367
0.966329 5.89277 2.82594
5.76974 17.6414 18.8235
1.04268 8.54671 9.34822
0.874295 18.2084 43.6234
59.3194 73.9066 70.4708
4.70238 16.2925 38.511
18.7488 105.912 165.576
25.6335 23.7566 92.2977
75.2543 10.744 0.0212101
42.8357 7.84093 1.78022
30.2167 39.1234 75.2812
49.2091 18.285 48.3906
31.7514 3.27136 4.3395
54.2498 24.9876 10.9841
31.1931 6.04571 0.694876
53.1104 29.5222 30.0977
29.106 24.8201 48.9394
3.20596 3.96042 16.9653
35.5111 46.3341 84.2213
29.4571 11.9616 16.2635
2.98043 6.26765 3.01256
19.4316 5.57042 31.408
23.9832 48.0611 41.5349
24.74 7.39376 4.67238
19.7251 40.0121 72.6992
40.5058 21.3585 59.3477
10.6423 10.8345 3.90804
0.757457 36.8053 58.5315
26.8383 0.602804 4.04039
34.2675 7.09915 5.29697
20.6396 12.5494 25.9173
0.3273 19.6186 50.9213
61.4452 38.5649 49.2435
0.237389 21.8077 39.8702
29.5066 0.474013 6.98518
57.3921 25.4525 19.9002
23.5812 8.9843 14.1075
19.6957 11.8773 43.2679
5.43759 24.5309 29.4172
60.9845 56.1968 113.496
2.13513 28.415 38.2802
10.5734 6.88745 18.6406
40.2996 21.224 23.8852
14.8758 0.403632 0.707928
33.5638 18.2047 36.0731
26.8784 13.9862 10.7609
21.9654 12.6765 26.9053
5.241 1.67289 3.74985
25.6682 14.7985 39.0115
27.3765 48.0027 116.307
1.824 3.22153 6.43953
3.04735 34.1773 54.9319
1.81997 19.0305 65.1262
30.9472 7.6173 2.87232
29.2575 25.5234 15.7396
21.6803 104.169 144.685
21.7441 0.413404 3.02311
13.3869 18.6399 21.0297
14.4133 36.667 94.7283
20.1171 20.97 75.5882
86.8033 47.7245 50.4243
8.98857 13.3602 42.9098
81.5321 50.1383 38.7797
43.6926 64.8121 181.639
10.2897 49.4133 53.7532
52.0015 74.7182 221.51
87.3135 114.799 155.197
4.52206 29.6121 21.5283
6.86255 11.265 29.5294
26.3804 4.52125 3.46892
15.9665 6.89022 20.7879
3.78792 14.6763 31.6104
54.5511 42.3853 79.5984
0.445717 7.81987 18.8118
5.97373 0.969309 17.0954
11.5181 8.45658 0.906177
13.6544 6.96006 9.40819
0.855752 14.6271 9.23204
3.97039 9.4663 14.6552
11.5137 9.39147 23.3947
35.9261 13.9075 23.8503
0.924585 9.62241 32.7728
39.4164 63.5826 81.2921
2.41627 18.8499 31.0505
9.35169 36.2642 119.718
62.3246 18.3356 21.0625
45.3023 13.6943 1.38051
64.1141 84.0643 179.595
2.4238 20.5132 27.5445
28.4192 23.4419 96.0441
59.8361 54.8037 61.4177
7.75237 42.1304 70.0898
12.876 9.6541 73.4346
55.4109 20.3213 4.92972
78.3895 115.944 190.998
3.51798 22.4026 75.084
3.55485 0.631514 39.9581
9.66744 79.8156 136.149
56.9714 43.2578 120.765
8.95449 25.6101 4.73496
0.963043 35.1089 66.197
31.648 6.98276 9.95828
1.72424 14.1536 44.8694
41.3047 23.8875 23.4345
11.3585 9.70395 47.1523
4.43009 45.7054 51.2036
1.08275 41.1636 132.226
56.7583 15.5927 17.6429
24.2431 12.8239 14.2274
16.9573 6.93517 16.2618
19.2975 11.6266 31.8906
3.5998 30.4396 67.6126
36.6064 13.1841 7.71698
14.2244 11.5012 51.9949
31.9699 71.4978 141.932
38.6628 12.8304 2.79228
22.1394 8.86444 11.093
29.6894 28.0526 61.4892
4.99956 1.5212 7.7427
16.2522 17.0272 71.5476
2.03566 17.3361 22.6912
3.26399 10.0137 53.9905
33.671 29.2314 79.4528
1.34288 12.9724 0.327361
0.548357 15.5102 38.9167
19.0231 12.5596 7.15153
3.3438 26.0945 22.7187
3.03126 14.1299 27.1435
7.00269 11.4913 67.4827
62.0167 52.5971 82.8921
27.1516 16.1244 24.1947
9.03024 4.74851 14.4916
8.65429 4.91935 37.3128
8.80334 13.0105 16.6553
2.79242 5.36607 8.21467
23.8251 14.6739 43.4728
5.0083 10.2183 60.4166
3.91163 23.3033 22.0557
24.3571 32.2787 80.0111
4.3214 51.6881 86.7879
20.7745 33.6653 28.9978
0.845838 42.9221 142.152
54.5717 21.0448 17.9209
12.0379 5.48639 7.5886
6.22866 3.4205 3.48313
8.08527 22.5689 52.521
15.7983 10.4424 74.2949
6.07595 35.8949 21.07
11.126 91.6087 161.587
27.0787 4.30722 13.4241
0.0591688 32.9305 76.4805
13.4136 5.64649 31.214
21.6158 1.61693 20.6401
18.1605 7.8556 19.3346
55.1066 72.8996 185.346
8.40234 50.948 69.5985
25.9333 24.4554 82.6982
39.5661 30.4605 33.9005
10.0091 12.2283 94.4272
8.21679 43.5131 30.8278
2.91411 12.99 14.7
5.80418 17.6541 16.1319
1.06114 24.3329 56.3976
17.5315 1.17692 7.24426
3.16901 4.86848 21.2172
11.9204 65.1319 136.893
24.1173 27.4492 72.1928
17.5615 3.84051 22.3244
19.4755 0.590716 18.0619
27.0717 6.68801 3.18635
9.12587 3.93919 2.40205
10.4368 3.45577 6.94133
24.434 36.822 97.5854
19.2084 13.3739 14.7595
2.43352 12.9924 43.6397
25.9694 3.75358 28.4113
32.292 53.2749 63.7647
17.431 17.8794 57.1486
35.8389 35.9351 110.272
5.6983 10.7109 10.1493
18.556 12.2643 35.8109
5.51429 2.10112 37.9481
4.7314 13.2597 4.3959
4.32663 4.46351 2.83514
1.31584 46.8047 148.866
43.8748 8.17967 1.38686
28.3222 25.4373 82.0535
2.17579 34.0486 63.2324
27.5682 22.7969 66.7001
17.8579 2.0168 2.32593
15.2614 9.81248 60.6341
7.30234 4.58787 7.68523
13.8879 16.0733 7.28303
4.18654 22.5552 57.1898
14.4889 51.7988 132.175
21.5518 5.11315 9.00733
18.4554 51.7687 122.036
35.1971 9.19939 5.01926
13.9028 2.5844 1.1712
13.0716 6.27662 34.9365
6.60449 5.41849 11.7918
26.1081 36.5356 29.1848
9.11676 63.6134 195.208
15.4241 6.18206 24.0243
18.7558 32.8565 68.3316
27.8827 16.1393 37.6837
4.91286 4.75792 0.0286241
7.02352 31.955 72.5277
8.38397 2.97157 37.8006
11.2286 14.9199 27.5196
25.055 102.446 322.259
70.4348 38.4682 20.8729
9.31386 2.10837 25.6157
23.4959 15.2561 17.8178
36.4248 42.6146 94.0566
0.704283 2.94656 17.2887
4.61082 11.2693 26.3431
19.3468 15.4738 27.0462
6.81919 4.92651 47.4885
6.71582 12.0994 3.43218
5.149 0.694714 3.17217
0.712506 22.4245 23.8341
7.32887 53.6569 199.641
48.3902 19.3422 19.3225
4.76154 23.8761 46.2485
16.6465 9.4128 49.9227
13.6912 10.1181 36.7777
34.0652 21.9663 34.1973
1.90455 2.55496 0.815304
2.50118 19.7202 70.8211
33.5718 19.2964 33.9563
0.616316 20.7373 69.3414
14.5532 6.72884 53.7181
31.9738 9.61528 43.0701
29.4987 23.1124 17.1199
21.7117 22.5702 93.5355
3.99256 64.8167 142.311
30.9188 44.6731 234.137
62.3863 42.9792 12.3989
25.0833 31.3311 77.6645
22.6617 4.11479 24.2876
59.9183 84.4957 146.925
7.13955 11.7348 62.3233
1.08756 36.0025 96.762
41.6837 25.1889 17.4474
21.4185 43.5394 172.866
1.14275 13.8732 42.1927
3.85878 23.7852 45.8202
14.1142 0.528903 25.3257
19.5122 4.57505 74.9198
32.6752 36.5061 16.6096
31.3295 42.5564 131.327
17.0045 105.893 190.979
31.977 30.4753 119.673
22.0736 10.3505 2.84906
14.1137 12.3809 45.8077
2.40855 0.783562 35.321
0.862445 14.8975 2.92605
2.49623 17.4676 36.589
8.83379 2.29526 11.2125
13.5628 19.6016 83.8223
8.90678 6.84382 99.7156
40.6033 37.496 23.1978
24.781 18.7506 25.6702
3.84703 14.9483 33.702
17.6705 4.96426 20.1273
16.5649 13.3102 11.9912
3.59973 3.23093 4.80587
10.1271 4.22706 20.4841
27.6932 16.2622 13.0806
13.1924 47.0391 117.177
35.765 24.4764 27.2272
12.7893 18.8419 21.1807
11.3831 11.5414 15.3042
11.9936 26.125 63.7809
10.92 27.0244 171.194
2.64789 16.8868 2.03776
5.34353 20.6649 64.8127
11.0947 1.67577 6.58667
5.51667 10.1114 45.0939
1.03627 5.82043 13.0761
7.10366 0.247676 6.17597
3.33246 3.79077 7.63789
5.14803 32.1598 162.403
9.87684 16.9141 13.8409
6.5998 7.97984 6.71731
7.57711 3.48387 25.553
3.43087 7.58147 1.43563
1.56257 21.8887 64.5887
15.3385 0.510074 30.0869
28.9615 34.9279 166.801
9.75275 54.1858 45.4645
7.06202 6.05636 24.184
8.76446 10.7687 17.1216
4.68411 6.32509 25.6777
16.3465 3.88757 19.1894
0.154865 25.4782 63.0556
20.0306 28.1826 97.5502
19.1489 3.42644 4.44983
6.5971 9.78315 36.9178
11.7053 26.3764 49.6956
5.04291 5.13139 22.2462
9.25523 0.779587 3.553
8.60187 21.2393 96.7802
18.3597 3.73547 26.462
0.148772 27.5564 133.003
22.0725 68.2403 180.18
38.1064 15.8102 31.8962
27.5307 18.7379 28.2245
4.85838 2.46304 11.1197
10.567 7.88166 37.3351
22.5199 7.42046 4.75691
6.42456 0.209138 3.91131
15.1137 14.4142 66.5844
2.11225 22.2638 35.8124
16.6155 8.09557 64.5484
3.60225 74.4947 123.065
9.90739 22.6896 144.258
29.7387 7.06091 57.5962
29.1774 22.7098 107.76
33.869 14.0163 42.8049
15.8949 13.4086 28.2766
23.37 5.55069 7.49794
27.7918 33.2255 80.8697
14.8007 22.2828 45.6331
1.52647 3.63741 13.0091
15.4299 9.62012 38.1878
1.40909 34.5696 102.32
18.3467 7.71332 18.3645
11.9364 26.1479 93.9839
8.36488 15.7122 231.12
64.9734 85.5406 127.773
37.7371 34.4135 27.7852
9.39632 13.5014 68.5159
1.38987 9.53224 5.2823
2.05132 17.7279 73.84
22.5258 9.18606 70.9815
26.1471 12.3871 10.0694
21.7445 16.1942 33.0446
0.86724 27.6906 170.181
49.5632 21.5802 9.85106
30.6841 34.4053 23.2412
22.9938 39.1444 66.4345
10.1118 21.1081 79.8435
3.07663 6.26691 42.5223
0.4861 6.19143 4.74702
8.26237 0.87771 7.66363
22.5244 48.1058 207.314
2.24117 13.3434 39.8517
10.9727 31.6733 40.4029
5.77043 1.07617 1.48889
6.26562 1.9149 19.694
8.76645 21.6063 67.6375
21.1106 19.6515 62.6543
4.60687 14.0234 25.3315
9.13337 14.65 80.0491
12.7504 30.1845 44.2357
14.7562 5.88407 18.2851
7.26171 0.689078 0.863915
5.00357 3.40711 10.6196
8.01857 10.6533 97.8574
37.2569 30.602 60.1238
2.48344 20.7203 40.9671
13.7954 10.814 70.93
18.0442 1.92571 109.467
40.7729 66.2749 84.7226
18.785 10.5866 10.6951
7.0956 2.33941 9.70626
7.2505 0.154954 22.7091
21.0428 42.2678 90.4338
16.4017 3.54155 12.2153
15.4392 8.3855 12.1156
9.10177 6.85012 6.02521
10.2543 3.99632 3.35764
9.06469 5.55116 20.7678
12.4257 5.63209 8.47412
10.8114 10.4238 91.9166
26.2839 68.3899 125.906
2.38172 1.06172 36.4944
0.929306 25.5084 77.6285
23.6018 17.6632 37.8134
5.20436 14.1703 150.608
8.33585 79.9094 180.067
32.9443 15.2386 21.9768
9.28686 3.57142 4.17566
6.72247 2.37307 10.6976
5.69614 3.9893 22.9382
2.24569 3.34017 5.96862
10.7598 5.00663 32.2093
11.6705 16.3273 18.806
6.38455 8.68366 62.1169
0.195433 19.8032 69.2779
25.0957 20.7092 61.9521
5.94527 4.58346 79.3354
8.75585 57.0336 94.4677
14.372 12.0149 126.422
4.82789 88.8067 318.901
54.6648 38.8618 23.2946
17.9536 27.1381 55.6002
4.46129 16.6825 175.961
2.94811 19.0604 11.611
1.42548 31.7922 80.6395
19.9677 7.60858 0.95876
8.33644 1.49892 21.9426
11.3007 61.3446 138.919
11.5349 1.69785 53.9366
13.9805 7.2301 2.18556
5.43632 0.253433 2.35845
2.99566 3.75396 16.2113
14.2207 7.54695 38.9749
10.0912 13.9171 27.8678
0.732471 12.0584 27.4841
7.98073 1.78565 32.5333
20.8454 19.3451 56.5724
0.831607 4.03135 0.908804
1.46821 22.2545 88.4541
22.5894 17.9194 79.7961
25.2987 8.53451 2.26298
17.4804 16.8683 19.2619
8.55361 5.55858 15.6633
18.708 46.9967 188.656
3.06845 13.1032 73.2621
3.74392 14.879 13.403
2.43819 10.5963 81.1056
15.804 13.0183 5.56395
15.025 39.4454 218.052
19.0278 59.2576 100.421
11.9901 0.985524 19.7532
12.7502 13.7389 62.7783
3.91236 15.658 122.4
3.28428 29.1395 13.3452
2.38625 17.8109 112.685
28.6278 65.7363 198.929
17.9233 16.5054 8.39674
10.8705 16.4463 119.092
10.8565 34.849 51.3175
6.79636 1.8831 14.735
15.8836 17.0139 85.1412
1.50724 12.5615 13.1331
8.9486 7.98022 99.5146
5.17806 61.584 109.338
16.7694 0.71798 8.51891
6.58391 2.64656 46.9852
18.0801 13.6765 12.9113
4.1078 1.35092 10.0774
12.6981 6.36662 12.1466
3.57842 3.53468 30.8291
10.9776 2.77856 59.0722
13.4405 56.7349 127.747
11.0031 1.41578 17.8776
1.80072 9.24116 17.3163
9.29353 4.81741 11.4696
6.83399 1.35818 23.0332
2.82484 5.62227 7.03737
6.17391 1.97461 28.5851
10.5837 12.3202 22.7298
14.5484 21.7371 87.0195
12.5745 3.26831 1.82059
8.6904 0.580645 1.71771
4.27867 5.35206 56.4239
24.4292 25.2193 52.7259
12.6235 10.7777 20.3839
6.53244 13.4559 60.7681
3.81475 1.40262 11.5069
6.08 12.3388 57.2497
23.7839 25.517 65.3582
3.87088 44.299 295.804
27.0641 53.9513 34.9435
9.81215 5.44082 15.8221
3.12381 2.95667 19.1765
10.3713 28.4306 196.868
32.2557 23.5547 2.11521
17.3796 40.7033 49.9192
3.86216 14.1786 82.3998
0.6316 4.82627 13.7983
5.81732 7.19435 68.6312
21.9991 46.6026 80.9249
0.960928 8.49699 46.5962
0.721897 15.0137 124.084
7.7614 21.7528 12.2648
5.30236 9.89426 50.9507
14.9307 0.911031 24.381
17.1826 18.2965 82.9154
3.29618 9.34599 22.5965
14.16 8.24128 34.1702
7.69455 2.43413 14.1322
4.46851 1.40553 24.4328
0.844827 5.47179 32.6452
8.90644 4.90437 0.769913
3.82998 2.05093 8.25645
9.04172 2.89086 44.4168
17.4045 13.2258 51.6354
6.8068 6.49737 18.9419
5.43961 15.4704 38.4946
1.38543 0.172078 37.695
0.0232457 18.1193 15.0901
6.53904 8.00056 17.4925
9.05875 0.496975 21.4531
16.2749 11.7801 27.7141
4.86338 6.64414 37.129
0.926354 8.82754 18.4968
5.8992 2.76512 53.3892
0.120291 7.99228 16.2794
0.771696 12.1555 24.6125
3.59536 17.6404 52.851
12.926 19.447 12.5781
6.97705 6.85585 11.0345
5.98177 0.927233 2.78324
4.23047 14.8132 34.3222
10.4895 0.12409 6.05182
5.95872 10.8876 20.3463
2.58568 18.2881 40.5861
9.15006 11.6195 100.477
21.2991 0.632707 75.088
27.065 16.0246 4.27271
4.68497 2.7595 30.5841
16.2854 5.64164 7.12916
10.6198 43.5756 153.246
22.4623 2.35062 37.2198
24.9848 32.6392 27.7113
4.86719 2.77547 1.14569
7.49037 13.7449 22.391
4.50376 8.16681 39.0844
7.19696 2.71847 33.4599
2.81007 3.31645 7.27792
6.52821 7.90945 94.755
24.332 8.38689 9.68305
18.0912 44.6537 179.664
7.93542 5.14851 31.622
3.40495 15.0869 21.012
10.1616 2.45336 11.3232
5.50036 0.828738 1.17416
5.64803 2.34261 14.8873
11.7611 0.958157 7.98426
12.9685 8.07467 43.0005
16.4245 24.2598 16.9165
5.06692 17.3127 98.4559
2.46144 6.36616 7.18939
9.6751 5.10893 6.55301
10.7447 10.0726 7.74829
6.24676 26.1636 125.232
6.11448 1.29778 60.2562
8.91185 16.506 163.884
5.6899 49.1718 41.526
10.6658 12.1184 75.9614
4.59841 7.59557 51.4092
3.12363 24.9481 40.6976
10.8523 1.24913 13.0076
8.88879 4.65877 35.0241
2.56322 2.85995 0.836957
5.99448 3.97924 15.2596
7.95762 7.7326 40.0166
1.03057 2.06202 4.93459
4.48044 0.531363 5.0913
5.98956 1.61958 6.10913
9.37641 24.425 84.198
10.5232 6.26613 32.6757
3.74367 14.851 62.1773
4.49333 2.05532 38.8178
0.369187 10.6128 7.28391
7.64567 0.927554 12.0954
2.15058 1.29252 21.0338
7.90436 5.20822 4.74726
4.93811 6.38535 58.2901
2.90025 27.7404 18.9264
1.94274 28.07 120.484
4.38753 6.57072 35.1689
3.34813 5.88554 35.3583
3.42791 20.6631 56.2079
13.6557 0.2313 27.3854
10.5618 2.7747 17.0277
3.4329 4.19113 12.4008
1.96995 4.73688 28.1894
2.06204 31.5328 93.6822
20.0814 4.17055 6.67374
4.77772 4.12721 7.45095
3.22613 2.06966 0.476916
5.53819 14.5556 104.97
3.71378 22.9078 32.2515
8.40935 4.92925 28.3677
8.31223 14.4984 258.244
36.4566 38.8078 18.6179
2.3031 9.40831 17.0132
3.4102 6.79807 11.6398
4.79814 9.40767 60.2389
13.2973 3.39602 47.9831
16.4392 2.55658 2.89045
7.60775 2.27749 68.409
16.7708 0.760617 114.013
25.9597 51.4181 31.6857
10.4644 8.8636 3.658
5.42409 1.74632 14.9784
13.5811 37.8971 149.071
2.72219 26.5518 144.535
1.97662 30.2398 22.412
5.59025 17.106 70.4073
14.9233 2.64431 8.95052
7.60253 10.479 10.5646
10.0725 12.8716 29.8809
4.48527 0.977783 6.32364
6.88753 0.0143953 0.85607
5.13322 1.25577 18.7104
12.6391 12.0166 90.0434
9.79216 15.2603 11.1112
1.78005 11.7143 6.84386
6.74577 6.64817 13.7249
9.83969 12.4 47.8493
5.99213 0.915616 15.4496
5.22116 10.0109 72.5358
19.2461 16.4765 114.371
24.5927 30.5533 104.518
3.55891 30.7233 54.3611
14.8396 0.963165 42.9775
19.7729 22.8148 14.1983
10.2531 12.8538 2.04915
8.81446 36.9046 171.731
0.621395 6.63984 0.0559915
5.13245 1.83009 13.2071
2.92357 20.8453 51.8494
11.7132 8.21657 28.8661
2.05048 4.60205 58.7502
3.39983 2.05807 13.4697
7.87062 6.41761 58.2071
0.0610874 6.51042 7.64148
1.70609 18.2696 37.3498
11.8573 0.133255 1.60857
6.33883 4.61437 18.797
9.32652 1.63391 28.4978
11.6814 1.84003 17.724
12.2236 18.9533 38.906
3.66818 7.18198 43.9921
0.522974 4.193 35.9803
0.571354 9.78035 32.1049
4.37482 8.95269 24.2819
10.8423 0.774743 7.67214
2.44441 5.62189 22.4582
8.42812 2.90263 58.3849
18.6783 10.8445 2.86489
5.52099 7.38773 67.3977
5.97122 8.36284 1.30964
7.20631 14.5643 64.5481
1.7118 5.41583 4.47073
4.52846 4.33383 8.60219
7.64473 1.12301 17.66
11.2845 2.00804 8.86787
8.69361 6.79242 74.043
2.60207 34.0841 82.7762
16.0716 2.47764 45.8574
17.2416 12.6988 7.51337
3.3933 1.74501 25.9217
14.8361 16.9113 11.4386
7.55078 10.3511 6.35902
5.18248 22.0162 152.061
1.17306 25.1086 60.3919
6.5587 0.408607 34.1117
6.68596 6.08843 17.7099
3.73245 9.83087 37.8137
12.139 5.91657 18.2871
3.79739 0.762116 0.643255
5.372 11.1693 76.9712
1.8044 0.619671 38.6214
4.87728 4.56701 20.1442
1.14228 1.09888 83.9179
3.24275 42.4744 71.5283
15.0066 1.84932 0.342493
4.7748 2.89416 36.6773
1.81493 5.13209 3.52516
2.19577 26.0558 150.499
24.0362 5.66602 34.4432
16.5612 35.3651 57.3501
0.511465 5.31276 40.7303
1.68315 3.47077 34.9318
7.83082 12.2912 33.2762
3.45282 4.22196 13.0264
5.22628 9.18595 38.3074
12.8779 11.9089 78.6238
0.409514 16.6717 29.7471
12.1812 2.77561 2.55137
4.20057 3.74377 49.0431
0.558061 7.82786 5.87168
6.45491 1.50251 2.60782
3.84801 1.01173 47.3836
0.0679077 17.8526 9.12728
7.12644 10.9175 16.4722
7.77456 18.1855 174.5
17.2703 7.95988 33.342
0.967337 26.8027 129.681
21.7708 7.06507 82.5925
23.9112 41.6377 148.005
5.06155 39.0979 23.181
3.76744 8.86396 43.0599
4.93817 7.91302 22.3224
8.34101 18.6254 84.1788
17.4559 0.50641 48.0357
17.8662 19.5981 6.39351
4.70512 8.50424 54.8747
3.74298 26.7053 73.347
11.5663 10.4619 28.688
1.44294 3.51064 50.248
4.2795 6.8743 103.264
0.490551 5.4553 18.0103
0.918822 2.84602 25.6552
1.57491 10.5995 20.5769
6.86907 19.9847 38.9877
10.0224 1.98478 6.01157
3.84396 5.62611 186.683
3.49903 72.4383 71.695
13.6685 2.92731 42.8747
5.60974 21.4497 108.662
19.3122 24.3796 24.1746
9.84133 21.1693 107.099
3.18145 3.8156 115.927
7.54565 16.0482 6.78091
6.86142 0.769935 42.0279
8.68685 7.11789 6.31865
2.59075 3.84015 2.23778
5.21304 1.69876 18.8226
1.4747 8.8321 0.882265
3.2478 8.64611 2.93897
2.90214 13.0765 11.7926
5.63576 12.1143 50.6549
11.6561 5.99434 37.5526
13.4257 2.94705 1.81897
4.16172 22.3176 121.528
18.2656 7.81819 24.5669
11.119 14.2436 126.681
10.3116 24.9789 9.18765
7.21693 7.97549 49.0591
8.22691 9.07926 68.41
18.7853 12.876 13.562
7.17976 11.764 120.656
1.97459 14.8685 4.6131
1.81317 27.6152 54.8877
13.7236 11.9367 131.121
25.771 11.5191 8.82517
7.40594 4.44599 118.674
22.7096 23.6385 14.1034
5.52465 0.65377 5.24788
7.22271 1.65657 3.4193
7.89075 7.63962 56.0088
9.11803 26.4402 90.6714
11.0008 13.2945 17.0952
2.00092 0.194427 5.5267
2.80094 0.300142 7.25729
5.79205 4.81827 6.13758
2.98815 5.26155 34.9812
7.60337 8.31494 176.814
5.99292 37.9086 20.1191
5.96455 0.0964826 49.3997
2.19643 29.5963 35.8881
3.81592 29.3627 113.035
22.9109 9.92309 3.01685
5.41607 11.9009 38.5919
6.25532 9.44386 189.915
10.9934 20.52 21.1618
10.2 1.13505 12.5886
3.23569 1.3253 28.877
2.99195 20.3874 39.6968
12.8346 2.84456 19.83
10.3152 3.76718 1.99769
3.22711 10.6875 35.048
13.0412 0.351324 43.3334
14.304 7.95263 10.1571
6.1554 7.58322 146.162
13.8567 66.3841 156.295
20.3457 4.61704 7.22537
4.01438 2.69169 9.91091
9.01421 1.42455 2.12803
3.9477 3.87927 39.8977
9.6996 3.16595 43.8436
13.8924 11.9188 22.2147
9.89664 1.27884 31.7781
13.069 36.6702 149.169
4.05028 17.9268 31.8818
5.28363 7.48707 42.7103
14.4762 5.5315 19.9065
3.37226 10.2732 11.3295
5.14339 0.920051 0.0105844
4.59214 8.6033 69.0855
18.0835 5.7782 0.561371
5.80767 6.24337 76.6343
0.36346 43.2752 185.82
31.1097 14.0925 1.6091
3.81546 5.2222 90.6759
18.0823 31.8199 108.8
9.09516 17.2403 6.80397
4.40861 5.40783 31.502
7.11101 3.65831 61.3444
15.3953 7.12843 88.8927
20.2902 28.4545 54.1201
7.75724 3.20677 13.806
6.64855 1.53436 84.6691
21.2044 57.8072 76.1567
1.44494 20.0901 40.6107
4.91537 17.9494 98.4923
0.08283 4.50372 166.817
2.46727 14.752 12.5073
1.60584 8.70659 13.1936
7.29656 2.48031 27.9704
1.16819 10.8826 9.52144
2.67748 15.6844 36.316
13.008 1.72681 13.2291
7.04569 2.56872 6.66802
3.11667 4.17479 16.6393
8.22692 1.78685 7.60974
8.39308 1.15878 1.54169
5.2484 4.68218 99.0784
0.579411 32.4003 22.5753
11.3168 5.38009 20.6232
8.50766 4.51328 25.7687
11.3674 0.327642 10.5298
8.95067 0.294311 37.5103
13.6592 10.6833 10.9951
4.60399 5.02951 50.473
1.51795 17.3381 44.5059
14.9879 2.77788 139.698
20.6793 30.6755 3.43063
3.2668 4.23739 8.79999
8.81015 9.36351 8.46767
2.27851 1.88629 21.2884
1.46043 9.8636 6.77964
6.4364 0.983521 2.17752
6.47914 3.88079 71.9229
0.29202 56.6732 335.347
46.2322 0 0