# pn-170911/RbIIR-53-USNO-1280-1959.psd
# Power spectrum* (dif=0,1,2) (really just |FT|^2)
# NOTE: only the first half! (symmetric)
# weeks: 1280-1959
# 11 clock-days, 0 excluded
# PSD: 1441
350.388 0.0660951 0.021093
24004.6 0.744258 0.0134578
84066.1 1.43744 0.0156916
13670 0.423294 0.0150752
42151.5 3.04222 0.0154083
5795.4 0.71055 0.0173787
5177.6 0.507905 0.0147097
3931.31 0.623805 0.0145186
3305.17 0.689565 0.0148125
2217.87 0.536232 0.0152108
2935.11 0.825005 0.0145512
1206.65 0.504512 0.0156979
823.644 0.426677 0.0135284
969.904 0.550615 0.0179604
1924.6 1.28861 0.0172528
927.478 0.642844 0.0179896
835.572 0.709792 0.0152321
791.293 0.895512 0.0157087
742.422 0.511501 0.0177447
155.092 0.344108 0.0131438
409.666 0.648032 0.0116158
420.309 0.986399 0.0183653
400.287 0.787764 0.0143043
323.36 0.790168 0.012261
467.998 1.05749 0.0129564
504.435 0.866539 0.0156967
259.868 0.892306 0.0211684
509.762 1.73147 0.0180885
435.793 1.74677 0.0235335
311.55 0.908442 0.0233695
274.038 1.06303 0.0215276
298.066 0.939732 0.0244431
215.436 1.42579 0.0270373
474.066 2.21748 0.0253258
291.853 1.76568 0.0220197
311.271 1.11359 0.0268702
317.001 1.53053 0.0277599
316.172 2.41567 0.0296316
295.722 2.1554 0.0264507
316.211 2.17038 0.0143543
139.057 1.47782 0.0218197
248.318 1.89092 0.0351929
286.404 3.13477 0.0370064
241.978 1.91519 0.0422712
245.582 1.59238 0.0266308
310.538 2.4974 0.0303618
275.494 2.53942 0.0383403
236.53 2.16146 0.034822
213.827 2.78922 0.0458526
300.188 2.92076 0.0447439
281.293 2.56771 0.0370778
221.914 2.10684 0.0290918
273.929 2.76494 0.0411336
381.843 4.15628 0.0637646
248.981 3.25906 0.0524936
153.804 2.36475 0.0513857
282.908 3.67696 0.0777907
189.249 1.97526 0.0418532
272.703 4.05107 0.0806733
226.374 3.89227 0.0868596
164.445 2.31252 0.0729559
253.283 3.29605 0.0983671
268.875 5.21136 0.0836964
419.491 6.99145 0.150694
103.342 1.85282 0.0371236
168.096 3.4653 0.0778896
283.245 4.86739 0.0908011
258.484 5.38507 0.118632
137.443 2.81191 0.0872387
211.774 5.26533 0.123446
278.451 6.00959 0.119218
253.63 5.98943 0.160939
137.596 2.73213 0.0851376
185.362 3.97103 0.119431
210.274 4.2907 0.151683
151.415 5.3778 0.141565
325.171 7.33727 0.205426
178.961 5.70016 0.17733
165.916 4.5186 0.15177
228.894 6.09072 0.184429
205.289 6.07689 0.230321
236.261 6.00954 0.198565
179.055 5.55395 0.155465
130.174 4.34147 0.158139
203.784 7.43717 0.227575
115.412 3.58703 0.150804
173.984 6.46128 0.230702
138.17 4.34118 0.177304
178.44 5.90032 0.294796
250.857 8.69723 0.35169
183.52 5.38704 0.245101
127.782 4.03826 0.175514
196.06 8.49465 0.365911
180.098 7.79531 0.33725
154.164 6.55041 0.322949
117.189 3.8116 0.172112
176.434 7.52789 0.318565
113.319 5.5222 0.272009
85.6958 3.72555 0.154302
272.768 11.1019 0.604305
185.135 8.8088 0.504151
120.008 4.99289 0.290444
165.189 8.33275 0.450483
115.378 6.07005 0.296838
208.663 11.6553 0.630496
95.7972 6.42113 0.363865
179.449 9.4836 0.446758
134.07 6.37833 0.393501
192.128 10.7052 0.578378
200.023 10.1867 0.589025
115.757 6.47265 0.370215
220.655 11.9868 0.694047
182.376 9.68476 0.604766
121.647 6.86453 0.479905
72.0548 5.10441 0.329149
172.778 9.90394 0.684932
105.781 6.46404 0.470787
158.903 9.63559 0.664699
216.556 15.569 1.08526
135.845 8.56687 0.607404
98.9084 6.50968 0.503223
54.721 4.17052 0.297015
147.377 9.37114 0.630329
97.1131 6.40245 0.450176
125.598 8.52236 0.64517
112.638 7.87052 0.515207
143.931 11.0234 0.795178
272.46 18.2196 1.23784
214.983 15.0759 1.19148
145.444 11.5518 0.95022
74.088 5.85216 0.485281
166.879 11.8959 0.922226
59.256 4.91868 0.430586
82.4711 6.80801 0.658925
131.751 12.0354 1.08325
83.7048 6.03314 0.512528
146.179 11.0719 0.977245
84.1663 6.63938 0.613961
180.051 13.9503 1.20296
77.7391 6.62328 0.639633
91.7062 8.71457 0.783084
157.448 16.7973 1.69166
104.145 10.338 0.987507
90.3445 7.81073 0.837843
72.4396 7.98096 0.909844
82.8299 7.67425 0.768984
190.66 18.0112 1.79356
108.302 11.6509 1.1848
114.054 11.2627 1.23346
87.7337 9.79884 0.985943
67.5553 7.27676 0.830064
89.4769 10.7084 1.20104
133.541 17.1791 1.87021
75.9165 7.95703 0.796711
108.927 15.268 1.88582
190.794 18.2985 2.02169
193.406 20.3687 2.3162
80.5843 8.9437 1.06126
115.487 12.0023 1.44467
141.181 16.3617 2.0978
91.8866 10.1496 1.17151
167.051 19.01 2.40339
123.416 15.7223 2.01807
160.375 19.338 2.3359
114.864 13.7576 1.65407
120.359 16.5697 2.18727
67.5605 7.65832 0.985513
93.0186 12.849 1.83361
170.338 22.6936 3.08516
71.2837 9.44658 1.24248
141.83 16.6264 2.15722
89.6959 12.146 1.74999
84.2887 11.2153 1.69755
82.3981 12.3498 1.64379
93.0762 12.2237 1.83507
41.9835 4.64248 0.650969
100.538 13.5217 1.91012
108.768 17.6916 2.60122
100.442 14.2668 1.93187
104.234 17.0759 2.6615
85.5067 13.3171 2.25867
66.5574 10.4359 1.56383
78.0207 11.2323 1.77703
89.8291 14.522 2.40732
65.0887 10.1081 1.6608
90.7738 15.0118 2.4507
105.701 17.7829 3.0215
151.462 21.2013 3.33639
71.6718 12.2178 2.1162
85.4048 13.0981 2.09225
48.6091 10.912 1.97406
68.2448 11.1946 1.91664
127.393 21.259 3.57771
88.4396 14.6013 2.47873
80.329 15.0264 2.95243
81.6525 14.1592 2.62085
122.505 21.44 3.91861
52.1018 8.52584 1.65918
86.1527 17.0522 3.30141
88.8744 14.9879 2.94423
87.1981 16.2243 3.14367
68.086 11.0433 1.9903
113.832 18.4223 3.5399
102.483 18.5321 3.46752
81.5986 15.5059 2.99742
58.0342 13.9201 2.84983
93.8007 18.5007 4.03897
92.0152 17.0547 3.4329
96.5601 19.1247 3.59779
81.9733 18.0245 3.68993
96.3653 18.2684 3.7641
103.253 18.8551 3.79806
132.086 21.7142 4.19263
135.842 27.8912 6.21576
56.682 12.7462 3.11888
53.7388 11.3719 2.48805
48.694 11.4887 2.75201
90.6545 20.2371 4.7382
87.7728 15.3177 2.98997
134.481 28.6633 6.70402
120.974 27.1701 5.95755
75.4829 16.5726 3.88277
73.1408 18.2419 4.11502
62.4702 16.4052 4.04312
70.7634 17.3961 4.25641
50.3691 9.85591 2.12984
111.481 27.4412 6.38727
65.895 15.1785 3.66684
136.824 33.6105 8.94872
98.8533 22.4982 5.44879
74.2578 15.8674 4.12978
72.2372 17.2735 4.06166
72.9547 18.0057 4.36144
94.589 26.0648 6.54325
61.3365 17.2581 4.36839
49.2167 12.439 3.73951
74.7309 19.5729 5.36095
101.099 22.7787 5.32059
90.9025 24.1984 6.29496
75.1501 17.7955 4.73868
118.662 29.8107 7.89294
81.6474 22.9171 6.02763
93.6835 23.3006 5.63732
87.1391 26.9355 7.67358
58.9582 15.4566 4.27793
89.6617 25.7921 8.04852
73.549 18.367 4.62804
42.9081 12.578 3.55334
48.9852 14.5502 4.26102
100.641 31.3584 9.03091
57.8831 15.6945 4.36472
62.4212 16.5399 4.38015
51.7432 17.1779 5.50473
51.8116 14.9435 4.50371
62.4685 19.0688 5.71163
51.5643 17.1823 5.4271
60.9969 20.9596 6.85744
57.5101 16.6389 5.22702
82.9665 23.2672 6.68255
63.4323 17.8378 5.34778
101.486 30.4896 9.33484
61.519 20.0201 5.92893
60.3004 18.4668 6.09777
45.8024 14.2638 4.78528
65.042 22.5136 7.8861
68.4586 19.1619 5.45849
93.5045 31.4466 10.1076
72.859 22.0257 6.9156
52.4427 19.1331 6.91422
63.9126 18.2936 5.52133
52.3328 17.8414 6.07996
63.3701 22.3165 7.11625
40.0505 14.4135 4.97861
60.4358 19.1353 6.6371
59.9747 23.7507 8.84861
38.8628 14.9027 5.91653
58.5494 19.6867 7.15509
62.8959 21.008 7.17881
77.7716 23.2073 7.73583
57.6068 22.2164 8.47932
45.0114 15.5725 5.22593
61.429 20.1538 7.46772
74.0607 31.0656 11.6907
42.6431 14.2193 5.45571
70.7339 23.1714 8.38148
59.341 17.0451 5.47341
37.6679 15.0323 6.05742
47.0305 20.3416 8.54941
88.4049 28.9805 10.2318
64.4577 22.1982 7.98621
87.0343 32.2792 11.6627
59.5652 24.0953 9.05444
69.4727 30.7442 12.8952
78.9623 30.843 12.3954
67.9841 20.6592 7.093
62.7518 25.7206 10.6365
55.6706 18.1375 6.98952
26.1636 11.319 5.18184
52.4257 20.2575 8.8622
65.3446 26.153 10.3317
57.6413 24.0513 9.7412
45.8504 22.1292 10.5183
61.3468 22.7351 9.25341
42.6167 16.559 7.39839
84.0726 30.0288 10.9749
45.5327 21.4001 10.2391
32.8449 13.633 6.32527
53.0122 23.0471 9.91851
47.5796 18.5491 8.03472
31.3357 12.7815 5.43566
45.2964 21.2963 10.066
52.1807 20.0234 7.86113
44.2632 19.2388 8.52249
63.1833 31.1243 14.5822
35.8843 16.5325 8.17624
69.1367 29.5099 12.0612
41.6452 22.3968 10.9259
45.132 20.1752 9.18556
38.5963 18.9934 8.87658
56.7246 28.7726 14.943
83.7394 31.9067 14.012
50.0848 23.5902 10.6123
47.7469 24.6262 12.8138
47.9499 20.924 11.5039
58.3277 26.0194 11.2727
54.1154 22.9314 9.9153
48.3367 23.3495 11.7604
29.8881 12.1265 6.29595
58.7662 26.1782 11.6363
48.3544 21.9974 10.3994
26.0398 11.1835 4.87361
44.715 23.1595 12.5047
58.7766 26.8605 12.7065
56.9719 27.0443 12.742
57.0662 26.0457 11.7066
29.0676 14.1752 7.22983
38.8942 24.4096 15.1789
46.7381 24.3961 13.1566
44.7111 21.5558 10.1812
29.2866 19.6456 10.8101
42.8997 25.2306 13.9853
45.4974 22.416 11.2092
15.1351 9.10698 5.51083
39.9596 21.7662 10.7895
54.6871 33.2392 19.5432
53.1892 24.143 11.7773
22.1458 13.0385 8.83239
41.7288 15.5603 6.15555
35.0157 21.3035 11.8126
33.0634 17.976 10.7113
36.3439 20.5872 11.3477
40.6603 23.3077 13.5413
29.7582 17.352 10.8117
46.344 23.5991 12.6847
50.1209 29.9208 16.6823
46.7592 23.072 11.9812
35.4324 22.8099 14.0171
24.6749 14.3235 8.9229
49.6616 28.9457 17.8438
43.2969 21.4585 11.7917
49.0942 28.4792 17.0798
77.7043 45.7791 23.6692
32.1083 21.0627 13.1919
40.7027 23.9344 14.1818
19.3895 13.0474 9.62082
48.4191 26.8603 15.7531
35.2819 16.938 8.25658
33.0059 19.7379 12.8374
58.3131 34.7631 21.1213
35.6605 20.1033 12.0302
27.2351 15.6031 8.60071
28.3361 20.8237 14.9085
47.649 28.6659 17.9137
36.4865 19.521 9.68416
20.981 14.2981 9.08799
32.3876 22.2574 14.624
22.0738 15.4624 12.1858
32.8844 17.1985 9.61657
24.643 16.3968 12.8377
55.8165 35.4765 24.4055
59.1284 32.237 17.2335
36.1265 24.3301 17.5011
31.3038 19.1461 11.3075
22.8259 14.9714 11.0401
36.8967 22.7612 14.1896
30.3883 22.8531 14.159
16.178 12.3192 9.20855
40.5973 24.9059 15.794
20.7234 15.8829 12.1746
32.2027 18.0407 11.3381
20.7299 14.4103 11.7005
29.6161 17.3493 10.495
40.0941 27.1975 16.5919
22.0461 14.5637 9.71595
18.977 16.6624 13.2036
37.5087 27.7736 20.8924
37.6542 22.7768 14.0816
26.3537 19.5933 13.7086
41.9475 25.8101 15.5339
13.7709 14.0432 12.6933
31.5826 21.7653 15.255
17.4056 10.3934 7.59354
20.7661 14.9815 11.9504
27.655 19.6341 14.8396
42.3834 25.7633 16.1635
18.963 13.9013 11.2131
28.157 18.0891 11.6488
29.4052 20.7055 15.5406
30.3283 20.4077 14.758
27.9192 24.263 20.6345
36.0663 21.6742 14.4901
36.758 23.2905 15.2869
27.6561 23.58 18.3665
23.823 25.0021 24.3739
35.0924 23.4825 15.568
29.3871 26.7884 24.1469
38.7811 30.9581 24.6254
23.4464 14.6203 11.4266
40.5323 30.9379 23.1471
27.4646 21.2816 16.2898
19.2788 13.6032 9.75928
30.3756 26.5516 22.9578
29.8832 20.7728 15.9067
35.7728 28.849 24.9234
32.211 20.0451 12.7151
24.2775 19.5653 15.583
29.5484 17.5974 11.757
24.5061 20.6193 18.126
16.0873 11.9397 11.649
34.4754 23.6704 16.6006
28.0571 26.1287 23.0422
43.5014 33.5065 24.2945
21.4485 17.822 16.9474
34.9837 28.9656 22.2875
33.2219 27.7384 23.7706
43.212 34.1726 26.0373
29.2318 28.1912 25.6386
22.3656 18.8815 18.6995
30.4401 23.0989 18.4908
27.3187 22.6394 18.4547
31.2661 24.5267 20.2119
28.1516 23.9805 19.2322
24.5059 22.5584 20.0188
20.0583 14.7786 10.4928
14.1798 15.0203 15.6382
32.0745 25.9338 19.4601
19.9796 17.8806 14.8287
17.8974 13.2986 10.5024
21.9236 22.0266 20.7304
18.101 17.0953 16.357
14.6991 12.0597 11.2157
20.2148 19.6104 18.6463
35.7188 31.1166 27.3986
25.3192 19.844 16.7575
36.4797 31.536 26.2956
22.9911 23.9705 23.555
18.3572 18.0329 17.0009
21.5255 23.8089 28.3873
53.4732 43.5898 33.6381
12.8283 13.059 12.9369
16.864 15.8187 16.8057
23.7285 24.2419 25.1313
24.8531 22.3024 18.9824
16.4722 16.3473 19.3378
22.4963 16.1203 11.5952
21.9995 22.8133 19.4771
20.1822 24.4706 30.4829
30.0321 23.4589 20.2631
27.6461 28.8236 25.2695
18.564 19.8311 22.0192
31.9847 34.2304 36.7772
41.2212 34.4907 29.6798
23.9943 22.4743 21.1602
23.7157 26.5914 28.8687
25.3267 19.3172 18.0568
28.0933 24.7655 21.1151
18.6497 21.3104 21.5716
26.4469 21.0401 16.2351
13.0617 20.5329 29.2929
36.4223 29.4705 23.0709
24.1899 25.4597 27.5832
29.3135 22.1711 16.7193
11.0765 14.0927 17.4822
14.5886 13.229 12.6596
20.8561 19.2504 20.3447
33.1422 37.7989 38.1022
26.2873 24.784 22.4788
25.7745 29.9237 32.9185
28.9821 23.0624 18.5717
16.0409 22.6451 29.302
11.9923 11.392 14.0989
21.4357 21.4564 24.8756
24.0999 22.1324 19.6171
23.1559 23.4441 21.7792
14.7619 16.4171 19.9855
21.2798 20.7709 19.3051
13.3028 16.7156 21.4953
21.8779 21.6187 21.783
11.7117 12.9732 16.4993
22.9939 25.4001 27.8687
25.7049 23.6483 23.3078
16.6622 18.6147 21.1799
24.1609 22.8657 20.1741
14.9681 20.3133 25.4706
12.0572 13.5524 20.7059
38.6348 38.3074 35.5795
11.348 12.8983 18.6144
33.7067 33.9392 31.0023
13.6838 15.7625 19.708
18.8721 20.6748 25.1692
19.6759 23.8308 26.7713
10.9127 11.0052 14.4214
21.1726 16.6137 14.1329
17.6291 23.2636 27.7665
20.0683 21.4157 26.376
24.6217 24.777 22.3934
7.39012 9.6395 15.0333
22.8826 23.8479 25.9714
11.2145 14.974 20.4312
11.9887 12.6262 15.4434
25.8049 29.207 28.6527
11.1881 14.4636 21.017
19.4037 20.9472 26.3753
19.9075 20.683 20.3279
12.0145 12.8151 13.3738
21.4507 24.7012 26.3565
22.9581 30.8009 36.4323
20.4272 23.1572 23.0298
12.1424 14.5792 18.1193
13.5403 15.5024 17.8374
6.61901 11.3778 20.5882
17.9639 19.1181 23.0385
13.6073 15.5324 20.6483
19.3922 26.5064 37.6466
28.9585 27.787 25.0254
17.3977 20.621 25.6128
32.5001 37.4707 40.4342
19.9705 31.0763 39.5294
15.6208 17.0469 23.1794
16.1851 19.8166 23.0426
13.8394 17.7657 21.795
14.9042 17.9872 24.7144
20.8408 25.5365 34.6466
25.1295 24.7492 25.0616
19.3381 23.9985 32.0967
16.9677 17.6891 18.1931
25.4702 30.6488 36.4307
23.6223 29.524 36.1043
23.569 36.2338 48.5707
20.1193 19.9242 21.4467
23.5931 28.699 30.5018
10.753 18.4771 26.8122
12.3298 19.5567 30.4818
16.3646 18.9778 23.9953
8.40037 9.52633 17.2027
12.9177 15.1403 18.5146
20.6541 26.0629 28.7592
10.9167 15.8843 27.0102
21.135 24.2462 28.6291
14.4475 17.0467 20.4633
9.26241 14.5598 21.0042
14.5966 17.2336 19.5332
8.14655 12.1645 17.6709
20.064 29.6354 36.7713
13.2752 18.6515 31.5535
28.1016 36.7076 40.7288
12.2619 17.6126 28.9973
15.2184 18.5302 28.7335
19.917 23.9905 30.7998
21.4847 27.3471 31.0513
8.72624 15.4267 22.739
7.62135 8.86287 12.9219
14.0251 26.6523 44.0043
22.7224 21.4709 20.9844
9.59828 13.6839 17.505
15.2775 23.6112 36.2091
15.5225 25.0573 34.2022
7.8156 10.1803 19.7698
17.7635 20.7557 23.877
12.6058 18.1096 26.6481
16.7711 24.3124 34.4039
13.5578 21.0471 34.5506
15.2394 14.27 17.7567
12.3889 19.6543 28.3486
10.083 10.842 14.2407
14.4453 20.3338 24.0937
19.0283 28.9576 41.8817
10.952 14.1681 20.1324
10.8345 13.5922 18.1974
11.6499 19.431 28.34
11.733 16.6365 23.0874
11.9103 22.5871 39.588
16.6908 17.0559 18.2297
11.1309 19.6328 29.2292
10.1302 11.906 17.5272
11.9901 17.4578 22.6926
6.71462 10.0714 17.0433
10.0618 15.6635 25.1226
10.3373 14.6283 20.8296
13.1453 19.4048 31.0368
10.5452 14.3771 28.7633
21.4147 30.9567 37.535
12.8432 18.1564 26.024
9.9245 14.29 21.0973
13.0106 22.6581 38.4558
15.8422 22.9739 28.5129
9.93775 15.3804 21.3067
9.10701 19.126 40.8202
21.5619 27.6951 36.4439
17.1964 25.6846 39.8652
10.0505 15.9054 31.851
17.8365 21.458 24.1895
12.9621 20.6546 30.6503
10.8733 15.282 21.7207
13.6879 27.0176 45.7642
8.36277 9.35597 19.2447
12.3231 13.8548 19.2139
21.3049 37.8971 55.4378
10.6131 15.1006 25.3407
9.98882 18.9359 35.3612
10.2484 11.0916 18.4063
16.2437 26.7242 47.0179
19.8041 27.595 39.9504
14.9257 18.6743 21.1549
4.78424 10.6743 23.7644
13.5248 22.3912 42.4554
18.3838 21.1692 30.4553
15.0546 22.2541 33.7629
15.3922 25.8114 40.7639
14.0388 20.5727 31.4783
11.245 17.3279 27.601
20.4753 33.8166 49.3952
12.7716 19.1501 28.5637
8.84973 11.1603 16.6179
9.32195 17.0088 27.399
7.05871 10.9878 20.3965
12.8799 23.1025 42.7208
15.066 19.6201 27.323
11.3737 17.3346 24.8091
5.55642 9.3287 16.262
8.06182 12.1784 18.9688
7.53236 12.1662 17.877
8.5498 15.4614 28.8612
13.0254 22.9617 38.3411
16.2878 30.4656 50.5728
11.2097 13.7603 21.6769
10.6054 16.7673 23.3699
13.2894 27.9881 50.0536
8.36804 10.5661 19.906
10.7044 17.9432 30.2567
11.285 17.7518 27.9261
10.9973 17.0999 24.6067
9.31734 18.7552 41.4993
17.6982 26.3597 34.9906
10.1791 23.0448 47.3505
12.0613 15.2923 24.1965
4.58691 7.2227 15.2855
11.4036 19.4525 36.8268
12.302 19.5416 32.3797
13.3043 22.0673 33.1829
11.9696 18.986 32.6691
13.6953 27.4808 44.0571
9.29597 18.4547 35.9948
6.60926 14.2807 38.381
11.1756 12.7351 16.3855
10.2641 18.4857 25.3011
8.498 19.5891 40.4278
14.1941 29.1858 57.9327
11.2198 14.0519 24.6421
13.2342 22.3607 36.2333
9.35292 16.5605 29.9727
10.3506 14.6549 28.2781
12.8829 19.5709 24.8037
5.62207 13.0701 27.2123
9.15286 16.225 28.9972
5.62263 11.2232 23.5651
8.5899 19.7594 44.9393
9.54488 12.6754 22.816
12.5777 21.9395 39.5284
10.4306 18.3349 34.2363
8.87095 18.9932 47.0243
14.9244 21.0303 36.6484
13.0347 22.6395 35.9668
12.0112 18.618 28.7839
10.6649 17.2658 23.9682
7.39526 16.5439 32.0732
8.6887 13.9169 26.9644
14.3756 25.7356 41.0974
8.89446 16.0045 20.8087
6.34997 19.5645 43.3651
10.5454 18.4305 32.0183
10.0901 21.9349 39.2227
5.63119 16.0555 44.1699
11.8835 15.0602 23.6153
6.65413 8.98943 15.8615
6.07025 13.1766 28.3236
8.9988 18.7965 33.1572
7.48442 13.4591 26.7361
10.0445 23.2986 51.7848
12.4735 20.4656 34.5432
7.38603 16.4029 34.7994
5.48446 9.66469 33.221
11.6062 17.5095 39.4997
13.8623 21.2656 38.0148
16.4961 22.9391 24.1504
11.7047 31.3909 65.0677
11.4412 16.1052 27.5131
9.84295 20.9485 42.1034
8.30215 13.173 22.0822
6.90772 14.6796 34.4754
12.8153 24.1818 38.722
4.19895 8.24957 27.324
9.13714 10.8091 17.6849
10.8613 21.47 31.9201
10.9062 25.1935 45.0074
6.98794 14.6497 29.3544
7.09709 16.2798 38.9965
12.1842 27.6872 63.3918
9.48393 11.0855 19.3078
7.79377 15.3599 35.7002
8.03434 12.6435 27.0276
13.2762 22.6006 34.186
7.46882 18.9088 38.4789
8.87336 20.7879 45.9864
10.9186 19.2052 37.2783
9.57199 18.2652 39.921
12.2868 23.1077 40.577
7.75556 15.742 39.7023
11.0441 15.1265 23.0509
11.1973 23.6096 40.1111
9.4359 18.7521 31.7916
5.60579 12.3957 27.5401
6.38307 15.1759 35.0112
7.60949 16.3964 36.9915
7.3362 14.6353 30.2054
8.28927 17.7878 45.482
14.4953 29.727 54.5499
8.70394 15.7087 37.5933
8.70936 18.347 45.9747
11.3043 19.402 31.7264
6.18303 11.4838 18.9601
5.24674 12.7445 30.4858
8.52961 14.246 24.0092
8.09843 18.3457 31.7527
8.27636 23.0329 52.3408
8.7172 16.1966 35.6748
6.83281 14.0779 26.8574
10.0064 22.3354 39.8499
6.53619 17.3856 39.7133
9.19363 23.2948 51.2452
6.36575 11.6112 28.7563
10.2741 25.3576 58.9196
11.2391 18.2398 32.0368
6.60158 18.2778 50.3355
8.30398 15.3281 30.9745
5.66537 12.2835 36.1238
9.68899 15.8768 27.7496
6.75379 18.3462 43.8443
8.69453 14.0582 26.0681
6.4817 13.1707 28.3015
6.2861 10.9241 27.3024
8.68433 15.7899 21.4035
5.39518 16.4171 39.1944
7.55476 17.2543 47.5009
7.73847 16.5531 43.2398
9.02637 15.6695 35.136
10.0762 15.7032 18.5436
4.22504 14.1266 36.3941
5.69428 7.62969 15.6323
3.38378 8.12422 16.9999
3.58638 8.18055 26.5123
8.6431 20.0222 41.2267
7.03254 12.5541 27.0549
8.38214 15.2392 27.5761
10.6114 27.5366 57.7686
5.75044 13.4715 47.2067
14.6256 29.8502 53.6602
6.64761 12.7019 23.6563
5.03749 17.5784 43.2231
9.92987 24.2851 61.6965
8.02583 9.77665 17.6294
9.77379 25.6138 50.2552
4.57177 12.6896 43.3373
10.432 19.232 34.2779
6.25442 15.9818 39.4958
6.40988 13.6544 25.8385
5.36369 14.5842 38.2393
7.15648 11.703 32.5127
10.8155 21.7572 36.5662
7.76773 20.5056 42.3947
6.29896 14.8 30.7787
5.8966 18.0133 41.6767
4.56503 12.3826 38.1452
5.30739 10.9681 26.4386
4.20412 6.98596 17.4027
4.65122 14.7064 48.5986
8.33131 14.687 36.3188
7.50679 13.9373 24.6882
4.36131 10.1095 25.3987
4.29873 9.92191 29.4341
6.39548 10.1506 14.1574
5.45175 20.9743 47.6651
5.71248 14.812 38.5306
7.69796 19.6401 50.568
5.9861 7.93261 13.7115
4.00008 12.6453 39.3592
10.808 27.618 56.9456
6.75396 16.6401 46.9207
8.57548 19.7712 54.544
10.1342 18.7748 41.2343
9.96947 21.9952 48.2532
5.2595 8.63306 24.9392
6.1455 16.4534 40.8557
8.92971 16.5275 32.703
8.26637 19.3244 38.3542
6.53144 14.6985 33.8968
8.26249 23.7067 62.6751
9.02212 17.5705 39.2704
7.49785 16.0703 28.3795
5.28975 20.523 62.7584
9.42721 16.5484 33.7986
7.38379 17.7776 31.5262
4.93999 13.8133 34.5579
3.97293 13.2472 40.2325
6.29507 12.3326 31.9134
5.53747 13.6658 35.995
5.99102 14.376 39.5148
7.1201 14.6589 31.3883
6.55464 15.8481 33.3209
3.77045 7.02967 19.8519
4.47237 13.9667 30.6374
5.63364 15.7714 39.2044
5.69427 13.4146 35.9203
4.50031 7.73786 20.982
5.28896 12.6274 28.5079
4.55568 13.2419 41.411
6.43109 12.5983 24.8023
3.97672 9.43327 26.4774
7.13268 20.5012 44.0654
4.52996 14.2137 39.4585
5.94062 10.7346 28.2942
4.43563 13.0127 34.7997
5.57765 8.68595 25.4265
4.9731 8.61535 15.8233
2.08516 5.48891 18.288
5.39595 14.8716 34.8149
8.55987 22.986 50.0741
6.67663 17.673 40.2974
3.97766 9.26563 26.0509
2.52015 5.23398 22.0072
5.14353 12.4719 28.8411
6.57235 20.511 53.1575
6.56143 12.8496 33.3162
6.99105 13.9792 31.4588
7.63249 21.8089 50.9418
7.20959 16.6081 32.0537
4.85613 18.5275 51.9673
6.40901 16.1865 45.0295
4.67671 9.23002 30.0852
4.33947 10.0774 30.5978
4.49709 12.9098 44.2313
8.41701 18.5681 36.9588
5.31908 14.9758 44.3624
8.35792 23.1901 55.3943
6.01822 16.8588 49.7452
6.22926 13.3877 45.6741
6.55779 11.8616 29.336
4.76093 10.6203 26.5037
3.20965 4.30601 22.0966
6.05903 12.7449 26.0848
8.3383 25.1987 47.8721
4.63471 13.4397 37.4217
2.93616 5.92238 18.4496
3.79284 11.7982 29.5126
4.09789 14.9742 40.258
4.02596 10.6116 40.9867
5.35177 8.45555 16.8847
3.0604 7.83534 25.7405
4.06818 10.1568 21.5676
3.05568 10.0365 35.919
5.37093 12.4192 35.9071
7.99251 23.0238 48.2689
3.96977 7.31653 22.4564
4.65686 12.4935 29.0796
2.98398 6.8371 24.5457
3.93363 9.9254 25.916
5.09285 15.7554 35.6073
3.26248 9.72495 33.8913
6.71842 18.385 48.9368
5.70213 12.2235 32.0445
6.32895 17.0015 38.0462
4.90622 15.1313 46.084
5.06199 12.1404 33.6539
4.47392 12.2465 31.2667
3.50784 8.57339 28.078
5.98688 20.9655 61.7251
8.56804 19.4026 36.8764
3.58902 11.3654 42.2167
5.52753 15.8824 41.4203
4.60337 12.2157 43.8467
6.3927 13.4475 30.0999
5.8663 15.4465 31.4319
2.81089 10.5411 46.2254
6.08304 14.0763 49.1955
8.46538 16.5422 33.843
4.17048 8.95398 18.6746
4.55365 16.8963 40.0311
3.4478 7.54991 26.0775
4.81407 14.1998 40.0966
3.85267 9.26751 30.2002
4.75452 14.1921 42.9635
5.20759 11.6118 39.4317
8.45722 23.3656 44.4636
3.87121 15.5767 44.0631
4.10168 9.74014 31.6645
4.11657 10.2772 25.6078
4.66057 15.1754 42.3616
3.61934 8.61649 24.796
2.92853 9.58715 35.4358
5.79618 15.598 43.0342
6.08735 18.1545 40.5497
3.09121 7.23763 24.4877
3.31676 9.50246 31.433
4.93061 11.2762 25.6925
3.38479 15.0983 56.4311
6.49739 16.1035 46.4934
4.45803 10.8204 45.7499
8.29597 20.3197 44.3741
5.7297 18.3723 53.8606
3.88449 9.13832 30.0155
4.48448 10.2728 21.3116
2.77204 10.8826 28.8301
2.81182 10.0998 36.661
5.20226 11.339 26.4033
2.22586 7.9764 29.8066
3.41307 5.35946 18.081
2.89522 8.32131 23.4341
4.27373 14.0501 28.3879
1.99922 7.84324 32.847
3.33263 7.16578 20.7243
4.24809 15.3501 48.6528
5.28187 13.5522 38.8429
3.5304 10.6562 30.6396
3.43687 8.67472 31.6847
4.76342 11.1333 30.3898
3.70691 9.93098 20.3504
3.14436 12.0154 35.8412
3.50601 9.91151 28.5939
3.50793 12.6075 43.205
4.88859 16.5099 60.3039
6.00242 12.5842 34.246
2.94085 6.80441 32.0289
7.39383 21.6147 49.0542
4.16732 12.5421 39.514
4.39468 9.57383 26.9056
5.22684 18.913 50.6033
4.96181 14.1861 41.0311
3.12672 8.05606 16.239
1.78734 9.84952 37.3492
3.59671 11.3033 50.9703
6.98759 18.7922 48.9006
5.73321 14.4599 38.5624
3.50929 10.2943 26.048
3.55659 10.1842 25.3965
2.9654 11.5203 34.6682
3.3126 11.1812 50.099
6.17612 12.7057 22.1728
3.7044 17.5071 44.873
2.5222 7.70313 34.875
3.14773 7.85077 36.7277
6.32882 20.263 50.2379
5.33295 14.0307 41.1079
5.68051 17.1568 45.554
4.19306 12.0388 35.1416
3.23233 10.4686 31.797
3.28828 8.35637 33.4281
4.75607 15.0921 42.1887
3.94896 9.6508 35.3364
4.91872 16.1375 41.5167
4.37208 17.6637 59.762
6.42075 13.2768 45.058
5.19659 13.0921 30.5255
3.95268 11.3563 32.8172
4.36357 21.2337 70.5602
5.52293 10.0541 25.3839
3.13609 11.1293 36.3502
2.81982 8.69363 25.2474
2.35265 8.16684 32.0797
3.21468 5.84228 19.3352
3.28889 12.5213 41.1453
3.92737 12.3967 39.4515
3.62308 8.5808 26.86
2.6087 10.3206 49.7232
4.43881 8.39164 24.6495
3.73449 11.7152 39.1471
4.84341 16.3522 44.4823
4.89792 15.4816 32.9645
1.55866 4.25624 21.1305
2.29556 8.47571 29.8728
3.60776 10.9026 33.4919
3.99441 14.3264 40.5026
2.61084 6.23249 23.6351
3.07738 11.844 35.9735
3.22067 5.68412 20.0875
3.10808 10.6008 40.2227
4.5877 16.292 45.6778
4.51692 15.5804 49.3778
6.10511 18.7355 48.3561
4.65339 14.9816 47.6976
3.64138 8.09277 32.6409
4.70274 12.7251 22.7836
2.29022 14.8296 60.2842
5.47885 13.3403 57.2287
5.84841 11.1876 21.9726
3.00361 11.6192 32.22
2.58857 11.8831 45.6872
4.60362 14.0042 41.017
2.75776 5.61193 19.7359
3.18728 10.6497 31.3693
3.45779 12.019 31.0223
2.45105 8.18933 31.1313
3.05333 7.64408 22.764
2.65096 9.82276 41.8734
4.21125 10.458 32.1758
3.69403 15.0878 57.7981
5.84272 14.7617 23.7369
1.9819 10.7572 41.0432
3.65889 10.1802 37.3179
3.34393 6.79659 20.8589
2.37253 8.73291 22.4001
2.42719 11.228 41.9682
3.52191 11.6938 36.3344
3.07398 8.07272 27.9214
2.5833 7.72063 33.9431
3.53322 10.494 35.1767
3.14541 6.93502 20.4015
2.35438 5.89995 27.4661
3.53534 15.0159 56.1222
5.46994 16.6966 51.5492
4.7201 12.7505 27.0948
2.28088 10.2321 32.3255
3.03686 7.9089 27.9047
3.23073 10.0609 23.1414
2.55237 10.4561 40.7405
4.26187 15.059 69.5222
6.88522 17.061 35.9782
4.36765 19.302 55.3479
2.7878 5.05177 23.9169
2.23727 10.239 51.1813
5.29433 8.93273 22.8309
2.65989 7.44425 13.5426
1.61876 9.46876 34.122
3.78332 14.1497 46.42
3.76932 8.97821 27.0197
3.29817 13.6506 44.7215
3.60883 11.6456 44.2269
3.37811 6.49009 20.6602
2.42348 7.72447 21.8203
1.59952 8.33891 38.0047
3.20353 11.3177 42.1782
3.54331 10.7922 35.3287
3.9005 8.28999 24.4257
2.06053 6.88627 37.795
4.28583 12.569 29.4603
3.33007 11.0433 42.0019
3.59985 14.7852 49.3638
3.6388 6.54872 24.1481
3.37612 14.3563 38.0346
3.16424 12.5859 38.5412
3.01481 9.13641 32.9753
2.59035 8.13481 23.7199
2.94514 13.0093 36.2389
2.99774 8.16365 24.8554
2.10792 8.19913 48.0649
4.79697 11.6056 39.2102
3.71141 11.8492 39.9269
3.52389 7.93462 21.7904
2.85294 12.8994 34.1713
2.56447 7.40807 19.6593
1.91699 9.17221 29.4221
1.9198 8.96943 50.4858
4.64752 14.5855 47.12
3.45681 10.4333 31.2974
2.09101 3.95627 30.3929
3.93007 15.9573 53.1915
4.03036 8.49597 21.9237
2.027 8.90774 29.6646
2.7883 11.5076 46.2357
5.53273 21.7815 55.0053
3.86168 12.2369 45.7181
3.19167 8.64519 36.6523
2.56253 4.90658 13.1813
1.71724 6.85565 23.9668
2.07507 6.71926 25.3275
2.96496 11.136 45.6528
3.665 8.81077 27.7137
3.16606 12.2017 40.2346
3.27312 7.49665 33.2215
2.74816 10.7125 30.5833
2.70922 9.94247 41.069
3.93774 13.1552 34.8976
2.47401 6.06524 25.4832
2.79108 10.066 38.2072
3.07118 8.73597 41.6556
4.28037 14.1303 39.9353
3.64099 13.1868 38.2491
2.55953 10.7292 48.6496
5.02183 12.7048 33.9896
2.10016 5.72594 14.6456
1.51322 8.00227 38.027
3.00195 5.78912 16.4515
1.80146 6.00838 32.6519
3.53405 14.2557 44.4245
3.73254 11.4798 29.3444
2.55037 11.6061 32.3856
2.00681 7.7442 34.2036
2.87175 6.06173 24.0734
1.92629 5.69666 22.6642
2.06345 5.98813 22.4772
2.57567 12.3773 46.6892
4.09007 16.8398 55.6472
4.06057 11.6384 35.1936
2.73006 8.52714 29.6428
2.1115 8.84484 33.8086
2.48883 7.44854 23.1171
1.5066 7.48153 33.6216
2.60738 10.1369 42.9479
3.52147 12.0984 54.2287
4.4749 16.6418 44.5679
2.97623 7.61858 29.5199
3.03929 11.4005 27.6942
2.1218 11.3807 32.9914
2.30311 6.90882 41.5293
3.90001 13.1274 22.4513
1.46359 11.4762 56.319
3.70391 5.69858 32.9108
2.66316 8.39997 29.3493
2.58761 11.3104 51.8994
4.5845 13.0369 34.1532
3.14023 10.1494 32.376
2.43892 10.3958 38.3424
3.001 9.55701 36.2882
3.42267 13.177 38.7696
3.42099 12.2445 37.2777
1.70241 6.81309 40.2216
3.5888 12.2022 39.3287
2.29364 8.8655 47.6277
3.97996 7.68798 26.2768
3.44298 16.1083 57.7413
4.01778 13.5298 59.8373
4.42737 10.3651 17.5614
1.43127 8.56963 49.499
4.64381 16.4962 33.3376
2.12197 11.6176 48.6741
3.80333 13.5685 44.3318
2.59541 7.82934 30.9023
2.41872 9.33521 50.952
5.09131 11.0946 29.7829
2.12634 8.49094 24.616
1.70265 9.56379 38.2308
3.10378 7.9457 22.4698
1.59827 10.1135 44.8609
3.35295 8.95721 31.5339
3.03538 11.1438 39.5318
2.8948 5.56447 18.0659
1.3637 6.04797 24.5039
2.58271 7.8154 39.8249
3.54042 11.9206 34.5421
2.7529 10.4179 41.846
3.38053 17.8888 43.6225
2.90036 9.95555 31.1028
2.10441 8.37604 45.177
4.08847 11.1372 31.949
2.56684 9.74711 35.8771
2.14233 5.08182 24.2611
2.05796 8.37214 38.9561
3.34589 9.27059 32.2827
2.91986 9.48972 43.9293
4.00708 11.1778 25.7826
2.28446 12.6668 44.4326
2.85709 10.356 34.484
2.31949 11.5434 53.3763
3.44808 7.61302 26.8314
1.92981 9.61552 38.1398
2.87292 12.3718 39.6067
2.61237 5.52925 13.6475
1.13302 4.03968 21.9535
2.13173 7.7732 21.9094
1.49647 4.59065 32.6239
3.25201 15.9928 39.3911
3.07476 14.2898 51.038
2.8456 7.7403 34.2636
2.32734 10.5312 82.9237
6.28209 11.7088 26.7224
2.16565 7.33103 27.1684
2.49697 9.30241 39.5817
2.95003 12.5882 32.6455
2.15662 7.8471 30.1451
2.35244 10.2872 24.4753
1.66774 9.98847 31.0116
1.89889 8.89388 58.6012
4.78035 13.5747 32.2515
2.19976 8.72288 21.8224
1.20128 6.28927 23.4891
1.50459 8.52015 46.7094
3.03318 9.02555 33.1557
2.42368 9.6583 25.9107
1.88445 9.06735 51.0212
3.90983 13.2621 41.1117
2.61877 6.74895 20.2157
1.86275 10.5326 41.9285
2.75715 10.2252 33.104
2.57593 8.4777 54.994
4.84829 12.6295 20.2191
1.51443 6.53202 27.0389
1.78917 7.61277 26.6136
1.84027 4.47012 17.7397
1.51572 5.48209 25.3043
1.84955 5.29301 21.9308
1.78344 7.80664 26.4891
2.01511 9.87675 47.9368
3.02029 6.18015 22.471
1.75987 7.08058 23.0058
2.00941 8.30249 44.6878
3.43362 11.0046 28.4412
1.45517 7.48993 56.5544
4.51329 17.2713 44.0485
2.83475 8.57401 38.2485
3.18746 17.4592 38.1701
1.89863 4.56975 30.1063
2.36603 7.64683 33.4441
2.21083 13.4008 52.3455
3.88558 10.4641 21.5705
1.4024 8.42688 49.6394
3.72604 12.5249 38.3699
2.39039 9.03346 41.887
3.17244 9.41012 43.8578
3.31861 10.9276 35.6797
2.8018 10.0282 27.6328
1.98443 5.98046 24.8426
2.05834 8.07418 27.7585
1.73364 6.92439 36.6282
2.57932 8.28276 25.353
1.98742 8.81249 26.8435
1.4427 4.22328 30.6383
2.33696 8.51145 31.3745
1.95315 5.3055 23.1027
1.75916 9.43038 44.9807
2.91677 11.621 45.2184
3.26688 12.164 38.063
2.70553 10.2488 33.359
2.18594 8.75977 40.2875
2.67552 7.09167 24.6903
2.09469 12.5662 53.6736
3.99002 8.02482 14.319
1.22332 8.54119 32.4128
1.91184 4.52468 28.3933
2.09717 9.976 42.453
2.94223 7.82952 26.6001
1.72732 2.81858 12.302
1.15122 7.46516 35.7959
2.6974 11.6713 42.8256
3.18674 11.1001 30.2254
1.64446 7.40654 40.2248
3.00847 11.3615 33.855
2.10168 3.98905 17.1844
1.66765 10.2367 64.2002
4.86892 20.2468 60.1665
3.44247 12.3574 56.8151
3.79258 8.73229 24.5305
2.14582 9.55873 35.1483
1.90401 9.18668 33.5453
2.38864 8.22084 32.457
2.05945 6.75738 22.3383
1.66768 6.77522 37.6447
2.99442 6.61158 15.4628
1.0812 5.90944 23.0879
1.48324 6.07193 32.9862
2.76577 15.7428 58.4811
3.43791 9.47115 16.5254
1.07537 8.05144 28.2933
1.88684 7.00984 24.1375
1.83968 7.89055 37.2747
2.85879 12.433 40.2217
2.11284 8.46269 50.6229
3.9069 14.5248 42.6033
2.51954 8.92603 29.9919
2.16201 6.6307 54.4332
4.29854 12.9405 21.1694
1.3765 7.90645 42.3503
2.9016 6.45316 31.2592
2.53332 10.2318 18.4165
1.43473 11.2025 56.7519
3.65165 9.37257 20.0993
1.56197 11.4386 36.9945
2.38417 11.3522 34.6313
1.45351 3.06181 31.7945
1.88089 8.01676 29.6198
1.84637 8.13537 31.3753
1.90413 5.35441 28.9598
2.1864 9.64631 47.3226
3.69921 9.94617 33.4983
2.5017 15.4051 59.6302
3.38154 10.2655 32.2956
1.97206 6.90321 31.5802
2.30737 6.93331 43.6776
3.66275 10.041 45.1613
3.17213 10.2516 34.5648
2.43358 12.3977 50.9046
3.61279 9.2005 29.2422
1.79469 6.84781 20.7735
1.43895 8.1802 43.0393
2.65345 13.4097 35.4665
2.09499 7.01232 19.2528
1.32295 6.1798 34.455
2.56032 12.7864 53.4088
3.37451 6.8597 35.9979
2.6962 8.19521 26.2976
2.19001 9.02372 29.2062
1.9179 3.84572 18.9546
1.33958 3.33286 16.9233
1.42679 11.0904 38.2388
2.89494 9.93321 48.2311
3.44556 6.0295 31.1091
2.30874 8.68288 32.0173
2.34509 7.18965 24.3253
1.50048 8.45791 32.8586
2.58821 5.72093 25.4207
1.69402 5.2955 18.7441
1.12727 4.21455 25.9196
1.97356 8.01496 27.0915
1.94617 5.17532 24.4126
1.88947 7.40848 34.1166
2.45871 8.98666 24.6621
1.68481 4.71973 17.8013
1.27583 8.2647 26.4165
1.90256 5.9364 21.9038
1.17392 5.3437 20.6539
1.20567 6.75074 47.5982
3.68233 6.80889 16.3487
1.12861 6.40662 25.4651
1.79575 7.74831 29.7484
1.98169 6.6335 23.7409
1.6012 9.36044 44.6927
3.23637 8.32298 37.0389
2.22416 10.8761 44.9903
2.64955 13.0361 40.0599
2.65628 5.74024 36.7847
2.21982 9.23085 25.7872
2.06409 11.321 53.7622
3.19541 7.86212 20.6308
1.56958 10.8858 53.3956
3.3028 6.89688 20.3073
1.09302 11.0805 37.1711
2.37105 7.33243 43.4692
2.83271 9.91232 54.4984
3.28671 13.2995 32.4275
2.13548 8.59213 40.3541
2.6937 10.7646 51.7013
3.11049 5.39665 35.2719
2.74816 12.8067 28.6241
1.97332 5.3165 20.1622
1.53946 7.97406 21.3023
1.49714 7.65422 35.0684
2.15743 10.0427 45.403
2.33597 8.51671 33.3871
1.98485 8.83052 32.9477
2.26515 8.65367 28.467
2.04317 10.1708 50.3295
3.65162 10.9821 30.5918
2.06534 3.45676 16.7826
1.17496 5.47093 16.3012
1.40058 3.88417 30.2032
2.3809 7.28028 18.2955
1.318 10.9598 38.8975
2.51877 5.84651 37.0286
2.77188 11.0987 33.0275
2.22718 7.94981 25.4653
1.91461 6.1454 25.7706
1.60196 7.39734 21.0206
1.57015 4.95614 47.3464
3.24884 11.1953 25.7023
1.67849 5.98777 27.4867
1.774 7.72702 23.5822
1.49391 5.79891 45.4729
3.07289 10.9909 15.8607
0.833776 5.25091 28.5464
1.94824 8.78146 30.9984
2.23703 6.5885 30.5133
2.03882 5.67046 19.6395
1.2718 10.3384 32.0461
2.4239 6.86682 24.975
1.83807 4.11565 36.9101
2.216 14.4688 59.4405
3.79706 9.63299 25.0815
1.85942 4.68119 16.2982
1.13366 4.49652 26.8783
1.83076 5.40455 33.9454
2.0445 8.8001 18.3612
1.35234 5.96418 32.3789
2.27541 8.96111 27.3239
1.6668 9.12038 36.9123
2.33096 10.0395 52.2724
3.71147 10.8452 44.8664
2.85286 11.7522 33.1804
1.78095 6.33676 26.6158
1.6424 5.77965 23.5361
1.4652 12.5996 54.6718
3.86078 7.89898 19.4932
1.19145 6.81487 43.2586
2.99773 7.97047 29.6559
2.21212 5.83094 25.6853
1.67978 9.9875 42.1162
2.94997 11.7519 24.2871
1.56102 7.45907 44.6314
2.65525 7.83892 46.3382
2.83141 10.0899 27.9821
1.63062 5.40506 40.1989
2.97861 8.54531 23.7615
1.42478 8.93969 33.247
1.86515 11.2882 48.2327
3.05605 6.69264 14.7484
1.01329 5.49626 25.4036
1.8191 8.57626 23.4785
1.80875 7.65407 34.5797
2.17135 12.4357 90.2973
6.14622 15.2777 19.4406
1.30832 4.25431 25.1514
1.59371 8.85616 20.7314
1.39715 5.42684 29.7512
2.29205 6.82864 30.3703
2.24915 10.3232 36.9877
2.39194 9.68471 46.1669
3.48522 13.073 34.3157
1.88297 9.22516 50.764
3.53471 9.00589 36.8195
1.9957 14.6272 26.0326
1.72564 13.502 53.1193
3.55865 4.00164 37.4064
2.43309 6.74281 42.6682
2.59886 0 0