# pn-170911/RbIIA-25-RbIIR-1280-1959.psd
# Power spectrum* (dif=0,1,2) (really just |FT|^2)
# NOTE: only the first half! (symmetric)
# weeks: 1280-1959
# 1014 clock-days, 389 excluded
# PSD: 1441
10505 0.239063 0.0212496
574666 14.7913 0.0113817
1.50395e+06 24.8566 0.0115782
370296 12.3005 0.0116198
233466 11.9399 0.0119574
103806 7.00181 0.0119877
72366.7 6.66099 0.0123909
53495.7 6.03761 0.0123292
38262 5.21045 0.013019
30291.6 5.6674 0.0136672
22699.7 5.45732 0.0137927
18940.6 4.97042 0.0142826
16274.6 5.0177 0.0144541
13881.7 4.93042 0.015716
11441.5 5.02115 0.015915
10253.6 4.65165 0.0158285
8331.68 4.83413 0.0178385
7528.55 4.25809 0.0172988
6617 4.82464 0.0191777
6113.62 4.95416 0.0192984
5606.11 4.69639 0.0196887
5082.46 4.7108 0.02063
4671.99 4.76139 0.0216041
4184.71 4.6478 0.0239754
3751.54 4.54125 0.0227161
3658 4.66032 0.0244646
3151.15 4.35551 0.0250459
3182.4 4.82666 0.0281035
2812.09 4.64408 0.030196
2549.69 4.55841 0.0298372
2409.95 4.46898 0.0309553
2421.23 4.81687 0.0330893
2155.36 4.63977 0.0350124
2081.66 4.74476 0.0354593
1969.09 4.74037 0.0377871
1886.25 5.21909 0.0434626
1695.31 4.6335 0.0401063
1662.43 4.76155 0.0427455
1591.56 5.03321 0.0452969
1520.59 4.93886 0.0475433
1476.08 5.15695 0.0495566
1315.46 4.82393 0.0515384
1394.19 5.57969 0.0597643
1187.06 4.79796 0.0539826
1214.49 5.20884 0.0592616
1141.26 5.01652 0.0586105
1096.44 5.48478 0.0693286
1123.83 5.54359 0.069234
977.159 4.94622 0.0663306
993.357 5.58864 0.0760397
965.704 5.53981 0.0787857
923.132 5.83006 0.0819026
902.672 5.64498 0.0849069
897.874 6.20254 0.0964266
827.381 5.50125 0.0873045
840.817 5.89481 0.0971646
761.644 6.02269 0.104508
767.533 5.80159 0.102367
738.052 6.01256 0.11062
714.232 5.92909 0.111418
738.684 6.3752 0.125864
656.266 5.79824 0.110765
670.722 6.41723 0.133014
633.928 6.25867 0.131253
667.552 6.47833 0.136152
619.017 6.60712 0.146194
584.038 6.42338 0.146242
571.595 6.20948 0.145242
539.244 6.31415 0.146423
557 6.83752 0.166907
560.833 6.2209 0.160451
525.664 6.9896 0.177341
516.373 6.57797 0.173986
509.813 7.01949 0.190597
509.739 7.17495 0.204769
454.939 6.65846 0.189283
475.802 6.86123 0.201367
479.03 7.36195 0.218105
458.007 7.12286 0.218464
460.987 7.21643 0.230115
429.265 7.39233 0.236905
429.769 7.64127 0.253937
430.592 7.80462 0.256039
410.038 7.51682 0.262186
387.582 7.34781 0.262371
385.797 7.66069 0.275558
396.382 7.5205 0.282081
360.614 7.31907 0.270159
360.148 7.83235 0.295842
362.894 7.69255 0.300217
367.507 8.01155 0.3207
348.479 7.76971 0.318759
342.94 8.29327 0.346842
346.393 8.62503 0.368868
317.075 7.91372 0.344531
324.78 8.12502 0.361584
330.482 8.73874 0.38821
308.422 8.79303 0.40599
293.261 8.32995 0.397401
299.96 8.41182 0.402996
305.1 8.66909 0.423788
294.48 8.9195 0.445701
298.517 8.94999 0.452158
290.646 9.07584 0.470233
289.709 9.09542 0.473148
290.584 8.78822 0.468677
285.361 9.3616 0.501925
276.35 9.03212 0.509086
285.856 9.59769 0.540288
270.377 9.03819 0.519961
268.235 9.26999 0.539863
267.341 9.6497 0.569904
245.226 9.35847 0.577548
244.979 9.11621 0.570128
257.516 9.65581 0.615207
264.957 10.1594 0.649319
265.602 10.5866 0.687285
233.897 9.7478 0.647423
248.574 10.7782 0.715265
241.317 10.2995 0.702268
245.586 9.911 0.686946
231.346 10.4267 0.742124
235.529 11.15 0.798137
223.204 10.398 0.753836
223.181 10.5475 0.779282
218.591 10.5413 0.793449
225.211 10.8572 0.837361
216.278 10.6128 0.816295
230.729 11.3259 0.888208
218.305 11.4532 0.910541
205.326 10.8593 0.881509
212.729 11.4126 0.938111
210.728 11.3769 0.946993
201.668 11.0048 0.934086
200.218 11.8252 1.01717
198.608 11.474 0.993974
200.296 10.9296 0.966337
190.162 11.3242 1.02419
189.563 11.5131 1.05231
197.36 11.9081 1.10603
186.821 11.8782 1.1084
192.756 11.7843 1.11069
187.547 11.9912 1.15005
183.933 12.2325 1.19861
193.352 12.6686 1.24497
185.766 12.6435 1.26497
182.025 12.0546 1.22839
183.455 12.412 1.28474
186.758 13.1346 1.36893
175.124 12.5565 1.31199
171.18 12.6221 1.34801
180.46 13.5101 1.47104
171.804 12.7478 1.40859
169.139 12.8127 1.44266
182.507 13.9919 1.56765
184.85 14.146 1.63185
171.047 13.4557 1.54918
164.454 13.1721 1.54034
169.709 13.6213 1.61371
166.581 13.7496 1.64786
160.804 13.5139 1.65483
152.157 13.0322 1.60942
153.264 13.111 1.63273
157.985 14.1626 1.78621
150.157 13.3161 1.71045
144.926 13.2761 1.72053
162.674 14.5372 1.89498
142.641 13.5695 1.80166
153.459 14.8144 1.99115
145.213 14.0123 1.89109
151.094 13.9774 1.91021
151.813 14.5263 2.02087
145.447 14.5104 2.01058
143.141 14.1262 2.01819
142.396 14.3853 2.07538
139.928 14.3468 2.08445
146.948 15.453 2.25409
144.004 14.9483 2.22877
137.653 15.6406 2.35885
138.726 15.3171 2.30318
133.142 14.3981 2.21863
133.248 14.4877 2.2371
143.463 15.4191 2.40791
133.634 15.8894 2.51248
135.186 14.9289 2.36478
133.643 15.6545 2.54952
131.77 15.0178 2.44914
133.529 15.5429 2.56866
131.27 16.2415 2.73555
127.183 15.3835 2.58748
132.029 16.151 2.73091
132.82 16.333 2.81958
121.509 16.5125 2.90353
126.151 15.9559 2.79481
119.478 15.8909 2.81902
128.132 16.4708 2.92842
126.172 16.2152 2.92403
125.853 16.5888 3.0186
119.622 17.1696 3.18607
131.533 17.3859 3.26887
120.678 16.5863 3.09584
121.155 17.0249 3.23716
122.223 16.9026 3.24467
113.191 16.5783 3.21554
115.647 16.8767 3.30896
110.951 16.7078 3.28565
110.761 16.4268 3.31478
115.101 17.333 3.48766
112.599 16.3052 3.30585
114.127 17.9313 3.68497
110.276 16.7432 3.46449
108.15 17.0961 3.56529
112.55 17.0491 3.58837
111.153 17.953 3.82249
112.428 18.4408 4.00423
115.87 18.3975 3.99789
109.706 18.2583 3.91656
106.345 17.5698 3.8997
109.061 17.9747 4.00117
101.742 17.4674 3.94254
100.465 17.3092 3.99039
105.963 18.8318 4.31159
104.551 17.7719 4.08058
102.777 17.3004 4.037
103.577 18.7105 4.42194
100.687 18.4367 4.38871
99.1155 17.5991 4.18564
101.089 18.8801 4.52637
97.3204 18.1982 4.40391
101.148 18.8199 4.59442
98.3982 18.6247 4.63012
101.421 19.1841 4.77647
100.444 19.2767 4.84723
98.8391 19.4117 4.93923
96.8699 18.576 4.84033
97.5206 19.3717 4.94043
98.6617 19.9705 5.14546
97.0168 19.5205 5.1532
92.366 18.6844 5.00696
98.3873 20.0543 5.25011
98.4134 20.0804 5.39828
93.2159 19.5984 5.32129
88.6563 18.5032 5.05438
96.6941 20.0985 5.55506
92.5712 19.3232 5.27997
90.3018 19.9623 5.64576
91.047 19.6926 5.50471
89.2669 19.4437 5.45576
86.4586 18.9173 5.49448
91.5924 20.5903 5.87488
90.5494 20.509 6.01919
84.8523 19.4632 5.82096
88.192 19.5864 5.77013
88.0722 20.0771 5.95003
83.1488 19.422 5.75033
85.5248 19.5369 5.96613
83.3454 19.7461 6.03967
84.358 20.7008 6.36599
84.809 20.3663 6.23447
80.013 19.5201 6.09549
79.7966 19.6002 6.24062
83.9206 20.3005 6.45631
84.2436 21.2592 6.71884
82.2375 20.1071 6.4318
85.3137 20.8138 6.70749
74.5577 19.0961 6.23942
81.9798 20.3873 6.69322
76.2668 19.826 6.59098
77.6593 19.8538 6.62024
80.6424 20.4664 6.79839
73.7181 19.1191 6.47815
76.389 20.5701 7.00487
77.4537 20.3214 6.94182
80.9027 21.1808 7.28947
77.3932 21.0543 7.35857
70.6328 19.404 6.78487
68.9455 18.9673 6.80003
77.1428 20.3941 7.14079
72.4261 21.6019 7.68867
75.5819 21.3248 7.7675
76.5865 21.5861 7.78243
76.3583 21.499 7.8064
71.9256 20.7152 7.68684
73.6432 20.7549 7.62036
72.3897 21.0799 7.98413
71.6497 20.5937 7.6703
69.0821 20.3376 7.67107
73.9675 22.0084 8.40236
70.8766 20.5617 7.81982
71.6857 22.5971 8.79619
72.2606 21.025 8.08232
70.5619 21.3903 8.24944
71.2416 22.7681 8.94248
71.1585 21.8293 8.6019
67.0884 21.7512 8.73854
68.373 21.1655 8.53939
67.8681 21.5331 8.65343
68.8218 22.0083 8.92885
67.025 20.9144 8.67959
68.2367 22.2028 9.14647
72.5452 22.5634 9.23023
71.1986 23.703 9.90886
67.0877 21.5639 9.11594
69.61 22.8638 9.60911
64.0017 21.3771 9.03977
68.26 22.8357 9.83818
65.983 22.1469 9.40599
64.3208 21.9006 9.58265
64.6146 21.9795 9.49167
64.4722 22.9419 10.2361
64.7584 22.4338 9.81504
61.1986 21.4894 9.59983
63.7321 22.4139 9.93882
62.1919 22.5385 10.2687
62.4003 22.5018 10.0861
63.719 22.4769 10.2079
63.5678 22.477 10.3041
62.5834 21.9997 10.0138
62.243 22.9092 10.5794
61.5426 22.1528 10.2287
58.982 21.8414 10.3352
58.9095 21.8009 10.1798
53.249 19.8421 9.49298
60.8086 22.2383 10.5849
56.4065 21.1175 10.1064
56.1815 21.9138 10.6321
60.5096 22.5957 10.9645
57.3348 22.4102 10.9835
57.7128 23.0654 11.2659
56.6987 23.0759 11.4145
56.8891 21.0348 10.3673
56.988 22.1021 11.2535
55.365 22.2004 11.2209
55.7324 22.7815 11.4579
56.5604 22.6003 11.3463
53.6992 21.9838 11.494
55.8282 22.9828 11.8239
54.2614 21.8833 11.3677
54.7058 22.2772 11.4482
53.1107 21.8024 11.4334
56.1413 23.5862 12.3355
52.7036 21.7632 11.4651
55.0355 23.4191 12.4881
55.9902 24.1103 12.7796
49.0241 20.9419 11.3698
54.3165 23.1699 12.5381
54.759 23.2667 12.4952
52.5359 21.8468 11.9082
52.7073 22.8098 12.4553
49.1504 22.191 12.4117
51.1552 22.5449 12.6059
50.1202 22.0486 12.3314
49.9984 23.1337 13.2205
54.1689 23.5479 13.2355
48.5798 22.1263 12.4591
52.1825 23.9206 13.8126
49.6324 22.0081 12.4562
50.6953 22.9077 13.3427
47.5574 22.537 12.9179
49.8106 22.1225 13.0236
46.8687 22.9185 13.5338
49.5758 22.2331 13.0002
49.3363 22.4759 13.1938
50.3005 22.5771 13.2432
47.5819 22.6524 13.789
49.0912 23.397 14.0456
47.2015 22.5815 13.694
45.292 22.8839 13.974
46.6356 22.4761 13.706
43.149 21.4196 13.2419
45.2571 23.3592 14.7164
48.7979 23.9361 14.7204
47.3786 23.6731 14.907
46.2471 23.099 14.5036
44.8757 22.1085 13.8934
46.0739 23.4753 14.6937
45.5526 22.7935 14.5869
45.7044 23.2156 15.0802
43.6914 22.7932 14.6794
46.456 23.2097 14.6295
43.2424 22.7773 14.9918
42.6612 22.4612 14.6178
43.7665 22.9366 15.1197
45.0383 23.3584 15.3671
43.7423 22.8402 15.1509
41.9546 21.8789 14.6325
42.2959 22.0178 14.864
44.2277 23.5607 15.6023
45.9513 24.2522 16.3087
40.768 20.8377 14.3082
44.4936 23.7651 15.9393
43.3382 24.0376 16.7347
42.0737 23.3409 16.2198
41.2719 22.5678 15.3145
41.6993 22.9901 16.315
43.2845 23.1442 15.7317
42.5511 23.0658 16.1558
41.6766 23.5627 16.7878
41.34 22.6101 15.9915
40.9343 23.4038 16.6172
40.7536 23.7465 17.1936
39.7729 23.4156 16.9497
40.7678 22.55 16.204
41.5314 23.8527 17.1771
39.8345 23.3247 17.1791
38.2666 23.0379 17.0309
39.6014 22.8273 16.4853
40.1923 23.3251 16.9819
39.1869 23.2916 17.4496
41.8378 24.5186 17.9677
38.2052 23.2371 17.3086
37.4616 21.9491 16.6872
37.455 22.217 16.9242
35.7333 22.1524 16.9903
39.2538 24.1181 18.5387
36.9345 22.6849 17.4552
39.27 24.0769 18.0703
37.744 23.8478 18.5746
37.425 22.2098 17.2625
35.5692 21.9172 17.1716
36.6472 22.9786 17.7653
36.2078 21.9989 17.2831
36.396 22.7433 17.6374
36.3247 22.6989 18.3429
33.8449 21.1739 16.9796
37.3578 23.4072 18.7097
36.1349 22.9137 18.4014
36.1586 23.9587 19.4627
34.0293 22.0058 18.22
35.5382 22.9219 18.5073
35.5533 22.9559 18.4582
35.1695 23.3997 19.7513
35.9085 22.8016 18.8073
35.4341 22.703 18.5801
35.5455 22.7781 18.7764
33.4027 21.634 18.0897
36.3644 24.0496 19.8888
34.3174 23.0612 19.7149
35.077 23.125 19.2113
34.0057 22.3154 19.1927
31.9393 22.0186 18.8716
34.6558 23.3595 19.7174
32.2519 21.0253 18.0413
31.0651 21.7224 18.8533
32.3356 22.6203 19.9309
33.5 23.1229 19.8746
33.6546 23.3861 20.3998
34.2085 23.998 21.0332
30.9601 21.9899 19.9652
32.5784 22.67 20.3379
32.0204 22.711 20.0868
30.1605 21.7423 19.4606
31.4145 21.9973 19.453
32.6926 22.9019 20.7305
31.1211 22.6372 20.4795
31.5594 22.8523 20.8029
31.4748 22.7888 20.9789
32.1435 22.9499 20.8525
32.5384 23.5191 21.451
30.3105 23.1194 21.5085
31.2161 22.6412 20.8323
31.1461 23.9194 22.1711
31.5201 23.6743 22.2194
30.5625 22.0653 20.5368
30.2436 22.3517 21.2891
30.9392 23.3948 21.7775
30.8462 23.1895 22.343
30.0789 23.2159 22.0213
29.9755 22.5496 21.7542
32.0164 23.9247 22.5017
29.813 23.1748 22.2861
30.7183 22.3772 21.4341
30.4941 23.1864 22.4372
29.0933 22.6365 22.2919
28.4299 21.6449 21.2879
30.0942 22.8388 22.3331
29.967 23.0253 22.2919
29.1981 22.6224 22.4595
27.7725 21.2074 21.0454
29.0148 22.7525 22.6124
28.7335 22.124 22.4436
28.4057 22.0574 22.1391
29.1841 23.0681 22.7992
27.9785 22.511 22.7337
28.3724 22.9221 23.4937
26.307 21.664 22.5356
28.4724 23.392 24.2396
27.1845 21.5156 21.7865
27.5558 22.9754 24.0368
26.3291 21.7201 22.5058
26.3848 22.7474 23.5096
26.4783 21.7767 22.2238
25.8941 22.2469 23.6628
26.0589 21.9345 22.8118
25.8109 21.6699 23.0921
25.9813 21.6029 23.5152
26.6981 22.4979 23.9455
25.7446 21.856 23.118
26.572 21.6502 23.1964
27.3213 22.585 24.1763
26.3285 21.5386 22.6741
26.8613 22.7891 24.7843
24.9691 21.8428 23.452
25.6901 21.428 23.3186
26.0253 22.3332 24.1824
25.6306 22.4102 24.7142
25.0646 21.6476 23.769
25.3341 22.5781 24.4471
22.8674 21.1641 23.7696
24.8783 22.1878 24.8774
25.0421 21.8639 24.1403
25.0103 21.5417 24.4328
24.7408 22.8966 25.602
25.0427 21.8678 24.8694
24.8522 22.1828 25.2579
25.0352 23.5296 27.3966
24.1763 21.5439 24.5218
25.259 21.8113 24.8533
23.8472 21.3469 24.818
23.7004 21.7842 24.946
23.9935 22.3104 25.6024
25.2869 22.5321 25.8959
24.142 22.1425 25.5688
23.3959 20.9568 24.2684
23.5905 21.5728 25.4527
22.0415 21.3401 25.4295
23.6854 21.9873 26.0989
23.0215 21.4197 25.2256
24.0624 22.4615 26.8922
24.9384 22.9941 26.8333
22.733 21.3693 25.3366
23.0387 21.8722 26.1674
22.8725 22.9248 28.3957
23.3428 21.1088 25.2576
22.2 21.236 25.7103
22.4418 21.2427 25.8573
21.8844 21.1144 26.2608
22.3986 21.3963 25.8905
22.7454 22.8439 28.7484
22.677 21.617 26.5108
22.1676 22.2929 27.4279
21.8761 21.2844 26.6103
23.0291 22.358 27.3954
21.6763 20.7943 25.544
22.6809 22.7535 28.2042
22.4767 22.4855 28.519
22.573 22.7907 28.2688
21.4662 21.4144 27.053
21.1142 20.809 26.4464
20.8196 21.2864 27.2405
20.7204 21.0046 26.8585
20.5666 21.5962 27.4246
20.2206 20.5817 26.3623
21.4017 21.7853 27.8293
21.5181 21.9831 28.3543
20.5577 21.467 28.5434
21.0013 21.0111 26.9464
20.5043 20.9905 27.7757
21.545 21.2763 27.7438
21.3927 22.3307 29.2046
21.6807 21.6018 27.9068
20.6018 22.0318 29.205
19.6291 20.9762 27.6
20.9529 21.7025 28.7411
21.4854 22.7185 30.2449
22.0796 22.5402 29.3171
20.8975 22.2026 29.9951
20.9474 22.2812 30.9913
20.8789 21.448 27.6238
19.4205 20.3542 28.7326
21.2836 22.077 29.5831
19.937 21.7034 29.7516
21.0406 22.2582 29.7786
19.8168 20.6767 28.1953
20.5793 21.9105 30.6916
19.5822 20.9225 29.185
20.2464 22.1411 30.1557
20.0633 22.452 31.0097
20.4979 20.9234 29.4416
19.8681 21.7328 30.0436
19.9698 21.948 31.2172
19.3558 21.7034 29.984
17.8384 20.3256 29.2304
20.2442 21.6394 29.9366
19.1224 21.2109 29.4246
19.1305 22.0637 32.057
19.1996 20.4938 29.0297
19.0222 21.7888 30.9274
19.8489 23.3254 32.7982
18.6481 20.735 30.257
18.1222 20.3013 29.5505
19.0113 21.145 29.7137
18.5671 20.4637 30.2594
18.5698 22.0824 32.5986
17.8344 20.3983 29.1613
18.3092 20.5862 30.2758
18.2203 20.2609 30.1539
18.7682 21.0288 30.5578
18.5835 21.2199 31.3004
19.2449 21.5239 30.7058
16.6861 19.9081 30.6575
18.8772 21.4018 31.7634
18.6547 21.0966 30.509
17.1271 20.6313 30.9575
18.0968 20.5077 31.3517
17.9919 21.9626 32.261
18.4595 21.6401 33.1303
18.0682 20.9467 30.5896
16.7613 20.3713 32.0308
17.7957 20.3853 31.0143
17.8857 20.7987 30.4188
17.4638 20.8616 32.9234
17.5185 20.3953 30.7496
16.6107 20.5955 32.8874
17.7732 20.5951 30.6648
16.0753 20.3649 32.1314
17.1108 20.1888 31.6645
17.2185 20.739 32.3169
17.5783 20.8833 31.79
16.7146 20.4274 32.2659
16.853 19.7773 31.2046
16.6152 20.2571 32.0129
17.6642 21.7116 34.025
17.2526 20.8624 33.9501
16.7125 19.9669 32.133
17.3241 20.2582 31.2464
16.541 20.4161 32.5043
16.9778 20.5172 32.7957
16.2684 20.8119 33.1252
16.6629 20.7187 33.5712
16.439 19.7453 31.1629
15.9299 20.1846 34.1072
16.6998 20.7468 34.1808
16.5285 20.1937 32.9848
16.7363 20.5706 32.5282
15.5668 19.8209 31.9097
15.4823 20.14 34.6037
16.6851 21.221 33.3368
16.1112 20.4067 33.257
15.9457 20.8524 34.9515
16.4774 21.1483 34.7365
15.7227 20.9297 34.9619
16.1222 20.6159 34.0726
16.1137 20.4183 34.5252
15.8795 20.6216 34.9214
15.7629 19.5351 32.8061
15.3639 19.8626 33.4561
16.0004 20.8763 33.8175
15.225 20.3742 34.8318
15.121 19.64 33.165
14.5533 20.5258 34.123
14.854 20.351 35.3542
16.0899 21.0186 35.5681
15.9494 21.0978 35.6537
15.793 20.6685 34.882
15.2892 20.4816 34.6297
15.4591 20.2623 35.6963
15.7043 20.2327 34.1426
14.5003 19.7489 34.4782
14.9861 20.7034 36.9032
15.9461 20.4325 34.4408
15.1973 19.6764 33.7053
14.5028 19.1524 33.646
14.5905 18.9955 33.7312
14.2836 19.6532 35.4158
15.4267 19.7209 34.1092
15.0472 20.6916 36.2082
14.8165 19.8367 35.7726
14.5911 20.0906 35.0743
14.8905 20.9465 37.8899
15.2745 20.4026 35.29
14.7393 21.0983 38.0755
14.2962 19.6547 35.1882
14.771 21.183 36.8754
14.5484 20.7023 38.0576
14.6765 20.0117 36.2488
14.5227 21.2741 39.2431
13.8904 19.5196 36.4884
14.8939 20.5713 36.1179
14.1772 19.8691 36.236
14.1871 20.0335 36.8471
13.9943 19.9933 36.6265
13.8758 19.8139 35.5662
13.9388 19.6258 35.735
13.601 19.47 36.7639
13.9367 19.312 34.9346
13.4613 19.6142 37.9786
13.7878 19.1715 34.6306
13.8488 20.0358 36.9974
13.8555 19.5335 36.3741
13.2879 18.5012 34.5521
13.5903 19.987 37.2557
13.0272 18.3542 34.2999
13.1767 19.0727 36.3289
13.3596 18.8695 35.4665
13.4411 19.4463 36.3524
14.2226 20.7432 39.4303
13.325 19.5736 38.0762
13.0828 19.0914 35.9492
13.0867 19.038 36.7793
13.8262 19.4826 38.2292
13.494 19.4902 36.3414
13.1908 20.378 38.5582
13.4924 19.2594 37.2237
13.6305 20.4005 39.662
13.2175 19.7777 38.9372
13.6717 20.2291 39.2818
13.9529 21.0367 39.7604
13.048 19.2299 37.2967
12.8826 19.1715 37.2312
12.2907 19.0985 36.408
11.8552 19.173 38.8964
13.4566 20.2302 39.512
12.838 19.2703 38.1536
12.8548 19.7272 39.0978
13.0153 19.748 38.9104
12.5615 18.8839 37.4632
12.7713 19.0169 37.3022
12.7214 20.3237 39.7438
12.4346 18.9872 37.5301
12.6131 18.8887 37.3978
12.2742 18.2714 38.1618
12.8478 20.0818 39.5091
12.1933 18.6462 37.7064
12.2896 18.7865 37.3955
12.345 18.7259 37.3893
12.5477 20.4257 40.7982
11.9024 18.9174 38.6253
12.4834 19.5266 40.129
11.8593 18.795 39.4821
12.5672 19.383 40.0295
12.3437 19.6029 40.0629
12.4219 19.9359 40.7876
12.184 19.2251 39.0638
11.6167 17.9241 37.3299
12.0174 19.1029 40.603
12.455 19.5418 40.3839
11.7145 18.3573 38.165
11.565 18.6335 38.5014
12.0583 18.9281 38.9979
11.5851 18.2349 37.4368
10.9937 17.4785 36.859
11.2933 17.4214 35.7824
11.0822 18.0384 38.0161
11.0481 17.2286 36.4681
10.9932 17.5479 37.6917
11.7721 18.3855 38.9244
11.6327 18.1466 38.1649
11.027 17.8195 37.709
11.5672 18.1256 38.0038
11.2196 18.0078 38.5377
11.3967 18.1626 37.8163
11.2798 18.3141 39.3569
11.2509 17.9581 38.8655
10.9904 17.3334 37.7553
11.5954 18.6993 39.3337
10.8999 17.6038 37.9443
11.0773 18.7637 40.5233
10.27 16.4894 36.0286
10.3097 17.1561 38.5708
10.8406 17.3779 37.8577
11.0505 17.7629 38.16
11.005 16.9218 37.5141
10.8642 17.3573 38.9648
10.6567 17.5975 37.6922
10.7346 17.6667 38.982
10.6863 17.8225 38.2745
10.6387 17.6063 38.6426
10.6871 17.368 38.7019
10.4162 17.5461 37.9412
10.6311 17.8257 39.2634
10.4325 17.8209 39.2424
10.5964 18.2153 41.5501
10.906 18.2795 39.6073
10.2388 17.0836 39.2979
10.7892 17.4439 37.8053
10.3775 18.0603 40.9238
10.5957 17.4503 39.138
10.4522 17.6859 40.2735
10.3203 17.7305 40.5808
10.6241 18.3857 41.1368
10.3645 18.7465 41.9401
10.7409 18.4474 42.6308
10.3925 18.5411 42.0725
10.7999 17.9847 42.1245
10.3658 17.6113 40.5413
10.6973 19.2057 43.9102
10.6416 17.038 39.1753
10.1406 17.5623 40.178
10.8522 18.6471 42.6506
9.96512 17.3106 39.6938
9.91957 17.1128 40.6203
10.4541 17.7391 41.1162
10.6316 17.9707 40.6369
10.0488 18.265 43.7192
10.405 18.0341 41.2123
10.449 18.3493 42.6463
9.48018 16.5942 37.8177
9.71607 17.8538 43.3959
10.6023 17.8899 40.9097
10.0133 17.0984 40.9586
9.72445 17.5201 42.2663
10.3612 18.0042 41.2445
10.177 17.2263 40.7662
9.66939 17.0337 41.353
10.4667 18.8734 43.4279
10.06 17.0203 40.0676
9.981 18.5993 43.4351
9.76104 17.4828 42.3709
10.2976 18.3035 42.7251
9.95252 18.0104 43.3441
9.9431 17.9782 42.6463
9.9209 17.9144 42.265
9.64756 17.1972 42.7557
9.9172 17.6918 41.819
9.42229 17.5715 43.1754
9.46766 16.8621 41.2328
9.69374 17.855 42.1357
9.34629 17.2146 41.375
9.59257 17.8613 43.2529
9.73831 17.9685 43.8243
9.52977 16.9755 41.9595
9.33811 18.0747 43.9183
9.85258 17.9105 43.211
9.47298 16.6081 41.1307
9.19833 16.5043 40.3699
9.48763 17.2497 41.9585
9.3076 16.9835 43.3254
9.42302 17.6437 43.9498
9.70999 17.9946 42.6555
8.93824 18.0214 45.1816
9.43149 17.1939 41.5088
8.73217 16.6262 42.499
9.39458 16.8836 42.4048
9.15723 16.8466 42.4346
9.35888 17.2672 42.8918
9.0164 16.645 42.5443
9.46647 17.9876 43.6482
9.00953 16.7358 43.1993
9.2787 17.668 42.6263
8.99944 16.3042 42.1625
9.15078 16.6362 41.8308
8.8327 16.9156 44.9734
9.69097 18.2438 43.7416
8.6631 16.7016 42.8668
8.21245 15.8979 41.5894
9.2163 17.172 43.2726
9.35019 17.3991 43.6246
9.10525 16.9872 43.9584
9.02066 17.3855 43.4819
8.54805 16.5769 43.9222
8.7727 16.6451 43.5013
8.70877 16.6434 43.1058
8.82009 17.4083 44.4894
9.1721 17.6683 43.908
9.07169 17.4442 44.7443
8.89157 16.9327 44.3843
8.936 16.6843 43.7688
9.0508 17.3422 43.4159
8.80331 16.6975 43.986
8.9809 18.1748 45.4569
8.37358 15.3193 41.3765
8.80412 17.2198 42.827
8.58856 16.6626 45.2958
8.79243 17.2401 45.3131
8.74163 17.2504 45.9263
9.24182 17.6843 46.1336
8.57504 16.9195 43.7264
8.53748 16.9836 45.6334
8.86341 16.3622 44.0188
8.81398 17.3569 45.5389
8.71972 16.394 42.1688
8.11978 16.9644 45.1853
8.38129 16.0549 41.0868
8.06459 16.6753 45.9063
8.45256 16.2898 41.3035
7.69891 15.2949 41.3143
8.4282 16.9187 45.5597
8.37366 16.1417 42.6156
7.91486 16.1834 45.3287
8.75232 16.0496 43.5351
8.50802 16.2889 41.8824
7.87804 14.9414 40.3981
7.83213 15.6788 41.3729
7.73888 16.0293 44.7502
8.25937 15.913 42.2783
7.97192 16.3956 43.8025
8.11102 17.117 47.2419
8.12334 15.67 43.6106
8.47844 16.7273 45.1235
7.94121 15.589 43.0462
7.89466 15.6099 42.4957
7.87616 15.9637 42.3586
7.67988 15.5417 45.2055
8.16128 16.3049 43.511
7.92997 16.4005 44.1101
7.67525 15.8592 45.2641
7.97824 15.4549 40.6983
7.5869 15.6849 44.3452
8.24012 16.842 45.8821
8.18343 17.098 45.5255
7.63311 15.6164 45.3335
8.04951 16.2168 43.8914
7.77497 15.8269 43.2299
8.01889 16.4426 45.8801
8.35653 16.2725 44.4432
7.76448 16.3209 44.0983
7.63778 15.3672 43.9316
7.80317 15.8685 45.6942
8.15987 15.4658 43.102
7.41979 14.8058 41.5617
7.55472 15.8775 43.1342
7.68676 15.8235 45.6421
7.866 16.7485 45.7148
7.58017 15.7023 44.1559
7.42748 15.4849 45.6931
7.58188 15.6256 44.3029
7.90041 15.9965 44.2679
7.88583 15.7608 44.1749
7.16751 14.6974 43.3382
7.25241 14.9848 42.1828
7.52997 14.8962 41.314
6.89407 14.1607 42.7817
7.67021 16.4911 44.6557
7.51997 15.6472 44.7728
7.12447 14.7815 41.6344
7.20637 14.9839 44.0029
7.27723 14.5997 41.6447
6.97123 14.3729 41.0563
6.81816 14.3191 42.5714
7.2927 14.7913 43.2447
7.27841 15.2731 43.4701
7.26272 15.2059 42.8713
7.31081 15.3385 45.256
7.27037 15.0336 42.9362
6.99606 14.672 42.7642
7.26446 14.9741 44.1921
7.201 14.9701 43.8089
7.19263 14.8288 43.7639
7.00173 14.3973 42.0935
6.90544 14.3908 42.1071
7.22868 14.3215 42.9995
6.98269 14.804 43.5342
7.24999 15.031 41.5585
6.70207 14.8273 44.5371
7.13338 15.5804 45.9326
7.0831 14.4302 44.5267
7.10301 14.6465 42.2807
6.81303 14.6289 43.6888
6.89901 15.4616 44.5966
6.82864 14.8675 42.8655
6.87426 14.5269 43.3128
7.0348 15.0705 45.7764
7.38015 15.5794 48.0309
7.38812 15.8595 46.1038
7.30376 15.1743 44.8971
6.9604 14.904 45.9603
6.91981 15.1409 43.3632
7.20348 16.0995 47.4727
7.00213 15.1797 44.9062
6.99267 15.4684 46.4837
7.09161 15.5619 48.092
7.02961 15.4695 46.0244
6.98218 15.3451 46.4031
6.8205 15.3536 46.91
7.20644 15.2308 45.869
6.98091 16.4838 49.3726
7.07516 15.6715 45.9213
6.56669 14.1349 43.3661
6.94438 16.2138 48.1976
6.90701 14.746 45.379
6.90722 15.1856 48.0672
7.20591 15.8936 46.988
6.79832 15.2414 47.714
7.0484 15.91 48.9351
7.28851 14.9486 44.5552
6.64527 14.6252 44.0458
6.82764 14.3862 43.6249
6.74242 15.2 49.0317
7.12424 15.1426 46.9813
6.99165 15.7309 46.5328
6.79049 16.2473 48.5239
7.0294 15.2775 47.2055
6.7564 15.0481 46.961
6.88632 15.0042 46.5542
6.82677 14.8736 46.6186
6.59602 14.5792 45.9177
6.85262 14.7085 45.9724
6.88709 15.3496 47.2362
7.19353 15.8429 46.4247
6.36643 14.1212 46.5216
6.76676 14.2889 43.8581
6.44718 14.34 43.7939
6.49434 14.326 44.9177
6.30255 14.6332 47.3316
6.74065 15.6017 48.1388
6.91276 14.7327 45.4938
6.4189 14.6255 46.7274
6.80098 14.721 46.4257
6.62584 14.9675 48.2909
6.80332 15.3783 47.8933
7.05697 15.1682 45.5191
6.31118 13.9997 44.6147
6.59525 14.093 45.8703
6.38824 14.847 46.1736
6.57488 14.8757 46.9029
6.58788 14.4234 46.4595
6.50593 14.864 48.4397
6.65843 14.9307 46.9833
6.5088 14.1415 45.0785
6.49867 14.4648 45.2484
6.46111 14.852 46.5942
6.5563 14.4516 45.7461
6.28135 14.4964 46.8829
6.54422 15.3079 48.0947
6.32997 14.5096 47.3265
6.74885 15.4902 46.6039
6.01953 13.6743 46.2367
6.48524 14.0904 44.7579
6.2913 14.0007 44.5824
6.19459 14.474 46.7913
6.25412 14.4331 46.8647
6.34327 14.5271 46.7514
6.23153 13.8215 45.3385
6.26714 14.3205 45.8084
6.29087 13.5213 43.5559
6.17843 15.1945 46.7797
6.28565 14.4806 46.7773
6.11758 13.4619 45.3821
6.19669 14.697 44.9244
5.74257 13.0927 46.3772
6.16306 14.5371 48.0062
6.47746 14.3278 46.0943
6.21584 14.4869 46.6274
6.25211 14.3056 44.828
5.93149 13.6471 45.8759
6.26845 14.1164 45.8811
5.8249 14.1223 47.1558
6.21161 14.4534 46.9869
6.01602 13.6661 44.7103
5.90125 13.5164 46.0976
6.06281 14.4336 44.819
6.01632 13.853 44.6331
5.87391 14.0085 49.3887
6.40386 14.6017 47.4161
6.15999 15.1353 50.7189
6.22048 13.9722 47.0684
6.20364 14.0996 44.7194
6.15665 14.6018 48.9314
5.89438 13.6511 46.7981
5.83889 13.635 46.0136
6.33955 14.4788 46.3665
6.19683 15 49.6069
5.98844 13.6151 46.4169
6.00399 13.7659 43.337
5.75704 13.6735 47.6051
6.08399 13.725 45.1366
5.95112 13.9324 46.6691
6.10669 14.5235 49.3112
6.22469 14.0249 46.3951
5.85888 13.9895 47.1244
5.94084 14.4549 47.1023
5.96944 13.8121 45.7047
5.69086 13.5502 47.3829
6.14235 14.0287 46.0698
5.71504 13.9678 46.7285
5.74371 13.1932 43.9187
5.7335 14.0234 46.8677
5.83928 14.6832 50.0583
5.87968 13.412 45.2835
5.86216 14.2963 46.29
5.72854 13.8598 49.849
6.21527 14.4675 46.9593
5.77733 13.7245 47.3549
5.6495 13.0061 43.1648
5.70116 14.2166 49.6068
5.99533 14.2209 48.9731
5.99815 14.5705 47.2824
5.61344 13.8942 48.0803
5.97412 13.4381 45.1538
5.52743 12.8033 44.5855
5.64826 13.8806 47.1701
5.67021 12.9826 43.9609
5.50698 13.286 46.5888
5.7186 13.1691 46.9119
5.61707 13.373 47.6778
5.8178 13.6165 45.7756
5.63194 15.0943 49.3526
5.76067 13.3091 47.4099
5.7036 13.9384 46.0019
5.84458 13.3524 46.385
5.65691 13.3319 47.8293
5.84513 14.3132 50.2787
5.83127 14.1712 48.0879
5.83907 13.0956 44.3919
5.52436 13.4677 47.0236
5.58744 13.0064 45.5879
5.66413 12.8751 44.7595
5.53717 12.9659 45.5554
5.39901 13.1195 47.9491
5.61116 13.1026 43.5861
5.61514 13.6929 46.5918
5.46099 12.6862 44.2594
5.25657 13.2501 48.7394
5.96593 13.6422 44.5157
5.30133 13.4123 46.9673
5.48355 13.2711 46.6997
5.49078 12.9516 45.0581
5.36135 13.9009 46.2308
5.49648 13.2265 47.7779
5.62684 13.5745 45.5499
5.24561 12.8168 47.0871
5.74319 13.7575 49.0796
5.4905 12.9422 46.17
5.65919 13.5941 45.6287
5.50661 13.1341 47.2018
5.24254 13.0386 46.5513
5.38725 13.5018 45.1647
5.24301 12.8211 45.0677
5.22924 12.5572 44.6016
5.35238 13.1787 45.8903
5.19741 12.9451 47.1513
5.5761 13.8943 46.9581
5.14553 13.1506 49.3333
5.61436 13.449 47.8121
5.63164 13.0537 45.3908
5.22139 12.8715 46.5789
5.45111 13.621 47.9054
5.50207 12.9152 46.978
5.66332 13.9248 47.3394
5.39829 13.2958 45.4723
5.02364 12.4162 46.1853
5.30573 13.3425 48.3741
5.60614 14.0362 49.8539
5.55889 12.9895 45.4535
5.32274 13.5455 48.5336
5.41482 13.4052 48.3409
5.28179 13.1796 48.7494
5.63059 14.0649 51.2928
5.48625 13.0868 46.4241
5.29081 12.9047 45.0458
5.16708 13.3203 49.2179
5.33491 13.4021 48.2386
5.54005 13.317 50.8978
5.71356 13.3683 44.7195
5.18514 13.6544 49.5758
5.41133 13.6482 49.8205
5.29514 13.6745 48.1683
5.47106 13.7884 48.6171
5.41559 13.5128 49.9679
5.43143 13.1726 50.8566
5.63486 13.5165 45.2593
5.1855 13.3728 50.4336
5.28795 14.0286 49.3242
5.31754 13.6132 48.3719
5.21032 13.3837 47.6121
5.14294 13.5945 50.0293
5.35091 12.9899 48.0167
5.38152 13.8492 49.2108
5.42946 13.3788 48.5317
5.3571 12.9282 48.6745
5.23178 13.619 49.2364
5.32822 14.8646 51.3525
5.3697 13.3319 49.3479
5.3444 12.6499 44.8654
5.04166 12.7184 46.2578
5.00137 12.9627 46.7505
5.11881 12.9811 49.2998
5.15072 12.9497 46.8008
5.10642 12.9608 48.8346
5.06236 13.6859 48.7075
5.35432 13.0578 46.8797
5.038 12.8193 48.4849
5.08222 12.6657 46.2467
5.13719 13.6494 47.7017
5.07959 12.9338 48.8453
5.1081 13.1518 48.4202
5.05856 12.994 48.5126
5.10644 13.006 48.8274
5.13759 13.592 47.6545
5.07987 12.832 48.5514
4.99135 12.6149 47.7486
5.25571 12.9972 44.1113
4.71655 12.2366 46.5855
4.93536 12.807 49.0008
5.16386 12.3776 46.2387
5.06873 13.2009 48.1828
4.94138 12.7478 46.5143
5.10447 12.6792 45.6204
4.75748 12.3634 47.8189
5.17558 13.5738 49.1513
5.182 13.2106 47.9444
4.99153 12.4312 47.1552
5.14059 13.3577 48.9514
5.19727 12.8954 48.399
4.97779 12.7903 46.9922
5.23554 12.4783 44.4093
4.90288 12.2723 48.5433
5.01037 13.1261 48.656
5.03553 12.6682 47.3063
4.85067 12.871 48.4364
5.11392 12.4881 47.0296
4.90273 12.605 45.4317
4.83268 12.1622 46.9402
4.9194 12.8977 47.2927
4.90405 12.2343 44.7943
4.8857 11.8887 46.327
4.92343 12.8289 46.7801
4.7486 12.4478 47.3845
4.82032 12.2289 47.4762
4.97576 12.9764 47.8559
4.87658 12.9487 46.7403
4.83431 12.7213 49.7225
4.94622 12.906 47.3759
4.88012 12.2565 46.3923
4.82472 12.7985 47.8288
4.98358 12.1992 46.9072
4.84699 12.901 46.4697
4.73459 12.3333 46.7183
4.8471 12.6538 47.4706
4.84219 11.8837 46.4437
4.7821 12.3922 45.351
4.77783 11.8643 47.443
5.05085 12.4163 45.369
4.77982 12.4099 45.7424
4.78064 12.2717 46.8406
4.80216 12.5872 45.4157
4.70088 11.4336 45.5914
4.83038 12.2874 45.6102
4.71663 12.3036 46.7854
4.85789 13.0894 51.3187
5.05063 13.2929 48.7337
4.90774 12.6096 48.3353
4.87141 12.7993 48.4286
4.84899 12.7776 49.4544
5.02013 11.8196 47.4305
4.97495 12.9654 47.1301
4.76144 12.9307 47.0056
4.80904 11.8179 48.4147
4.98593 12.7196 48.2632
4.84126 12.3141 47.0697
4.7425 12.0235 46.1708
4.62892 12.6302 45.8594
4.64001 13.2003 51.2563
5.00586 13.0524 50.7356
5.02134 13.4793 50.6897
4.90153 12.8338 49.8571
4.87966 12.5867 47.5877
4.79452 12.4355 47.4646
4.76212 12.2416 46.5374
4.89002 12.572 46.2481
4.58393 12.2129 48.6438
4.98723 12.6903 48.9351
4.87823 12.3646 45.5485
4.54986 12.1362 47.6115
4.76644 12.3569 45.3313
4.75789 12.6763 48.4068
4.73755 11.5155 47.4621
4.81299 12.1828 45.3743
4.43105 12.0227 47.7616
4.79164 12.0471 44.7428
4.48872 12.2014 46.3844
4.72689 12.0385 45.3443
4.50676 11.6177 46.3692
4.75612 12.9042 50.3242
4.93335 12.3378 45.9889
4.568 11.9083 47.0285
4.71818 12.2522 47.5256
4.69708 11.9458 46.3144
4.71439 12.1823 47.6318
4.74146 12.4524 46.9498
4.5927 12.2517 47.6923
4.70929 11.3699 45.636
4.53279 11.7462 45.5352
4.78501 12.4711 48.3186
4.7028 12.3725 46.3175
4.72632 11.8486 47.101
4.73037 12.4451 45.261
4.50899 11.5495 44.7077
4.54435 11.9522 46.2591
4.60897 12.3109 48.5605
4.69461 12.095 49.3011
4.84383 12.5526 46.4997
4.67546 11.8488 47.5718
4.72745 12.9778 50.9393
4.73522 12.1925 44.047
4.49568 11.8564 45.7339
4.52836 11.8935 46.4171
4.54758 11.209 45.2578
4.6497 11.6858 45.0416
4.51688 12.1902 48.4588
4.66689 12.1112 48.6329
4.77573 12.0402 44.4184
4.41388 11.9358 44.8041
4.45883 11.6849 45.8872
4.51121 11.0059 45.5459
4.62324 12.1411 46.9845
4.63549 11.9265 46.8295
4.78256 12.3061 46.9719
4.4368 12.1811 47.497
4.71973 11.5661 47.0029
4.48783 11.9196 45.2662
4.50183 12.025 47.3218
4.51185 12.079 48.8528
4.73414 12.9917 47.0598
4.54778 11.6893 48.2564
4.65102 12.5293 47.995
4.46407 11.8594 45.0936
4.40739 11.663 49.795
4.67061 12.6463 46.9971
4.54518 11.9066 47.1709
4.63418 11.9512 47.9843
4.54825 11.9446 45.231
4.40472 12.1783 46.2802
4.57524 12.3479 50.4001
4.66002 11.5751 44.1988
4.29983 11.8686 48.2581
4.61547 11.9912 44.8141
4.42192 12.1794 47.2237
4.52229 11.6932 46.6914
4.5821 12.4878 49.0999
4.54091 11.665 44.5806
4.44228 11.7622 45.0497
4.32848 12.0663 49.5838
4.81555 12.2468 47.0893
4.62974 11.6148 48.2567
4.71338 12.0526 44.8021
4.4129 11.8053 47.9918
4.42967 11.4758 45.5132
4.37385 11.9105 47.6395
4.60586 12.0847 48.1126
4.5729 12.2228 46.0336
4.58339 11.014 44.9608
4.36313 12.0643 46.7424
4.54947 12.1401 48.2632
4.43454 12.4889 47.7246
4.54487 11.5028 45.9954
4.51316 12.0073 47.4273
4.50727 11.5822 47.199
4.61777 12.4318 46.7244
4.48264 11.6347 47.3371
4.46594 12.0057 44.9155
4.40239 11.548 46.8697
4.56558 10.9489 45.6318
4.4564 11.9628 47.0039
4.56366 11.4929 45.26
4.35134 12.09 46.0558
4.52556 12.0705 47.2406
4.41676 12.0768 48.0602
4.52407 12.2955 47.596
4.4699 11.4825 46.8015
4.29139 11.9622 47.7173
4.49618 11.4106 45.62
4.39454 11.8392 45.5437
4.55861 11.8411 48.008
4.32888 12.0827 46.3696
4.36761 12.357 46.9198
4.3368 11.2265 47.8145
4.36536 12.0591 46.1927
4.46045 12.2868 49.9692
4.64845 12.3269 48.1591
4.40715 11.6181 47.7605
4.51712 11.692 44.7069
4.25367 11.658 46.5908
4.39379 11.998 50.8493
4.63263 12.3291 46.9624
4.38877 12.1256 47.1146
4.64577 12.2769 48.7574
4.62281 11.4085 48.0342
4.69483 12.5906 45.8232
4.47441 11.3675 46.9499
4.53645 11.628 45.7401
4.35323 11.7611 45.1851
4.28276 11.0758 46.6351
4.47093 11.6445 47.6859
4.37674 12.0036 45.145
4.45831 12.0733 47.7076
4.31885 11.4665 48.3577
4.47421 11.6688 46.5436
4.37943 11.9058 47.8775
4.53526 12.4011 46.6672
4.42186 11.5111 49.3018
4.64129 12.3325 47.2503
4.48952 12.4252 47.0867
4.57875 12.0401 48.1008
4.3995 11.8922 46.9813
4.43252 12.2544 48.463
4.56167 11.2567 47.905
4.57639 12.6296 49.155
4.5828 12.129 47.4635
4.65289 11.6971 47.3706
4.50462 12.2573 47.1268
4.52098 11.6628 47.1877
4.35444 11.5664 47.2802
4.48379 12.0694 46.6048
4.40938 11.1909 46.8085
4.44581 11.9498 46.3401
4.42886 11.5095 45.6927
4.36928 11.373 47.8238
4.48522 11.6725 44.6654
4.39837 11.714 45.8763
4.34702 11.5567 48.4406
4.59985 12.1285 46.0141
4.27748 11.5615 49.0045
4.57922 12.1761 47.5019
4.62341 11.4628 45.4128
4.29139 11.7294 47.7192
4.617 12.165 46.9064
4.26213 11.5259 47.1402
4.50419 11.6779 44.4265
4.24738 10.9854 46.0768
4.49153 11.8841 46.4412
4.46887 11.2351 44.122
4.35 11.7938 49.4109
4.65683 11.7732 45.6244
4.31268 11.497 46.3841
4.30544 11.9603 47.1398
4.38938 11.5452 44.3247
4.27244 11.5563 45.9056
4.53071 11.9112 49.283
4.60096 12.4136 48.3023
4.58844 12.1492 47.1648
4.51126 12.3797 50.9552
4.61851 12.121 48.8744
4.53782 12.032 45.7175
4.22311 11.0579 46.6832
4.44792 11.9577 47.7307
4.54855 12.2434 48.2587
4.5391 11.1371 48.8015
4.54534 11.9716 46.6411
4.44909 11.6789 45.4286
4.28026 11.1261 45.1203
4.14517 12.1636 48.4904
4.6333 11.9428 48.5308
4.36917 12.5279 45.2826
4.37038 11.4171 49.2299
4.59645 12.222 48.805
4.4808 11.8327 47.918
4.41266 12.1866 47.6001
4.62376 11.3557 44.0936
4.21276 0 0