# pn-170911/RbIIR-57-RbIIF-1280-1959.psd
# Power spectrum* (dif=0,1,2) (really just |FT|^2)
# NOTE: only the first half! (symmetric)
# weeks: 1280-1959
# 2386 clock-days, 160 excluded
# PSD: 1441
892.512 0.181716 0.0318617
41601.3 0.699313 0.0526066
248525 6.14994 0.0545577
24726.3 0.827138 0.0501127
95237.5 8.17476 0.0565337
8264.5 0.709633 0.053833
8613.53 1.50654 0.0535607
4159.38 0.704465 0.0510405
5340.89 1.48997 0.0497076
2535.95 0.657146 0.053279
2348.46 0.923644 0.0531931
1671.34 0.726882 0.0504952
1821.89 0.951881 0.0529713
1338.1 0.745974 0.0526471
1156.86 0.827827 0.0521978
1034.9 0.796026 0.0540842
984.673 0.97033 0.052699
800.312 0.863058 0.0511571
805.35 0.927164 0.054402
699.693 0.883213 0.0519924
682.893 0.992743 0.0523768
605.744 0.993328 0.0534155
567.12 1.03452 0.0580872
525.182 1.03994 0.0548515
504.769 1.12591 0.0562595
467.952 1.14208 0.0543493
456.562 1.18216 0.055502
446.764 1.21006 0.0547474
437.639 1.36602 0.0593615
384.671 1.31223 0.0568908
398.889 1.4809 0.0605742
391.453 1.45715 0.060945
395.209 1.56373 0.0604938
347.443 1.53517 0.0583882
341.291 1.60142 0.0618957
362.998 1.82255 0.0631014
347.054 1.90164 0.0650612
327.493 1.86481 0.0640105
326.221 1.95786 0.0649963
323.5 2.00888 0.0663403
333.644 2.20934 0.0708955
295.788 2.10391 0.0683843
298.592 2.19804 0.0696411
304.677 2.37397 0.0739582
293.367 2.38323 0.0710588
290.841 2.52533 0.0751989
274.495 2.47058 0.079754
286.244 2.69694 0.0812834
288.885 2.85996 0.0856046
267.31 2.72183 0.0846103
270.009 2.90984 0.087727
263.402 2.91133 0.085707
263.398 3.00128 0.0960748
266.954 3.18716 0.0952447
254.909 3.2968 0.0966269
263.085 3.48457 0.103194
258.896 3.4749 0.106276
257.53 3.61288 0.105728
252.724 3.76415 0.113951
245.294 3.72739 0.112398
254.46 3.88796 0.119333
240.194 3.9081 0.125611
249.565 4.29107 0.131661
228.589 3.99641 0.13042
235.403 4.21229 0.135859
239.802 4.57709 0.145844
224.665 4.34909 0.144432
231.973 4.67599 0.15322
224.464 4.59325 0.158247
234.339 4.89036 0.166823
224.005 4.84887 0.163982
218.039 5.00507 0.169502
212.854 4.93962 0.17474
208.318 4.87454 0.173601
228.704 5.63171 0.196328
210.481 5.29887 0.193162
209.271 5.42349 0.202251
205.368 5.39241 0.20473
215.567 5.82245 0.220341
202.78 5.66974 0.223497
204.99 5.84438 0.23081
202.688 5.95243 0.236317
196.648 6.03829 0.250106
199.919 6.21696 0.259363
197.186 6.32147 0.263363
192.576 6.38676 0.268931
189.006 6.3238 0.279095
197.065 6.71586 0.288414
182.988 6.37905 0.290846
188.907 6.72555 0.308541
184.849 6.7962 0.310822
184.259 6.96822 0.314609
179.868 6.99692 0.336261
171.164 6.72438 0.325519
182.109 7.22605 0.351444
172.344 7.07071 0.348198
227.203 9.63268 0.468216
172.374 7.26075 0.364675
167.502 7.36447 0.384592
163.76 7.21544 0.390163
168.999 7.65641 0.410508
178.353 8.33902 0.44984
173.177 8.14029 0.460265
172.697 8.28579 0.466415
156.826 7.67408 0.447184
174.593 8.72115 0.501035
157.235 7.938 0.471274
160.383 8.29007 0.496876
163.305 8.64563 0.522944
166.405 9.07878 0.561636
159.799 8.70608 0.540179
152.845 8.558 0.548006
153.1 8.72741 0.556548
159.062 9.49329 0.617754
170.175 10.1676 0.683247
160.793 9.74706 0.659932
151.721 9.29861 0.631269
143.305 8.96503 0.627427
147.438 9.43133 0.67702
143.874 9.34111 0.65816
148 9.72743 0.709667
146.259 9.81605 0.721485
142.603 9.74366 0.732353
147.841 10.3013 0.780583
137.913 9.6204 0.739745
137.512 9.90139 0.780592
149.711 10.8643 0.853975
137.375 10.0967 0.806461
138.609 10.4587 0.851313
137.03 10.4524 0.856883
136.363 10.5273 0.889871
143.188 11.3424 0.973646
146.761 11.6639 0.99933
137.669 11.0448 0.965326
135.415 10.9778 0.969811
134.381 11.2896 1.02871
133.701 11.2555 1.03109
130.198 11.225 1.02829
130.317 11.2443 1.05246
125.735 11.1394 1.06755
132.223 11.932 1.14232
127.869 11.6368 1.13089
123.747 11.3985 1.13178
128.779 12.2926 1.22683
136.041 13.0633 1.30775
131.715 12.6036 1.27859
121.82 11.7738 1.22946
121.983 12.0964 1.28088
127.018 12.9315 1.38716
120.541 12.2395 1.31745
123.69 12.7927 1.39642
124.359 12.755 1.41056
118.327 12.529 1.41428
125.801 13.444 1.52306
118.266 12.8595 1.48256
122.272 13.3036 1.54142
123.998 13.8034 1.62768
114.892 13.0177 1.54593
118.805 13.6594 1.63836
111.39 12.8873 1.58707
110.191 12.9527 1.59373
119.007 14.3219 1.79381
116.762 13.8567 1.73358
113.349 13.7929 1.75813
117.409 14.4685 1.8785
112.423 13.924 1.81012
112.6 14.2283 1.88927
112.533 14.3951 1.92087
113.656 14.6971 1.99657
108.546 14.1572 1.92998
108.268 14.4637 2.0022
112.369 15.03 2.096
109.659 15.0256 2.13314
107.102 14.6276 2.09345
114.035 15.7872 2.26499
114.501 15.9695 2.30761
105.326 15.0633 2.21571
105.801 15.1728 2.26351
104.138 15.2929 2.32378
103.286 15.0303 2.2847
106.123 15.8056 2.43585
108.093 16.0642 2.49166
101.868 15.4091 2.42874
107.234 16.4776 2.63593
105.678 16.2194 2.57064
103.577 16.2277 2.656
103.332 16.3473 2.65282
102.397 15.9415 2.63025
100.168 16.3491 2.76878
99.8592 16.0945 2.72078
99.6722 16.4998 2.8084
103.092 17.1112 2.96121
119.528 20.1572 3.49038
99.9587 16.7113 2.90222
93.4724 16.1014 2.87406
96.8597 17.06 3.10124
98.4628 17.2699 3.12613
93.1436 16.4263 3.00305
96.4481 17.2267 3.19005
93.2093 16.8519 3.17306
92.7918 16.9558 3.18966
95.4426 17.6549 3.37732
92.846 17.4582 3.39191
90.3073 17.038 3.32263
100.864 19.2587 3.77539
94.6771 18.1886 3.61156
93.0623 18.0405 3.605
92.4286 17.9619 3.60667
91.6537 18.2899 3.73453
89.667 17.9762 3.72899
92.4326 18.5702 3.84192
90.2347 18.3771 3.88331
88.3855 18.1026 3.82645
88.3654 18.4117 3.912
85.3203 18.0374 3.9128
89.4286 19.1648 4.20827
93.6949 19.8392 4.32015
91.3823 19.5007 4.2789
86.8188 19.0772 4.28458
87.7454 19.2941 4.36283
88.0745 19.4765 4.42563
82.923 18.6623 4.28592
85.8709 19.4655 4.52504
84.5244 19.1035 4.44174
83.366 19.0499 4.47082
86.527 19.9856 4.70966
80.8591 18.6502 4.4554
87.6325 20.812 5.01367
88.9749 21.0252 5.05856
81.1645 19.4384 4.75192
81.8583 19.8943 4.91359
80.6877 19.7727 4.93039
79.2368 19.6573 4.95561
82.6231 20.5732 5.24595
81.9274 20.616 5.28437
79.1168 20.0313 5.17605
82.9469 20.7936 5.34393
78.4119 20.1037 5.24676
77.7451 20.1229 5.34308
77.0327 20.2118 5.451
80.2358 21.1159 5.66905
78.7029 21.0064 5.7075
77.0627 20.4035 5.54085
77.7694 20.9651 5.73822
76.1981 20.6177 5.7748
79.2123 21.6834 6.02415
76.0382 21.0622 5.9877
77.3487 21.4392 6.09265
79.1454 22.1723 6.32204
76.5504 21.5267 6.18653
73.7672 21.1313 6.11346
72.4187 20.9701 6.16781
72.4345 21.1613 6.29682
72.7938 21.1225 6.32778
73.248 21.315 6.28304
71.3864 21.284 6.41352
75.5854 22.3916 6.81738
74.6929 22.6956 6.97083
71.5324 21.6623 6.68649
68.513 21.3811 6.72879
68.8674 21.368 6.69346
71.0748 21.8713 6.90471
70.3768 22.0299 7.08364
73.3871 23.2348 7.49445
73.3504 23.2078 7.42363
70.2685 22.2811 7.16281
67.4956 21.8881 7.18579
69.6231 22.8068 7.59006
68.9807 22.5702 7.54192
69.9669 23.1192 7.75877
68.7243 22.8761 7.76095
68.5891 22.7162 7.67241
66.8053 22.4429 7.72272
67.635 22.9505 7.9564
65.9908 22.3856 7.77072
68.022 23.1828 8.07527
69.8917 24.2971 8.58754
68.8937 23.6731 8.31034
66.8826 23.4613 8.3437
64.1566 22.7878 8.25456
66.9648 23.7111 8.56148
64.5456 23.0187 8.45843
66.8833 23.7071 8.63212
63.149 23.0529 8.57125
63.6823 23.0929 8.5856
62.7433 23.0645 8.6384
63.6606 23.6704 8.996
64.1051 23.7369 9.04397
76.9689 28.5316 10.6423
63.357 24.0437 9.25697
61.4922 23.4038 9.1731
61.7558 23.41 9.13837
60.6881 23.292 9.17901
61.173 23.8355 9.39266
61.8363 23.9982 9.49117
58.9929 23.1027 9.23462
60.7048 24.1691 9.72691
60.1724 24.3298 10.0019
61.0224 24.3396 9.90723
60.2729 24.604 10.2279
59.573 24.1391 9.96109
57.3723 23.4776 9.8092
57.1864 23.5141 9.81987
59.0021 24.3136 10.24
57.4965 23.9995 10.1343
57.6891 24.4972 10.5456
57.5593 24.2229 10.4526
58.1026 24.4424 10.5429
57.7706 24.7456 10.7812
56.9465 24.3683 10.7234
55.1996 23.8183 10.5586
57.4443 25.0362 11.144
59.1908 25.6493 11.2913
56.4412 25.1082 11.3581
55.2368 24.3973 11.0175
56.2008 25.2061 11.478
54.1807 24.2171 11.0014
55.3351 25.2366 11.6035
54.4389 24.8011 11.5928
56.8128 26.096 12.1423
53.491 24.4041 11.5174
55.9354 25.8617 12.1442
56.3547 26.1428 12.2728
55.5455 25.7472 12.1692
54.6468 26.1158 12.6526
51.1412 23.865 11.3743
52.9488 25.522 12.4029
50.6995 24.5917 12.1622
53.9713 26.0873 12.9012
53.9668 26.1516 12.9597
53.7771 26.3374 13.0377
51.9925 25.4874 12.8102
52.5672 25.7775 12.9451
52.293 25.6412 12.7647
51.1072 25.8165 13.2174
52.1631 26.0636 13.2892
50.7922 25.3943 12.8997
49.4839 25.6003 13.4022
51.3088 26.1053 13.6201
50.1124 25.8265 13.6646
50.7062 25.9339 13.5285
50.9415 26.3097 13.7603
47.4401 25.0618 13.2993
50.3496 26.6418 14.1223
48.5035 25.5447 13.6363
48.8548 26.334 14.3882
47.0574 25.2467 13.8682
47.9396 25.3287 13.7402
48.7312 26.4348 14.5227
47.1691 25.7325 14.1439
47.1887 25.9511 14.5257
47.535 25.9768 14.5117
47.1712 26.1956 14.7132
49.519 27.4057 15.425
47.9938 26.658 15.1478
44.3435 24.5715 14.0525
46.7425 26.4797 15.2255
46.9975 26.3794 15.1961
48.1544 27.5148 15.8341
45.0806 25.7555 14.9587
45.5463 26.2706 15.4493
46.9984 27.1191 15.8926
45.1853 26.2624 15.5806
45.1817 26.4065 15.5426
44.516 26.6595 16.2913
45.7406 26.687 16.0441
43.9105 25.9606 15.7257
43.4799 25.9337 15.8042
44.9604 26.7931 16.1197
42.0028 25.3936 15.5992
42.807 25.964 16.074
42.0128 25.6888 16.0128
43.9624 26.8317 16.6939
43.7007 26.8507 16.8958
42.4845 26.2743 16.5489
41.3421 25.389 15.9728
40.518 25.5236 16.2861
42.1189 26.2211 16.7018
41.0569 25.9972 16.685
41.6897 26.9191 17.5166
41.2162 26.2037 17.1315
41.9895 26.6132 17.2012
41.228 26.528 17.3607
41.4791 27.3216 18.3508
47.7813 30.8095 19.9186
42.4372 28.0537 18.8847
41.4103 26.8073 17.8095
40.4488 26.4931 17.7967
39.9151 26.2805 17.5347
39.5934 26.4666 17.9442
38.8202 26.0022 17.8398
40.1004 26.8577 18.3278
40.4471 27.3602 18.7191
38.4976 26.0069 17.9926
38.8814 26.4959 18.408
37.9163 26.1313 18.4254
39.5313 27.117 19.0227
38.4188 26.5928 18.768
39.0267 26.7448 18.707
37.2342 26.1943 18.884
39.9014 27.9393 19.7878
37.7597 26.6241 19.1097
38.3978 27.1584 19.6088
36.5437 25.8892 18.6283
37.5641 27.0926 19.7755
36.338 26.4596 19.6285
37.0805 26.7289 19.6872
37.2579 26.9393 19.9196
37.7608 27.3517 20.0824
35.7448 26.3479 19.7536
37.1208 27.4325 20.6485
38.5473 28.4439 21.2878
35.6876 26.7188 20.4789
36.9047 27.6087 21.0557
36.5497 27.1253 20.6199
35.8893 26.8627 20.4445
35.0255 26.177 19.9472
36.1426 27.518 21.2051
36.1222 27.8276 21.6629
35.5271 27.333 21.546
36.0343 27.8733 21.7625
35.0544 27.3076 21.8622
36.8069 28.1463 21.8796
35.3585 27.3604 21.7487
35.5113 27.7097 22.0129
35.4238 27.4461 21.7862
35.4763 27.6168 21.8467
34.4905 27.6582 22.3425
34.6069 27.6031 22.5254
35.389 28.2254 22.6973
33.4616 27.2968 22.5872
34.5117 27.7868 22.8142
34.7308 28.3975 23.5548
31.5719 25.3166 21.093
33.8883 27.5082 22.8127
33.1661 27.203 22.9267
33.7867 27.5028 22.7304
32.3875 26.8296 22.5609
33.5787 27.6884 23.1611
32.7566 27.9022 24.0214
31.3777 26.1318 22.5232
32.781 27.7991 24.0013
32.6876 27.4 23.2877
31.2871 26.6757 23.149
31.8917 27.2363 23.5327
31.9065 27.225 23.7618
31.3242 26.9541 23.3727
32.2489 28.2331 24.8117
30.8046 26.6174 23.7525
31.8081 27.7618 24.507
32.4308 28.0468 24.5733
30.4661 26.7582 23.9885
31.8521 28.13 25.5385
32.3631 28.1411 24.9439
30.5566 27.2536 24.9858
31.0658 27.2139 24.3696
32.5003 29.469 27.1577
32.0619 28.6446 26.1667
31.8581 28.9299 26.8791
30.1964 27.3577 25.2783
31.1513 28.1052 25.9622
30.896 28.2832 26.1313
29.3855 26.9419 25.1402
30.7261 28.3679 26.7797
30.9895 28.487 26.4904
29.8741 28.0431 26.6456
29.1701 27.0158 25.4691
28.8646 27.0382 25.9179
29.4686 27.5036 26.2242
29.7193 27.8689 26.5821
28.9523 27.1542 26.2488
29.4008 27.9631 27.2162
29.6882 28.0004 26.7589
28.7261 27.7968 27.4217
29.7554 28.1475 27.113
28.1114 27.2767 27.1366
29.927 28.6279 27.6277
28.2003 27.5609 27.4584
28.044 27.48 27.6908
27.8882 26.9731 27.6569
34.4191 33.4537 32.0781
28.5443 28.2574 28.5323
28.1221 27.8002 27.8227
27.7397 27.7469 28.225
27.394 27.4184 27.8731
27.3732 27.0701 27.248
26.6994 27.2823 28.2248
27.4348 27.9324 28.8161
26.8549 27.0297 27.988
27.561 27.648 28.3947
27.1149 27.752 28.9661
27.7981 28.3514 29.0296
26.3298 27.16 28.4521
27.0533 28.1925 29.71
26.8272 27.7888 29.3739
27.3346 28.395 29.8922
26.0025 26.9224 28.5782
26.2198 27.2558 28.906
25.2683 26.5446 28.5017
25.535 26.7183 28.5028
25.1938 26.7606 28.7527
24.8639 26.3961 28.6972
25.344 27.0359 29.2708
25.2721 27.3236 29.8148
24.6199 26.3384 28.3985
25.1196 27.3144 30.1786
24.5909 26.4722 29.052
24.2728 26.3233 29.3745
25.0671 27.19 30.0821
23.8187 25.7623 28.6164
23.7754 26.3349 29.7322
24.7557 27.1457 30.2359
24.0033 26.3405 29.5752
24.9827 27.1481 30.0949
24.1002 27.0353 30.277
23.357 26.1494 29.954
23.6472 26.3381 30.1369
23.4797 26.3719 30.2505
23.9806 26.9936 30.6589
23.7514 27.0156 31.1434
24.2289 27.7694 32.1218
24.1173 27.3206 31.5336
23.4305 26.9491 31.7348
24.7164 28.0308 32.1308
22.8383 26.4912 31.2022
23.4011 27.0397 32.0188
23.2077 26.8133 31.4993
22.5033 26.1154 31.2476
23.2031 26.7138 31.462
22.2639 25.9434 30.9319
23.0628 26.6954 31.3396
22.6488 26.9952 32.3268
22.1067 26.247 31.8265
21.8859 25.7152 31.35
22.8044 27.1342 32.9192
22.3263 26.7116 32.593
22.9297 27.5391 33.4329
21.9573 26.4766 32.4695
22.584 26.9401 33.0991
22.4906 26.6478 32.468
22.4624 26.9675 33.1144
22.5975 27.64 34.1467
21.9954 26.5552 32.6589
21.1525 25.7203 31.9798
21.003 26.0553 33.1129
21.9214 27.0478 34.0712
21.6437 26.4851 32.8566
20.8972 25.9933 33.1605
21.452 26.7364 33.8689
21.5436 26.937 34.4099
21.5167 26.4928 33.3238
20.9101 26.4405 33.857
20.3248 25.8562 33.7221
21.485 27.0806 34.7832
20.6002 26.1403 33.7747
19.9643 25.2914 33.1975
20.5859 26.3709 34.6341
21.2035 26.9396 35.2343
20.9522 26.701 34.6274
21.5614 27.4906 35.3756
19.848 25.7236 33.9402
20.4857 26.7931 35.7615
20.9295 26.9174 35.5339
20.6919 26.7909 35.4032
19.6876 25.5211 33.9742
19.1907 25.0916 33.8472
20.6436 26.7405 35.6515
19.8188 25.9632 35.0349
20.3128 26.2544 34.8273
19.7115 26.4668 36.0558
20.6198 27.7085 38.0666
20.5082 26.893 36.3358
19.8592 25.8666 35.0065
18.6942 25.4409 35.3963
20.4794 27.0409 37.2649
19.8354 26.8009 38.5685
23.9164 30.7634 40.2286
20.1879 27.2746 37.2109
19.312 26.301 36.9945
19.8948 26.9585 36.5997
18.8355 26.1182 36.6317
18.5221 25.6423 36.55
19.0487 26.4964 37.8339
19.1802 25.9019 36.3209
18.9548 26.2093 37.4425
19.3688 26.8213 37.5423
18.8667 26.2643 37.4398
18.656 26.2354 37.7711
19.4089 27.1226 38.3877
18.8642 26.3517 37.5639
18.4005 26.3499 38.2688
18.3999 26.1807 38.2081
17.9832 25.2884 36.7614
17.9198 25.5634 37.3957
18.3975 26.5996 39.2975
19.2503 27.2434 39.5852
18.9492 26.8662 38.7699
18.1503 26.4092 38.3198
18.348 27.1311 40.495
18.2711 26.7287 40.3233
19.225 27.7319 40.6929
18.3481 26.5017 39.139
18.4674 27.0165 40.4312
17.5172 25.2164 37.6615
17.384 25.6956 39.2716
18.6159 27.0458 39.531
17.5279 26.2125 39.6831
18.1597 26.507 39.2186
16.7161 24.7731 37.677
16.8351 25.5896 39.327
17.0297 25.6444 39.7168
17.1722 25.5546 39.1934
17.2146 25.7283 39.7783
17.554 25.7655 39.0297
16.5479 24.728 37.6195
16.515 25.4131 39.5856
17.3779 26.4269 40.6541
17.0559 25.933 39.9857
16.4456 25.3201 39.9275
16.6883 24.7856 38.2768
16.5334 25.7109 40.126
15.9455 24.4895 39.0031
16.231 24.2528 37.4105
15.7543 24.8306 40.1377
16.5027 25.4183 39.6379
15.8729 25.1856 40.3189
16.0431 24.7983 39.7058
16.369 25.3059 39.8398
15.835 25.121 40.6473
16.3317 25.8962 41.4088
16.5129 26.1117 41.9733
16.0444 24.9927 40.114
15.4642 24.3609 39.632
15.7865 25.1071 40.7524
15.7381 24.7545 39.1955
14.7461 24.1374 39.9528
15.3864 24.7785 40.1895
15.4081 24.7949 40.2289
15.1794 24.6116 41.0733
15.0933 24.4553 40.3998
15.0822 24.5384 40.8591
15.104 24.0939 39.876
15.1428 24.9542 41.3681
14.9048 23.9901 39.9647
15.5742 25.3704 41.2259
14.9206 24.7487 41.5729
14.7435 24.6684 42.1951
15.0563 24.6047 41.4285
14.8604 24.8512 42.2226
14.6636 23.8586 40.9989
14.7863 24.1225 40.5739
14.3642 23.3348 39.0451
14.2611 23.9342 40.7197
13.7661 22.7008 38.7351
13.7935 23.2457 40.6038
14.5851 24.2229 41.1236
13.7398 23.013 39.4807
13.6343 23.0025 40.4323
14.831 25.2173 42.8591
13.7716 23.0954 40.7569
14.0896 23.566 40.7803
14.1281 23.8433 41.1954
14.1833 24.4029 42.2469
14.2126 24.4638 42.3177
14.0107 24.2755 42.734
13.6788 23.4607 41.1811
13.4355 23.2508 41.6486
14.0617 24.5804 42.9933
13.4549 23.6067 42.5775
13.9308 24.3211 43.3087
13.4124 23.0316 40.937
13.5287 24.6787 47.3282
16.8975 28.439 46.9547
13.3519 23.2955 41.7292
12.9852 23.0868 41.8649
13.6347 23.9931 43.3217
12.9905 22.8077 42.0237
13.6167 23.8875 43.0887
13.3668 23.3564 42.0053
13.0078 22.8833 41.1339
12.9542 23.1924 42.8145
12.9275 22.8643 41.6856
12.7409 22.6316 41.3281
12.7497 22.68 41.4974
13.0056 23.5522 42.8937
12.417 22.4105 41.9323
12.9025 23.5425 43.7167
12.4506 22.2838 41.8155
12.8999 23.1346 42.8867
12.9612 23.6396 43.949
12.9896 23.5445 43.3913
12.609 23.6278 44.3557
12.3504 22.4973 42.9444
12.91 24.0451 45.2842
12.287 21.9766 41.6685
12.3768 22.7423 42.9291
12.5349 23.1036 42.807
12.0011 22.4044 42.9091
12.5322 23.5326 44.7223
12.332 22.8901 43.94
12.5546 23.2693 43.9029
12.1245 22.6381 43.4255
12.4464 23.4749 44.4167
11.8535 22.6767 44.0276
11.9458 22.2374 42.8822
11.859 22.5535 43.6628
11.7417 22.3217 43.6471
11.8973 22.6353 44.2574
12.2841 23.2111 44.9835
11.8376 22.5163 43.7882
11.7414 22.7812 45.5061
12.0747 22.2754 43.9095
12.0394 22.2258 42.7814
11.6919 22.6844 44.7313
12.0438 22.8927 44.679
12.0452 23.0769 44.829
11.4201 22.3428 45.0205
11.5484 22.0941 42.6704
10.7182 21.1063 42.8253
11.561 23.0267 47.4542
12.5722 23.8099 45.3419
11.0474 22.0059 44.9603
11.1461 21.5739 43.9651
11.5392 22.4795 44.7629
11.2333 21.893 43.47
11.0079 22.5223 46.7868
11.8437 23.0776 46.5193
11.5258 22.676 45.9817
11.1812 22.3974 45.8093
11.3979 22.6131 45.4874
11.0799 22.1307 45.6065
10.8759 21.6108 44.5604
11.2595 22.3119 45.1561
10.8681 21.503 44.4359
10.9349 22.2356 45.8213
10.6421 21.0999 44.1078
11.1567 22.5306 46.2621
11.0064 22.1952 45.7134
10.5384 21.5456 45.7677
10.898 21.4979 44.5799
11.2261 23.3495 47.6089
10.466 21.9662 47.449
10.9227 21.9543 46.2467
10.5743 20.8566 44.2105
10.8693 22.2557 46.1546
10.3643 20.8639 43.8484
10.5251 21.9912 46.7063
10.6132 21.8565 46.2221
10.376 21.2449 45.1964
10.7053 22.4459 47.5285
10.6414 22.104 46.5695
10.4623 22.249 47.9526
10.3297 21.0825 45.4146
10.1638 20.7048 44.2562
10.3759 21.658 45.1525
9.82427 21.1379 46.8043
10.6614 22.154 47.2677
10.1934 21.425 45.843
10.0038 20.9407 44.9775
9.95071 21.2257 46.7617
10.2138 21.3319 45.6857
9.862 21.0849 45.8947
10.0132 21.468 47.6497
10.3354 21.7655 47.4208
10.1314 21.6186 47.6033
10.3919 22.523 49.2975
10.1372 21.3553 46.5083
9.65819 21.5678 52.068
12.0218 24.8546 50.8054
9.98891 21.1916 46.979
10.1147 21.5277 46.8285
9.77942 21.564 46.6191
9.55502 21.4319 49.2393
10.116 21.8873 47.9328
9.76104 20.9958 46.5591
9.48852 20.8699 47.4091
9.71254 20.8509 45.8112
9.0899 20.3472 46.7223
9.35699 20.4293 45.762
9.36079 20.6185 47.3166
9.83721 21.3403 46.8302
9.10022 20.1878 46.5555
9.31182 21.0072 48.2086
9.27134 19.9251 45.5942
9.3053 20.3803 45.8714
9.28703 20.4033 46.8428
9.55028 21.1487 47.2489
9.03801 20.3995 46.9828
9.22691 20.793 48.2211
9.07255 20.0499 46.9862
9.12787 19.8592 44.8987
8.98524 20.371 47.3062
8.9647 20.159 47.0072
8.95134 19.6034 45.3209
9.15386 20.7673 47.4138
8.87568 20.2162 47.3765
8.91444 19.8941 46.7504
9.1465 20.836 48.0823
8.98769 20.2162 46.9652
8.77404 19.8 46.6199
8.75513 20.1747 46.7867
8.77129 20.4081 48.7827
8.98677 20.1461 47.6428
8.70155 19.8748 46.4235
8.65228 19.7433 46.2075
8.66649 20.0541 47.5005
8.50508 19.1744 45.3745
8.24926 19.181 47.3358
8.98692 20.6103 48.1901
8.70839 19.8044 46.6287
8.61966 20.1299 48.1748
8.70468 20.0978 47.7557
8.71823 20.5393 48.7935
8.39093 19.3977 47.3691
8.67564 20.2888 47.4257
8.02384 19.0206 47.6694
8.55982 19.553 46.6919
8.19539 19.1249 46.8021
8.39217 19.7885 46.7837
8.10436 19.2847 47.2227
8.1384 19.1238 46.5588
8.09441 19.335 48.0031
8.36264 19.5872 48.5278
8.4837 19.6892 47.8451
8.36423 19.3251 45.9532
8.0613 19.2741 46.7725
7.93007 19.1962 48.6484
8.31735 19.2333 46.8784
8.2712 19.5039 47.0707
8.01007 19.7211 48.8184
8.09956 19.3313 48.1252
8.13709 19.3502 47.6088
8.12192 19.8419 47.6693
7.7786 19.2258 47.9564
7.81644 18.7516 47.8344
8.25972 20.3886 51.0918
8.23559 19.3822 47.364
7.66356 19.0385 48.0115
7.54665 18.0472 45.5813
7.46307 18.2643 47.4444
7.92137 19.5358 49.3259
7.86669 18.8794 48.6179
8.16298 19.615 47.1578
7.46515 18.4785 46.6268
7.61079 18.935 48.2113
7.79991 19.156 48.9389
7.59533 18.0894 46.0122
7.85926 19.765 50.06
7.7035 19.1106 48.7795
7.64489 18.6389 47.8421
7.79132 19.2284 48.2044
7.3924 18.6399 48.357
7.52383 18.7698 48.3172
7.56692 18.7243 48.1869
7.57464 19.1826 49.9297
7.73266 19.1295 49.89
7.90263 19.3275 48.0327
7.4253 19.2198 50.0599
7.61379 19.1761 49.81
7.60865 19.0787 49.4149
7.44764 18.3651 47.375
7.52457 19.6913 51.1229
7.584 19.5503 52.3833
7.84797 20.6042 59.2899
9.63608 23.2721 54.4538
7.5212 19.2591 50.7097
7.50001 19.1919 51.185
7.65857 19.0995 49.8306
7.43148 18.6607 49.0243
7.45573 19.4617 51.64
7.63396 19.6251 50.626
7.18799 18.4295 49.734
7.63669 19.5436 51.0338
7.39223 18.8944 49.5935
7.23118 18.7834 50.7638
7.32257 18.5787 49.2633
7.27796 19.1703 50.387
7.01379 18.1919 49.5968
7.15034 18.5608 50.4164
7.38496 18.7217 48.8366
6.93122 18.2362 48.6377
6.9223 17.9362 48.0987
6.93661 18.3808 49.4048
6.90513 18.5124 50.6198
6.86808 17.5287 47.8835
7.12536 19.2515 51.9017
7.13497 18.615 50.6951
6.97026 18.1549 50.1667
7.1692 18.334 49.3764
6.94173 18.1702 49.3477
7.11573 18.8514 50.9758
7.00467 18.2428 49.202
6.7844 17.8939 49.3766
6.94292 18.2609 49.0714
6.80555 18.3903 50.5305
6.83247 17.8672 48.0804
6.53764 17.4808 48.8095
6.77044 17.9457 49.8956
6.82183 17.6921 48.1074
6.6979 18.178 49.5106
6.74212 18.1889 48.7666
6.51571 17.8831 50.1112
6.56168 17.2342 48.643
6.68392 17.7373 48.2145
6.29929 16.5975 46.4717
6.57789 18.0791 48.505
6.23168 17.0825 49.4437
6.63867 18.0365 50.9297
6.71072 17.8589 49.4185
6.63113 18.2202 51.3702
6.53655 17.2284 48.4387
6.44919 17.4281 48.8372
6.39845 17.4388 49.0195
6.38615 17.4236 48.9031
6.35525 17.5178 50.2996
6.51821 17.6375 49.6434
6.2785 17.2908 51.5721
7.12691 19.2879 51.5257
6.34796 17.8289 50.2306
6.33854 17.0634 48.9137
6.27669 17.4291 50.1212
6.50341 17.3348 49.1575
6.33903 17.3398 48.6972
6.221 17.3824 50.2131
6.46955 17.9117 50.5343
6.28249 17.1357 48.7656
6.07413 16.8999 48.3244
6.04213 16.6238 48.1211
6.07964 16.3313 47.2531
6.07022 17.0413 48.5223
6.06766 16.9551 49.869
6.34955 17.6166 48.8721
5.95049 16.8988 49.5139
6.17497 17.1711 50.1296
6.33283 17.5707 50.1059
6.03014 16.6287 48.5764
6.14986 17.4179 49.484
5.90014 16.7331 50.5285
6.32393 17.7676 50.3806
5.8525 16.1841 47.923
5.97534 17.091 49.6767
5.99908 16.7457 48.5701
5.76378 16.7602 50.4468
6.11272 16.9179 48.6591
5.81419 16.7549 50.5002
6.08921 16.9022 48.4732
5.89706 17.1603 49.5322
5.81342 16.5682 49.8047
5.99935 16.8858 49.7363
6.02259 17.0681 49.5662
5.82783 17.0084 50.0202
5.77379 16.2567 48.9741
5.85707 17.2705 50.9765
5.88358 16.306 47.8618
5.58015 16.2704 48.8697
5.70792 16.2178 47.9972
5.50079 16.1611 49.1452
5.77026 16.6737 50.6424
5.77564 16.6625 48.7246
5.46138 16.6693 58.2495
7.27125 19.9063 52.7967
5.73459 15.8731 47.2703
5.57205 16.4468 48.5975
5.60698 16.3159 50.1817
5.79378 16.4445 49.2569
5.68377 16.4684 48.1242
5.62467 16.8633 50.5832
5.55081 16.0382 50.029
5.82473 16.2545 49.39
5.66252 16.6829 50.3541
5.67113 16.2908 49.017
5.53243 16.2596 50.5421
5.79052 16.6824 51.0317
5.62244 16.0143 48.8221
5.49806 15.8855 48.5474
5.46746 15.7644 48.9495
5.62042 16.3302 48.0756
5.36608 16.1697 48.8333
5.39972 16.0904 49.6836
5.49715 16.2256 49.2125
5.30206 15.9177 49.3365
5.37859 15.582 48.9587
5.54145 16.6386 50.348
5.3543 15.7291 49.2346
5.44485 15.9382 48.4789
5.23423 15.6332 47.8768
5.28741 15.8259 49.9177
5.51239 16.3833 49.2483
5.31498 15.8258 49.5049
5.3787 15.867 48.8461
5.17183 15.9044 52.0453
5.68088 16.577 49.5735
5.34829 16.2448 50.3717
5.29967 15.8268 49.4544
5.23976 15.561 48.8832
5.26726 15.8697 49.453
5.32384 16.2244 50.5467
5.30182 15.8826 50.7116
5.37172 16.017 50.2115
5.31588 16.2021 50.6676
5.29959 15.9977 51.1121
5.3805 16.6945 53.43
5.42164 15.6052 48.3316
5.18809 15.7575 49.8041
5.23241 15.79 49.2098
5.14833 16.0641 50.2168
5.14308 15.4926 49.8608
5.1461 15.1674 49.403
5.27472 15.701 48.5615
5.06533 15.7826 50.2941
5.2448 16.1777 51.3258
5.2816 15.9319 50.0108
5.07672 15.4317 50.5573
5.26793 15.8072 49.0819
5.03641 15.7118 50.3074
5.0616 15.8486 49.7867
5.05034 15.94 50.9223
5.14386 15.7398 51.2435
5.24955 15.8513 50.0474
5.12759 16.1659 51.3818
5.12232 15.5632 50.7714
5.11346 15.5515 50.5891
5.17973 15.8681 51.4245
5.11829 15.3139 48.5164
4.92418 15.6866 50.5523
5.02573 15.1314 49.4966
5.13417 16.002 49.3073
4.75436 14.9448 48.4853
4.79222 15.3882 51.6975
5.08046 15.4968 51.1104
5.08537 15.3743 49.1637
4.95476 16.163 51.4497
4.90809 14.9169 48.5674
4.86362 15.5654 50.7793
4.90134 15.0341 49.9494
4.92457 15.4312 49.8188
4.82842 15.1109 49.6047
4.84989 15.0652 49.3167
4.86567 15.5184 50.6021
4.83029 14.7793 48.6507
4.89652 15.7973 50.1385
4.73872 14.9809 49.743
4.7748 14.9647 50.489
4.81212 14.6455 48.3863
4.80767 15.367 50.6006
4.80974 15.2745 50.4098
4.85906 15.5465 52.0649
4.95888 15.2824 49.8881
4.73399 15.0627 50.0493
4.75788 15.2959 51.7821
4.91974 15.4178 50.5055
4.80683 15.3824 50.7814
4.81701 15.3791 50.7322
4.75768 15.286 50.7231
4.72814 15.4423 50.9564
4.72139 16.0807 62.3163
6.04452 17.3166 51.8335
4.86021 15.5769 50.9909
4.74627 14.8751 48.638
4.55924 14.9157 49.9837
4.68581 15.0446 50.3938
4.76682 14.9593 49.1609
4.52807 14.4443 47.1758
4.39985 14.6439 50.0559
4.69297 15.2738 50.9402
4.66535 14.9706 50.6672
4.6331 14.5865 49.6508
4.58963 14.4457 48.2609
4.52567 14.8193 49.7667
4.56209 14.5678 50.1856
4.66656 14.9687 50.8422
4.61821 14.6985 48.8619
4.45019 14.5076 48.2849
4.45112 14.8949 50.7634
4.56435 14.9036 51.4515
4.7068 15.2832 51.1236
4.6135 15.1797 51.0422
4.69998 15.6486 53.2781
4.75609 15.3994 52.9817
4.7274 14.9899 51.7237
4.72565 15.644 53.8664
4.91903 15.6825 51.988
4.65966 15.3379 51.4633
4.60416 15.3694 53.8442
4.76023 15.3451 52.9485
4.7326 15.6851 53.2057
4.65489 15.4152 52.5896
4.68603 15.3893 52.9507
4.59954 14.7096 51.0793
4.63564 15.5416 54.1695
4.72583 15.2184 50.5074
4.5359 15.4933 53.507
4.61155 15.1896 52.0473
4.47331 14.7427 50.686
4.45891 15.0219 52.3618
4.54101 14.8595 51.2047
4.44463 14.5125 51.4194
4.48307 14.6449 52.2045
4.56224 15.0475 51.5294
4.55933 14.9468 51.7875
4.52272 14.9598 52.0184
4.50812 15.0271 51.7703
4.57351 15.0871 51.4952
4.50873 15.401 52.8381
4.40922 14.5596 51.8859
4.46533 14.9395 51.9803
4.52707 15.1247 51.6661
4.42581 15.2209 53.6611
4.50046 14.9503 53.2853
4.64061 15.089 54.2549
4.63461 15.0992 53.8203
4.58897 14.9563 53.086
4.55635 15.2298 51.4027
4.33608 14.634 50.3247
4.25018 14.5311 52.017
4.48943 14.8911 53.1004
4.57468 15.093 51.6566
4.42317 14.3156 50.8347
4.40436 14.9548 50.8095
4.2866 14.6635 51.1755
4.26594 14.7925 53.1036
4.41299 14.5983 51.4972
4.3901 15.0332 52.7274
4.39467 14.9232 52.2192
4.40432 15.141 53.3038
4.45301 15.1797 53.6404
4.36867 14.0876 49.9466
4.21907 14.8377 53.3564
4.33629 14.4785 49.8322
4.11905 13.7775 50.3297
4.25857 14.7071 51.8198
4.2363 14.3385 52.5858
4.4188 14.4144 49.517
4.10724 13.987 49.0538
4.02482 14.2203 52.3814
4.3491 14.9708 53.0842
4.2811 14.2752 51.3845
4.28811 14.7388 52.8961
4.29196 14.3887 50.9311
4.15406 14.6554 52.5789
4.23993 14.246 50.689
4.15204 14.1835 50.2525
4.11301 14.4906 51.2837
4.15166 14.5403 53.7977
4.3131 14.0625 50.2927
4.11364 14.3927 50.9467
4.16692 14.4698 52.3349
4.2625 14.9186 54.4754
4.43555 14.8475 53.3743
4.23686 14.446 53.7012
4.48447 15.7286 54.3839
4.28162 15.8415 64.6862
5.34792 17.2603 55.2005
4.26556 14.6011 52.9815
4.33217 14.7573 54.3752
4.32488 14.6558 52.3011
4.26334 14.1363 51.762
4.19105 14.5457 51.799
4.19901 14.6797 52.6273
4.14674 14.4785 51.9415
4.10731 14.0738 52.6722
4.22871 14.137 51.0607
4.09438 14.3377 50.4451
4.03844 14.1633 51.4575
4.1172 14.437 50.8788
3.96186 13.9197 50.8242
3.97655 14.2555 53.7372
4.2265 14.5483 53.2416
4.21725 14.5214 50.7318
3.90093 13.8173 51.5204
4.06713 14.3654 53.6627
4.1786 14.3599 51.5669
4.00813 14.0496 50.7729
3.94732 13.9448 51.4366
3.92884 13.5431 50.2566
3.91285 13.6468 49.7657
3.83289 13.6789 51.2847
3.95678 13.4562 51.2714
4.05198 14.0635 51.1222
4.00642 13.895 49.1303
3.8237 13.7372 51.3389
3.98034 14.3309 52.5715
4.01465 13.9021 52.2329
4.01292 14.0848 51.8398
4.03946 14.333 51.8414
4.01047 13.769 50.2283
3.85068 13.6443 51.2168
3.97078 14.3074 53.217
4.02477 13.9457 51.7555
3.98475 13.9275 49.4807
3.72538 13.6537 51.1935
3.91701 13.8313 52.6761
3.93161 13.7244 51.5706
3.95129 13.621 49.5554
3.74517 13.0979 49.3468
3.82465 13.6932 50.9703
3.87178 13.8102 51.5786
3.95819 14.3786 51.3236
3.77015 12.8515 49.7774
3.79262 13.6152 50.6124
3.81846 13.6493 49.8092
3.75603 13.837 50.2118
3.76835 13.4357 51.0529
3.85418 13.4658 48.9981
3.69362 13.2782 50.431
3.87943 13.7129 51.9448
3.93199 13.584 49.6641
3.77994 13.7376 52.3174
3.92092 13.7014 49.4499
3.7563 13.5468 52.0356
3.84994 13.6886 51.6875
3.86038 13.287 49.6384
3.69545 13.4336 50.308
3.75812 14.0309 52.8457
3.86522 13.3677 52.254
3.93737 14.438 51.8534
3.80554 13.3589 50.7683
3.806 13.7562 51.5534
3.82916 13.7089 50.4817
3.76377 14.1214 53.2643
3.92849 13.6242 50.6048
3.70317 13.8578 52.8848
3.92095 13.3358 49.6243
3.70505 13.0768 48.7427
3.59978 13.0353 49.7424
3.74331 13.767 51.0379
3.69131 13.3651 54.0087
3.99514 13.4051 49.8961
3.75723 14.3895 52.1786
3.79258 13.5857 51.4357
3.74075 13.4917 52.6687
3.84445 13.661 51.4142
3.75649 13.3306 49.9551
3.70055 13.3766 48.4757
3.51525 13.3545 52.1404
3.81258 13.6326 52.3276
3.75018 12.941 49.0774
3.6075 13.312 50.3403
3.69944 13.3767 51.6965
3.80252 13.5338 51.4409
3.79287 13.9135 50.2836
3.53985 12.9652 50.3235
3.63576 13.0099 51.0143
3.71819 13.7147 51.8825
3.69393 13.7258 52.5578
3.75999 13.1679 50.5275
3.64867 13.5966 51.9907
3.83398 15.2881 66.8058
4.71702 15.483 52.0003
3.70937 13.2746 50.691
3.66138 13.4033 49.8277
3.56539 12.342 46.6426
3.37796 12.6047 49.262
3.57067 12.8636 48.3175
3.46359 12.7491 48.5417
3.49424 13.0692 48.6975
3.46341 12.4161 49.4257
3.55111 12.8703 49.5967
3.55362 13.0065 49.1631
3.53409 12.7828 49.7372
3.58329 13.3392 48.9977
3.4868 12.5912 48.8898
3.47194 12.5755 48.3824
3.4877 12.7113 48.7395
3.45417 12.7553 48.1928
3.40285 12.6111 50.9147
3.64625 13.0875 49.3236
3.52382 13.0839 49.3962
3.45149 12.888 48.6583
3.44382 12.5061 50.5107
3.5751 12.814 48.9054
3.43806 12.7205 49.7697
3.5561 12.6846 48.6309
3.4583 13.1446 48.4639
3.36596 12.4965 49.5133
3.48853 13.0525 50.1262
3.50115 12.2492 48.3602
3.42538 12.8526 47.9269
3.32139 12.2191 49.3416
3.47391 11.9588 47.1555
3.36925 12.578 48.3942
3.41391 12.65 47.704
3.35156 12.5102 49.7476
3.5099 12.8051 48.7005
3.39145 12.3979 48.6549
3.40242 12.4482 46.624
3.26547 12.1524 50.752
3.6284 12.9929 49.2258
3.39366 12.247 46.7946
3.2951 12.3484 48.3417
3.39604 12.6034 48.6774
3.41278 12.9847 50.0319
3.48876 12.8264 49.5801
3.4393 12.2226 47.9912
3.37481 12.4742 48.9267
3.46624 12.8762 50.4198
3.47757 12.7941 48.9589
3.41495 12.4084 49.9327
3.47054 12.8309 49.9309
3.46604 12.5561 47.9259
3.34662 12.3871 47.6064
3.28575 12.305 47.2173
3.26312 12.3779 49.7207
3.457 12.6651 49.756
3.44375 12.1708 47.0103
3.26936 12.0713 47.4656
3.32059 12.41 47.913
3.27488 12.2008 47.8981
3.27724 12.1543 48.1091
3.34137 12.5736 49.741
3.43965 12.394 47.6224
3.25823 12.013 48.4513
3.30971 12.2802 47.1825
3.25256 12.5349 48.1176
3.2582 11.828 48.1428
3.32971 12.4102 46.968
3.22757 12.0323 47.4012
3.28602 12.1966 48.4702
3.32175 12.4101 46.8864
3.18463 12.0853 48.9941
3.38658 12.6029 48.8574
3.34366 11.9523 47.2716
3.2545 12.3524 50.5946
3.47996 12.3953 46.4545
3.22654 12.4095 48.1031
3.2765 11.8843 47.1659
3.26298 11.9441 46.092
3.18695 11.9142 46.9365
3.21156 12.1076 47.5386
3.24254 11.9176 45.8938
3.10322 11.7066 46.5228
3.19278 12.2259 48.0387
3.27064 11.944 47.4455
3.20537 11.8739 46.3003
3.22221 12.2691 48.3536
3.30778 12.4982 48.2686
3.26274 11.8672 47.6312
3.20441 12.0482 48.0764
3.27532 12.0463 46.509
3.15007 12.0316 48.3545
3.29816 12.3763 49.6187
3.4001 12.272 46.517
3.13867 12.1145 47.1149
3.1491 13.1278 62.4657
4.24902 14.4531 48.829
3.3038 12.3321 49.1385
3.32098 12.2909 47.3587
3.20923 12.3419 48.418
3.22301 12.1217 48.1618
3.23398 12.2797 47.4278
3.14883 11.9375 48.889
3.30176 12.1472 48.0405
3.28311 12.0029 47.4247
3.23845 12.1436 46.5367
3.14021 12.0098 48.3069
3.26618 12.5689 49.04
3.27112 11.9064 47.3691
3.23534 12.3506 48.0118
3.25298 11.617 46.7553
3.16132 11.9116 47.652
3.26243 12.034 48.9711
3.31406 12.418 45.3456
3.02125 11.5714 49.0289
3.37064 12.0747 47.2749
3.13697 11.7721 45.6651
3.08663 11.9935 48.4208
3.20569 12.1457 49.3602
3.32221 12.632 48.1235
3.22207 12.2651 49.0095
3.25338 12.1049 49.0086
3.3167 12.5501 46.9775
3.12865 12.0134 47.5332
3.16609 11.5096 46.8186
3.16554 12.0072 48.4667
3.22883 11.9995 47.3831
3.1934 12.0499 47.9346
3.21777 11.6703 47.2856
3.17391 11.984 47.5536
3.16823 12.0014 48.1595
3.24098 12.0676 48.5107
3.22277 12.1339 46.8581
3.11565 11.7889 47.5894
3.18116 12.2827 47.7306
3.18782 11.9879 48.7962
3.26667 11.8175 45.996
3.07643 11.7581 45.7466
3.1092 11.5292 45.8582
3.02513 11.6853 46.0126
3.07888 11.7534 49.5894
3.28445 12.4365 47.3333
3.18029 11.6162 47.3371
3.14776 12.1533 47.2861
3.15673 11.8789 48.9424
3.2148 12.0366 48.2109
3.18066 11.7638 46.964
3.12056 11.9915 47.2935
3.17603 12.0289 47.1263
3.12182 12.1918 49.1577
3.28854 12.4186 48.1698
3.194 12.175 48.4588
3.26065 11.9228 48.5947
3.23381 12.2835 48.7412
3.26035 12.3868 48.6572
3.24609 11.8902 47.8932
3.20212 12.0964 48.1846
3.24539 12.0131 48.1557
3.20451 12.2642 49.3718
3.28288 11.9163 47.7955
3.1621 11.9123 46.9488
3.11557 11.7612 47.5484
3.13753 12.047 48.8966
3.29084 12.0138 47.5442
3.17341 12.721 47.4433
3.12961 11.4344 47.7319
3.22071 11.7877 47.346
3.1304 12.0734 46.1094
3.08084 11.837 47.8041
3.1706 11.6684 47.7095
3.16964 12.0649 46.182
3.08121 12.0296 49.2616
3.29707 12.3647 49.0244
3.22906 12.0647 49.5634
3.31433 12.4437 49.5349
3.26792 12.3902 48.7987
3.23111 12.527 50.2898
3.35768 12.3843 48.9985
3.23701 12.2102 47.0326
3.12222 11.8978 47.7423
3.1923 11.9372 47.9395
3.2033 11.8965 48.788
3.24032 12.4815 48.6677
3.21812 12.2843 50.9769
3.37726 12.6333 47.4123
3.14342 11.9394 47.7615
3.17534 12.3643 50.1296
3.27069 12.1737 49.4127
3.26963 12.8352 52.326
3.44755 13.1071 52.9546
3.48147 13.2357 51.3867
3.41693 13.4266 57.2715
3.74385 0 0