# pn-170911/RbIIR-58-RbIIA-1280-1959.psd
# Power spectrum* (dif=0,1,2) (really just |FT|^2)
# NOTE: only the first half! (symmetric)
# weeks: 1280-1959
# 3059 clock-days, 290 excluded
# PSD: 1441
4159.85 0.183308 0.0442344
628555 13.4489 0.0394201
1.66267e+06 29.5 0.0404184
381910 12.2808 0.0422664
263379 15.6764 0.0423279
114271 8.27836 0.0409465
79337.7 8.97791 0.0422861
51239.7 7.65018 0.0434156
41684.7 7.89348 0.0434637
30272.9 7.30186 0.0430447
25591.6 7.16048 0.0440613
20439.9 6.8919 0.0440476
16996.1 6.85814 0.0449153
14142.4 6.67449 0.0455886
12486.9 6.88782 0.0484807
10755.8 6.63818 0.0473652
9516.69 6.6444 0.0507293
8309.64 6.6709 0.0506868
7535.64 6.7181 0.0533167
6390.61 6.29356 0.0502004
6165.03 6.83772 0.0554189
5524.88 6.66296 0.054566
4949.24 6.67356 0.0556482
4532.35 6.53974 0.056622
4281.71 6.65083 0.0586831
3782.78 6.49365 0.0592059
3531.9 6.50865 0.0621713
3262.55 6.63792 0.0662941
3128.57 6.81045 0.0642475
2909.18 6.97009 0.0709128
2738.41 6.73814 0.070065
2558.95 6.75483 0.0722187
2342.78 6.67096 0.0724283
2258.37 6.92504 0.0765121
2142.08 6.75446 0.0803522
2066.83 7.06061 0.0786425
1914.98 7.12732 0.0859534
1841.92 7.23959 0.0881367
1733.81 7.06902 0.0886057
1631.21 7.00118 0.0941476
1553.78 7.06423 0.0945852
1519.65 7.2771 0.0995457
1412.28 7.20226 0.0995518
1431.23 7.4075 0.107415
1324.27 7.36871 0.107425
1238.21 7.20263 0.110164
1220.71 7.50699 0.115353
1160.62 7.51624 0.118473
1151.07 7.78903 0.122316
1104.74 7.80524 0.131483
1075.1 7.93552 0.137953
1023.5 7.77187 0.138234
1011.36 8.05322 0.143007
985.401 8.1188 0.146794
927.667 8.05571 0.153608
921.311 8.54602 0.164661
915.637 8.63169 0.172342
862.788 8.45846 0.172492
808.849 8.26843 0.172168
791.981 8.54064 0.183551
768.839 8.41131 0.188414
761.339 8.62559 0.193294
753.217 9.01139 0.209468
714.093 8.68113 0.203875
714.383 8.95298 0.2157
684.069 8.7237 0.216035
676.612 8.93272 0.226559
658.132 9.29813 0.233137
615.677 8.87385 0.233128
626.695 9.48437 0.260021
621.807 9.46681 0.264152
589.882 9.32906 0.268874
578.787 9.44757 0.275662
556.708 9.43442 0.279606
569.729 9.42405 0.286968
539.773 9.6316 0.295253
532.752 9.6907 0.306592
511.325 9.84609 0.318573
502.829 9.85187 0.326154
485.072 9.56878 0.328523
486.565 10.1275 0.351787
484.285 10.0683 0.352928
483.826 10.5006 0.376139
451.23 10.2345 0.377304
449.983 10.4114 0.38563
475.958 11.2313 0.424267
436.932 10.7066 0.423538
432.82 10.5902 0.41777
433.726 10.8701 0.441164
412.546 10.7931 0.444828
410.704 10.9108 0.461245
397.077 11.0184 0.470679
384.806 10.7493 0.481056
386.834 11.1923 0.495805
382.138 11.1281 0.504273
380.592 11.7921 0.537112
389.285 12.3477 0.580379
376.97 11.8469 0.573039
364.268 11.8423 0.57841
359.96 11.7284 0.588855
347.588 11.6782 0.59662
350.892 12.1011 0.621522
345.458 12.1712 0.63796
335.959 12.0892 0.65465
337.094 12.5606 0.69008
332.109 12.5259 0.692837
330.775 12.7769 0.724611
314.119 12.5623 0.715336
313.479 12.5192 0.726959
317.061 13.2179 0.781811
313.292 13.4139 0.813453
306.423 12.9194 0.789584
296.015 12.8295 0.808416
299.732 13.3124 0.842629
289.17 13.0038 0.843724
300.823 13.9558 0.905544
280.635 13.3448 0.897225
281.82 13.3542 0.893233
278.645 13.5518 0.922818
279.512 13.9662 0.972324
280.06 14.1027 1.00171
274.17 14.1254 1.01961
267.697 13.9571 1.02387
270.778 14.6532 1.08912
266.292 14.5169 1.09465
270.562 15.0004 1.14942
261.486 14.3827 1.11793
250.77 14.261 1.11262
244.824 14.1101 1.13342
249.631 14.8965 1.22158
244.732 14.6988 1.2144
237.77 14.684 1.23666
243.961 15.4788 1.31947
233.155 14.43 1.242
230.604 15.0513 1.32391
230.426 15.1611 1.34821
236.945 15.5287 1.39984
229.056 15.0886 1.36838
224.1 15.2609 1.40906
224.563 15.5987 1.44336
221.396 15.8603 1.51744
220.924 15.9297 1.53476
207.933 14.8319 1.44891
218.751 16.3913 1.62516
208.389 16.0307 1.60896
216.244 16.3276 1.66417
212.029 16.5118 1.70713
213.84 16.6463 1.73905
202.731 16.1712 1.71311
205.848 16.7824 1.8096
212.482 17.3157 1.85914
199.892 17.0699 1.87626
202.674 17.319 1.9225
199.508 17.0204 1.90468
192.436 16.9398 1.93975
201.538 17.9918 2.08004
196.909 17.4292 2.03118
195.963 17.5694 2.09062
196.048 18.4434 2.20325
191.382 18.1608 2.2195
186.818 17.8043 2.17233
187.481 18.218 2.28777
190.774 18.6712 2.32765
190.489 18.9221 2.39727
179.71 18.2257 2.33737
182.674 18.3006 2.3825
175.367 18.4774 2.45433
181.733 19.0115 2.54063
178.72 18.7202 2.51972
179.292 19.0867 2.62384
173.956 18.6668 2.57152
171.969 18.7527 2.59699
172.551 19.404 2.73613
172.073 19.4404 2.79581
169.954 19.2604 2.77932
168.243 19.5591 2.86275
170.889 19.8146 2.9185
166.63 19.581 2.90011
167.308 20.1249 3.03561
167.007 20.2893 3.08461
163.568 20.018 3.09575
154.642 19.3219 3.01367
161.901 20.0592 3.14903
161.196 20.9374 3.34754
161.062 20.3865 3.27757
159.866 20.853 3.39504
157.013 20.4744 3.34897
157.903 20.7302 3.43791
159.777 21.5196 3.61433
157.679 21.6512 3.67455
153.587 20.6616 3.54251
157.681 21.8326 3.7876
160.325 22.8293 3.97229
147.024 21.1407 3.71556
147.849 21.193 3.78705
148.476 22.3556 4.05366
149.825 21.9462 3.96951
152.581 22.7933 4.15501
139.227 20.7877 3.87873
144.978 22.1981 4.15848
143.309 22.0482 4.17118
142.18 22.4588 4.27858
141.285 22.0948 4.25901
148.682 23.6409 4.56826
140.4 22.1733 4.36387
143.056 23.3698 4.66955
135.885 22.147 4.41517
136.911 22.8041 4.61291
140.693 23.2842 4.73807
140.201 23.7765 4.93577
134.358 23.1372 4.81841
134.257 23.4675 4.93094
133.456 23.2253 4.9031
130.303 23.0233 4.89569
130.975 22.9349 4.97827
131.784 23.8099 5.17229
128.877 23.5246 5.18703
134.478 24.3564 5.37863
132.057 24.2136 5.38354
131.037 24.4934 5.54212
132.793 24.6472 5.59034
127.517 24.3045 5.58253
129.604 24.8326 5.75422
125.382 24.0459 5.61943
124.312 24.4255 5.74431
126.444 24.9074 5.962
126.447 24.9567 5.96432
123.821 24.9192 5.99663
125.458 25.402 6.19059
125.082 25.4624 6.26854
120.575 24.5703 6.08356
122.464 25.8363 6.41074
120.522 25.2736 6.37501
119.298 25.841 6.63551
117.289 24.7097 6.31246
121.178 26.0088 6.69832
116.015 25.1951 6.56702
116.045 25.6858 6.75472
114.602 25.2514 6.66989
117.191 26.2254 7.05022
114.803 26.0909 7.01293
114.839 26.1699 7.13534
115.23 25.9606 7.05315
113.18 25.9718 7.1715
111.463 26.5948 7.41258
116.917 27.348 7.62709
108.254 25.925 7.29454
111.371 26.7839 7.67005
110.076 27.0691 7.73148
109.008 26.6073 7.71393
110.017 27.3077 7.93186
109.39 26.8532 7.94134
108.996 27.2748 8.07013
103.985 26.3685 7.94833
109.761 27.7393 8.27522
109.723 27.9728 8.52224
108.08 27.5978 8.38037
103.812 27.6091 8.5259
102.852 27.4812 8.52006
107.052 28.0122 8.75659
107.101 28.7027 8.9774
103.984 27.8372 8.78455
105.47 28.7618 9.17615
104.341 28.1221 9.03329
104.731 28.9756 9.43053
101.246 28.1323 9.19082
103.562 28.8092 9.44579
102.521 28.729 9.43201
99.6486 28.5277 9.53176
98.7919 27.6501 9.27345
101.092 29.1775 9.84881
97.2868 27.9155 9.50552
98.2475 28.8199 9.92729
97.6975 28.6874 9.99866
98.5392 29.4277 10.1827
99.6301 29.266 10.2504
99.6568 30.2596 10.7311
98.314 29.4915 10.4621
99.1167 29.9747 10.6814
93.2565 28.5211 10.3364
96.2086 29.635 10.6575
96.6203 30.2633 11.0589
93.2958 29.1785 10.6839
90.4141 29.742 11.0193
91.9683 29.1263 10.9197
91.0708 29.1287 10.9062
89.0557 29.2219 11.1142
89.8373 29.4364 11.3247
102.882 34.3191 12.8723
90.8186 31.3047 12.2366
91.0626 30.338 11.8429
92.6474 30.8042 11.9677
89.7721 30.4987 12.0462
90.227 30.3878 11.9633
87.3412 29.6121 11.8472
87.4801 30.2292 12.1495
89.8304 31.1383 12.5303
88.2034 30.7504 12.4272
88.155 31.1151 12.7173
87.3105 30.213 12.3096
87.007 30.7592 12.8055
84.7244 30.6273 12.7328
86.5446 31.1562 13.0336
85.4042 31.1092 13.133
86.5193 31.4518 13.4051
86.4698 31.761 13.5793
84.9402 31.5356 13.4916
79.1494 30.2586 13.2407
82.3303 31.1336 13.5255
81.5036 30.7222 13.5263
80.5622 30.3629 13.4293
79.4177 30.7205 13.7968
85.1044 32.4926 14.4219
82.5343 31.8635 14.3297
79.5415 30.9522 14.1081
81.1718 31.1536 14.1908
79.5917 31.0262 14.0856
81.3017 32.6001 15.0034
80.3987 31.8252 14.8573
82.2109 32.8732 15.2564
77.6737 31.9144 14.9881
77.5325 31.6328 14.9634
78.5755 31.919 15.1492
78.8128 31.9419 15.2127
75.0351 31.0358 14.8736
77.3728 32.3457 15.5445
79.1334 33.4226 16.1625
76.0877 32.4569 15.9618
76.3365 33.2227 16.431
77.8072 32.4533 15.8521
76.2483 32.7972 16.2658
78.6814 34.3808 17.0972
75.3269 33.4729 16.9439
75.5708 33.1059 16.7721
74.8527 33.2679 16.8527
73.3647 32.4486 16.6675
76.2297 33.7118 17.0951
74.7411 33.7886 17.5746
74.3072 33.5106 17.5202
72.6538 33.2288 17.3842
76.1046 34.5391 18.1307
70.4417 32.7214 17.423
72.7725 33.9764 18.0568
73.6264 34.7668 18.6055
71.262 33.0188 17.7636
70.8518 33.4989 18.1472
70.6045 33.6833 18.3513
71.0821 33.984 18.6701
73.2313 34.6041 18.8403
68.9859 33.4067 18.5749
68.9624 33.2879 18.5645
70.1097 34.9933 19.8123
70.8328 34.6633 19.685
73.531 35.4914 19.861
70.2569 34.482 19.53
68.2032 34.0509 19.3685
68.7718 34.2604 19.7333
69.1848 34.7509 20.0323
69.0766 34.7693 20.0809
65.6821 33.866 19.9972
67.3873 34.1999 19.9252
67.877 34.9718 20.6014
68.475 35.2038 20.7975
66.3221 34.5464 20.7065
65.9453 34.5524 20.5522
65.6611 34.6759 20.9282
68.6441 35.9285 21.4163
65.4018 34.7082 21.1676
64.7341 34.4078 21.1998
64.4231 34.2463 20.9951
63.4834 34.3753 21.2759
63.763 34.9466 21.779
62.8202 34.2858 21.4948
64.4691 35.1964 21.7867
62.0043 34.5071 21.8634
63.7241 35.8423 22.7266
64.0622 35.4266 22.4852
61.4419 33.9699 21.6041
60.2001 34.1949 22.0906
59.8532 34.1096 22.2845
61.1457 34.086 21.9892
61.3565 34.964 22.6987
58.7805 33.8816 22.5311
60.6575 35.5662 23.97
68.4098 39.8003 25.6498
59.1049 34.6165 23.1896
59.18 33.7658 22.5403
58.249 34.6713 23.2914
59.5962 35.5759 23.9999
57.9533 34.31 23.3502
58.5965 35.2222 24.0108
58.418 35.3411 24.2276
58.825 35.5818 24.4539
57.6825 34.9378 24.1758
57.3198 34.7142 23.7027
57.8864 35.7953 25.1141
58.5078 36.3924 25.6792
57.7857 35.2929 25.0178
56.5998 35.0647 24.828
57.2904 35.8419 25.7405
57.1329 35.7715 25.1428
53.0586 34.1193 24.8006
56.3662 35.6659 25.9113
55.6176 34.8821 25.0628
55.0106 35.1237 25.3086
55.1533 36.4834 27.1143
55.9876 36.1511 26.457
55.7731 35.7287 26.3786
54.9904 35.7084 26.6183
56.3099 36.892 27.3604
55.498 35.9894 26.9566
54.51 35.4809 26.7786
56.3678 37.2927 28.2293
55.65 36.5688 27.7407
53.8646 36.2359 27.4484
53.2565 36.0987 27.7542
53.5752 36.1056 27.8399
54.3714 36.2439 27.7078
53.7026 36.683 28.5467
52.4551 36.3814 28.5485
52.6939 36.2712 28.2067
52.5491 36.2435 28.7722
53.1843 37.1339 28.9132
53.2683 37.1174 29.1093
52.2375 36.9445 29.7474
52.0517 36.7265 29.4639
52.1224 37.0928 29.7912
51.1851 35.8365 28.8505
49.7989 35.6252 28.8535
50.2981 36.019 29.1262
49.9245 36.3976 29.8978
52.0175 37.1876 30.1004
50.3365 37.1645 30.8585
50.918 37.0744 30.5434
50.0439 37.1027 31.1022
51.1639 37.1728 30.5834
49.181 36.3374 30.5407
49.0901 36.9249 31.4557
50.1883 36.9772 31.391
50.1588 37.7814 32.1713
50.0791 37.2035 31.2829
47.9381 35.8572 31.025
48.4083 36.2863 31.0431
46.3943 35.9613 31.4396
49.3652 37.4254 32.5229
47.6526 36.3309 31.6063
48.102 36.57 31.7487
47.7237 36.9825 32.5882
46.8338 35.8236 31.8671
47.4254 37.0371 32.5512
48.3375 37.6828 33.3097
46.9295 36.4704 32.9384
46.0699 36.3244 32.5348
46.0206 36.5401 32.984
44.9063 35.0971 31.8408
47.1357 37.3396 33.3399
46.0676 36.9878 33.5673
46.0955 37.9369 34.9588
47.0983 38.0892 35.3602
45.4344 36.5092 33.5551
46.2391 37.3345 34.0624
45.4533 37.9104 35.6556
46.5931 38.6177 36.0342
45.7209 37.7858 35.6465
45.061 37.0246 35.0898
45.1168 37.6159 35.4108
44.5892 37.2677 35.3926
44.3402 37.0481 35.5621
44.4101 37.7004 36.2835
44.8235 37.7202 35.5207
43.4068 37.7285 36.723
44.1424 37.5456 36.4217
43.4156 37.3222 36.7773
43.3422 36.5504 35.4042
43.6681 38.1513 37.306
43.1435 36.6149 35.865
43.9044 38.3279 37.7348
44.3603 38.7048 37.917
42.6482 37.3046 37.0926
41.5594 36.7653 37.7373
47.7928 42.5978 41.2081
43.0166 38.3524 38.4363
43.8046 38.7377 38.6348
42.5068 38.4845 39.0611
40.9226 37.2777 38.364
41.4394 36.8191 37.6792
40.6668 36.9 38.2741
43.3402 38.208 38.9434
40.9033 37.7278 38.9898
41.7202 37.6994 38.5766
39.8932 36.6421 38.0851
40.497 36.9208 38.8517
40.4288 37.1742 38.7689
41.2657 37.4706 38.8957
41.6147 39.2917 41.4798
39.8141 36.6792 38.8637
40.4221 37.7942 40.1602
40.2119 38.2259 40.5829
40.0716 37.5442 40.4418
39.3783 37.0122 39.5552
38.542 37.2298 40.4218
39.2259 37.2938 39.9398
39.7168 38.2435 41.5651
38.2218 36.7075 40.3006
37.5095 36.0776 38.9531
36.8798 36.8038 41.6685
39.0306 36.8988 40.2578
38.9451 36.85 40.6178
38.7981 37.3976 41.0712
38.6539 37.6466 41.5367
37.1934 36.3655 40.6225
37.6831 37.6981 42.3461
38.102 37.8379 42.573
38.2238 37.9698 42.4617
36.8361 36.4808 41.6011
36.7502 36.9249 42.0819
37.004 36.7058 40.8697
36.6596 37.6786 43.5289
37.0235 37.3323 42.9887
38.0173 38.1204 43.2068
37.6036 38.5338 44.5215
37.074 37.7122 43.3523
35.543 36.493 42.5346
35.1474 36.7492 44.3047
36.9536 37.0253 42.9804
35.8734 37.2926 42.7626
35.9346 37.5283 44.5321
35.322 36.8996 43.5454
35.1788 37.2412 43.9394
34.524 36.3263 43.4866
35.6215 38.0106 45.9662
35.2404 36.8986 44.2424
33.8753 36.2533 44.0864
36.6197 38.0055 45.4453
34.5096 37.111 44.8951
33.9685 36.6908 44.3878
34.2546 36.9989 45.1524
34.4943 37.1284 45.1302
34.7303 38.2041 46.7725
34.229 36.9521 45.8302
34.1118 37.01 45.6936
34.2962 37.5914 46.708
33.278 36.1668 45.1173
33.1719 35.9491 44.9003
34.0777 37.9801 48.1186
33.1828 36.3208 45.2855
33.4705 37.5999 47.8608
33.8885 37.5454 46.991
32.8858 36.5824 46.2889
31.8322 36.317 46.0116
32.2819 35.705 45.7161
32.8596 35.9883 45.8319
32.5133 36.4735 46.6596
32.2405 37.3768 48.7232
32.3216 36.2256 46.9795
32.8412 36.8422 47.1889
33.4925 38.4745 50.1175
31.7899 36.4541 47.8347
33.8656 39.0601 50.3666
31.9861 37.5208 49.824
31.7594 36.4659 47.8447
31.9995 37.2181 49.1656
32.6873 38.1062 50.2327
31.454 36.4355 49.0076
31.5101 36.9679 48.631
30.7378 36.4429 49.3463
30.4148 35.9903 49.1832
32.0159 36.9142 48.5266
30.6482 36.8381 49.6323
30.6032 36.6096 49.7443
30.6623 36.7275 49.9246
30.6948 36.3507 49.3121
29.9475 35.8406 49.4645
31.5299 37.3327 51.2516
30.6513 37.7757 52.1313
30.6387 36.7665 52.1234
34.4385 41.0962 53.966
30.2132 37.585 51.8888
29.6341 36.668 51.9799
30.0916 36.1169 50.0936
29.8248 36.4017 50.9433
29.9559 36.9732 51.4495
29.6289 37.2051 52.3287
28.5059 35.4122 50.4409
29.4735 36.766 51.7825
29.4805 36.2699 51.5525
29.3829 37.0818 53.3478
29.182 35.6923 50.6993
29.012 36.7297 52.7301
29.4284 37.1196 52.555
28.8844 37.4017 54.2113
29.5244 37.5922 53.9978
28.7913 37.0217 54.169
28.6422 35.6154 52.1124
28.0536 35.7214 52.1736
28.7656 36.932 53.324
28.5662 37.3157 55.0346
28.0068 35.7382 52.9622
28.269 36.9443 53.826
27.2497 36.1045 54.5264
28.4885 36.5199 54.6008
27.5437 36.7384 54.792
28.3678 36.3831 53.3979
28.3026 36.523 54.2137
27.8447 36.7581 54.5752
27.2031 35.9994 53.9849
26.3713 35.3168 53.8549
27.8307 37.2109 56.7207
27.6923 35.7533 52.4498
26.5454 36.2529 55.2044
26.5749 35.6309 55.4583
27.8697 37.2989 56.456
26.8758 36.2164 55.9026
27.0197 36.4677 56.4033
27.0138 36.2748 55.9579
26.5148 35.2456 54.1355
26.0508 35.2827 54.9308
26.8148 36.3508 56.3869
25.6208 34.6518 53.8888
25.8205 35.2927 55.8787
26.1574 35.3744 55.7571
26.2918 35.851 55.7052
27.155 37.0336 58.2116
26.1139 35.7942 56.5561
26.1356 36.2038 55.9415
25.5774 36.1539 58.6368
26.1084 36.0186 56.7975
25.6631 36.5472 57.9879
24.6173 35.0861 56.9431
25.093 34.9103 56.0254
25.5105 35.8192 57.4452
25.3234 35.6398 58.0687
24.8473 34.6377 55.7234
24.5729 34.6205 56.2264
24.6592 35.3835 57.8426
24.1827 34.6411 56.6058
25.4301 36.0572 58.3044
25.1948 36.3124 58.8181
23.894 34.3472 57.4124
24.1403 34.4044 56.7788
24.7829 35.3656 58.2814
24.8846 35.9577 59.1342
25.0131 36.4198 60.8536
24.023 34.745 58.3974
25.0872 35.9175 58.9631
23.8634 35.7363 60.3947
24.2133 35.5685 59.5117
23.3574 34.9649 59.1399
23.8823 34.7736 57.958
23.293 35.0185 59.2195
23.7466 34.9066 59.5565
23.3447 35.0712 60.01
23.4273 34.2755 58.8244
23.8431 35.6843 59.8337
23.3007 34.9299 60.0119
22.9409 34.2542 59.1861
23.0449 35.1599 61.6244
23.5378 34.9914 60.5182
23.8109 35.2886 60.2223
22.8602 33.8044 57.7724
22.279 34.0747 58.8357
22.1262 34.9326 61.8702
22.9642 34.9178 60.7509
23.3599 36.2482 63.1871
23.2142 36.2543 63.312
23.3864 35.3799 61.4627
22.0666 33.6566 60.5264
22.3371 34.6882 62.357
22.7479 34.9565 62.3034
22.2938 34.0756 60.6571
21.8839 33.2446 59.909
22.3028 35.1816 64.4872
24.831 38.3117 64.648
21.7148 34.4909 61.678
21.7059 33.3397 60.801
22.2018 34.6207 62.5875
21.2318 32.8438 59.7675
21.8418 34.3857 61.2641
20.9541 33.4504 60.9855
20.8864 33.2347 60.312
20.779 32.7823 60.0183
21.1442 33.9577 62.5851
21.1295 32.8738 59.7314
21.1461 34.5053 64.0132
21.4704 34.2645 62.4237
20.818 33.6508 61.9725
21.2233 33.9103 62.6261
21.4195 35.044 64.6071
20.7275 34.1849 63.7477
20.0066 31.89 61.3214
20.5228 33.1601 61.4541
20.4099 33.3048 62.2453
20.4638 33.6072 63.4316
20.5616 32.7519 62.3854
20.1293 33.3105 62.9151
21.384 35.056 65.1509
20.4546 33.8748 64.9059
20.7308 33.6079 63.6583
20.409 33.7357 64.6634
20.1211 32.5977 62.3349
19.651 32.9115 63.2705
20.0257 32.7206 61.7289
20.0596 33.2688 64.4571
20.2409 33.2052 63.6014
19.4417 32.9523 63.1943
19.6587 33.3593 63.8899
19.3576 33.1053 65.7936
19.7802 33.613 65.9833
19.818 33.3956 64.4772
19.8754 33.3363 64.5569
19.634 34.0502 67.0063
19.6493 33.0915 65.3815
19.5676 32.7876 64.0737
19.0723 31.8103 61.9376
18.5769 31.939 63.3826
19.4145 32.8689 64.1768
18.5658 32.3677 65.0569
19.0272 32.3268 63.9666
18.847 31.9622 63.3195
18.8152 32.1904 65.1243
19.4219 33.1267 65.1784
18.886 33.2201 65.8489
18.8607 32.9723 66.1004
18.4448 31.9242 65.8487
18.8914 32.7275 64.7718
18.0886 31.2488 63.622
18.3725 32.2825 65.3918
18.4374 31.8621 65.5529
18.7686 32.628 66.2296
18.5353 33.3997 68.0725
18.508 32.5262 65.9934
18.4425 32.1544 65.614
18.2157 32.3887 66.9744
18.0603 32.1036 66.0434
17.8815 31.9772 66.2985
17.8197 30.889 63.7971
18.1199 32.3293 66.2433
18.1191 33.0978 68.389
17.6858 32.2598 67.9254
18.1958 32.3097 67.3539
17.8056 31.62 65.6211
17.6635 32.7492 68.2229
17.736 32.2134 67.5019
17.4804 31.1811 66.6293
18.1279 32.1612 66.2993
17.466 31.7318 66.6253
17.2768 31.8576 66.5977
17.3119 31.5661 66.2273
16.8407 30.7302 67.0412
17.2117 31.2963 66.8739
17.463 31.5046 66.834
17.2706 32.1407 68.4386
17.7222 32.1049 68.69
17.215 31.3116 66.5505
17.3545 32.0762 67.0321
16.8664 31.7863 68.9286
16.8493 31.6621 69.9489
17.1455 31.6168 68.1781
17.0407 32.4108 69.4867
16.8737 31.1399 67.4917
17.0032 32.2268 69.6557
17.1346 31.5915 68.3546
16.7847 31.6814 69.2734
16.2893 30.5168 67.1246
16.4484 31.072 68.242
15.9178 30.3933 67.61
16.4321 30.6164 66.9134
16.245 30.8541 72.0014
18.7399 35.1563 71.4841
16.574 31.8027 69.752
16.1103 31.3457 70.448
16.7871 31.3397 69.6017
16.3089 31.4001 70.7274
16.3416 31.2977 69.0628
15.8112 30.4592 67.6288
15.5715 30.3458 68.8259
16.0214 30.522 68.4227
16.0824 31.5299 70.2471
15.6469 30.134 68.4496
15.4518 30.0875 68.4911
15.3316 29.8034 69.2332
15.9869 30.1765 68.0908
15.3843 30.1046 68.5052
16.0716 31.3805 70.3239
15.467 30.3713 69.5494
15.6222 30.6435 69.8053
15.3066 30.1898 69.938
16.044 31.3253 71.3765
15.959 31.6052 72.0345
15.3625 30.3684 68.7527
15.3552 30.8527 70.1083
15.0508 29.4814 68.9535
15.3375 30.4897 70.4066
15.3541 29.9386 68.4646
14.6905 29.9842 71.2909
15.3869 30.5031 71.5187
15.4157 29.9593 69.4406
15.1118 30.0324 70.4507
15.1818 30.554 69.6375
14.6168 29.5862 70.0469
14.9267 30.0742 70.8879
15.1099 29.6942 69.6876
14.6151 29.7068 70.574
14.8525 29.864 70.3739
14.8868 29.9288 69.2809
14.3888 29.6546 70.2441
14.6798 30.2826 72.775
14.9962 29.5849 70.7371
14.8329 29.9026 70.4523
14.5139 29.5864 70.0109
14.4631 30.074 73.0968
14.6654 29.6004 70.3391
14.1235 28.942 70.3062
14.6451 29.6307 70.0229
14.361 29.8113 71.2829
14.4231 29.4375 70.8641
14.0999 29.3893 72.0154
13.9889 28.5394 69.729
14.4362 29.6746 70.4911
14.4207 29.8302 72.486
14.1366 29.8148 73.5219
14.4821 29.8042 72.6737
14.1805 28.7944 70.5089
13.9474 29.7424 73.3454
14.5316 29.9433 72.8502
14.3197 29.8204 73.828
14.1904 29.0432 69.7015
13.6961 29.0617 71.5942
14.0929 30.4857 73.9796
13.8702 29.7296 73.9604
14.2113 28.8386 73.824
14.4842 29.9501 72.3286
13.8078 28.9662 71.173
14.1078 30.3837 74.8869
13.7721 29.8499 76.6728
14.1394 29.7639 76.2355
13.9264 29.4691 72.2244
13.9552 28.9982 71.5761
13.7753 29.4483 73.4931
13.8118 29.8791 76.1527
13.9025 29.3526 73.3618
13.4211 28.7521 71.1842
13.3273 28.9936 73.7646
13.4254 28.6605 72.7987
13.5478 29.1744 74.6307
13.5277 28.7706 72.6998
13.5751 29.1345 72.9316
13.4774 29.8265 76.0547
13.585 29.6385 77.229
13.5039 28.5281 72.5992
13.0031 27.5103 71.6582
13.5131 28.614 71.7489
12.8893 28.6065 73.7331
13.1408 29.2511 75.4449
13.153 28.0677 73.4277
13.3338 28.7227 72.8839
12.9341 28.8499 73.9508
12.9574 28.5972 74.7119
13.083 28.1441 72.101
12.7803 27.606 72.2886
13.0493 28.6572 75.4731
13.0947 28.8104 74.9709
13.1437 28.9688 74.4442
12.8191 29.6083 82.8271
14.6304 31.4032 77.4605
12.9597 28.5254 74.0709
12.99 28.8714 75.1862
12.9046 28.5341 75.8133
12.9893 28.3932 73.2644
12.7837 29.1104 76.7753
12.7723 28.1117 75.2494
12.8657 28.6647 74.5594
12.5675 27.9246 75.9173
12.858 27.9491 73.7452
12.484 27.7161 72.7991
12.296 27.7493 74.3754
12.2911 27.7431 74.745
12.7523 28.9533 75.6785
12.2098 27.5074 72.6835
12.0644 27.0415 71.6561
11.8177 27.57 75.2284
12.2542 27.2792 73.7855
12.0895 27.4797 74.9698
12.3145 27.5232 74.3182
12.0757 27.7291 74.3714
11.9857 26.7063 74.0947
12.5079 27.7058 73.3196
11.9897 27.1322 72.8981
11.7796 27.8104 75.0337
12.0455 28.0571 77.2495
11.8089 26.1623 70.7269
11.6668 26.994 74.2737
12.057 27.3729 72.2455
11.4471 27.3278 76.0373
11.7984 27.0461 73.7221
11.5751 26.4253 72.8885
11.6615 26.9916 74.0008
11.7844 27.3003 74.4345
11.8312 27.2391 74.881
11.3145 26.6975 75.5529
11.8091 27.3528 76.1397
11.573 26.2189 71.5192
11.4682 27.051 76.3103
11.9186 27.076 75.4552
11.7226 26.3768 72.8841
11.3417 26.3923 72.2885
11.0624 25.8536 73.7179
11.7009 27.0138 75.867
11.4738 26.5009 75.191
11.4655 27.1164 74.7346
11.3059 26.7804 76.4249
11.767 26.7813 74.1568
11.2908 26.8091 75.4238
11.3575 26.5059 74.1984
11.1611 26.8238 74.464
11.3546 26.904 76.1619
11.2539 26.3825 74.8996
11.3379 27.1627 76.4371
11.1685 26.6337 74.8434
11.2043 26.2035 74.1742
11.1156 26.5193 77.1005
11.4169 27.0324 74.1989
10.5924 24.8693 71.2259
10.8359 25.8887 74.4791
11.1237 26.1647 74.4607
11.1558 26.57 74.9223
10.6907 26.0702 76.1403
10.9097 25.4901 74.0056
10.4286 25.5354 74.1721
11.2131 27.1629 77.2052
11.0267 26.6046 77.2011
11.3081 27.5358 78.8541
10.823 25.4022 75.8573
11.2528 26.5734 74.3481
10.8838 26.998 76.363
10.6364 25.278 74.4539
10.5022 25.745 75.5883
10.7734 25.5004 74.1217
10.7102 26.2804 75.6273
10.5267 25.9501 76.6046
10.7344 25.8277 76.4248
10.6915 25.4753 74.2502
10.3233 25.2878 74.4702
10.5136 25.8774 76.8154
10.7722 25.5701 76.2127
10.6912 26.0333 76.8875
10.5665 25.7059 75.0495
10.3147 25.4052 73.8432
10.2483 25.0768 73.7824
10.157 24.9414 76.8131
10.7263 26.0784 76.8472
10.5463 25.6082 72.8838
10.0321 25.1976 73.6955
10.0619 25.8832 77.1057
10.3135 25.4205 76.9138
10.1022 24.5171 73.6799
10.341 25.3523 74.836
10.2088 25.2399 75.0264
10.1165 25.6133 77.4707
10.5271 26.4445 84.3442
11.3637 27.9586 78.2575
10.1941 24.9405 74.5086
9.94996 25.062 75.3234
9.85193 24.5296 75.2335
10.1407 25.3636 76.6927
10.1871 25.0028 75.0723
10.0481 25.0043 75.1852
10.065 25.4941 74.7706
9.81016 25.0981 76.3404
9.969 24.7844 77.5867
10.4562 25.1974 75.4616
9.80169 24.5975 72.6477
9.56863 24.8935 77.3194
9.96034 25.207 76.8184
9.71896 24.1074 74.3319
9.86924 25.027 75.2361
9.91097 25.3012 75.7388
9.64716 24.9822 77.43
9.82744 24.8195 75.9485
9.6761 24.5689 74.7057
9.70327 24.3064 74.1323
9.45555 24.4107 76.9438
9.78455 24.3413 74.5205
9.4663 24.1081 74.1891
9.72767 24.8145 75.6228
9.53701 24.3214 76.2213
9.64951 24.2552 75.0683
9.51041 24.2773 76.8431
9.76221 24.7997 76.6847
9.71929 24.906 77.7746
9.72838 24.4886 75.1241
9.40516 23.9326 76.2113
9.75071 25.319 77.6508
9.74266 24.4079 76.734
9.60232 24.7576 77.2142
9.51103 25.0647 77.5961
9.60915 24.4605 76.4952
9.53658 24.4344 77.3837
9.70549 24.2936 75.7867
9.50527 24.2613 76.2072
9.44489 24.9414 77.8521
9.55329 23.8627 73.0608
8.93719 23.2242 74.8675
9.43177 24.2697 75.3776
8.95209 22.7863 74.6384
9.14282 24.0968 76.2262
9.22984 24.7223 76.9752
8.90207 23.0076 73.9937
9.27362 23.7178 73.8719
8.90538 23.3493 75.5362
9.22923 23.7875 76.2708
9.22479 24.2402 78.6545
9.44963 24.3877 76.4454
9.25651 24.505 76.8918
9.08023 24.1085 76.6489
9.1794 24.2636 77.0932
9.00275 23.8487 77.5011
9.09657 23.848 75.1951
9.02612 24.0041 78.1569
9.31854 23.9372 75.225
8.87699 24.0868 78.8587
9.06889 23.4652 75.2379
9.01563 23.6665 76.566
9.15462 24.4537 78.6498
9.11227 23.9593 75.9407
8.7688 23.4075 79.4636
9.17512 24.0336 76.9727
9.04355 24.2105 77.506
8.97398 23.7009 77.7923
9.08887 24.0694 77.1929
8.88762 23.1678 75.0566
8.74085 23.3694 76.1596
9.0855 23.9864 77.2059
8.8209 23.2215 75.8913
8.73665 23.2578 75.5523
8.74411 22.8089 75.1142
8.85562 23.6931 77.3515
8.76351 23.6017 76.745
8.69509 23.9183 79.3094
8.98835 23.9127 76.662
8.73777 23.4484 77.0432
8.76185 23.3897 76.8928
8.72829 23.4317 77.6227
8.7376 23.1267 77.176
8.77122 23.1218 75.9732
8.53615 23.0506 75.9587
8.58233 23.6016 79.2015
8.90407 24.1402 78.785
8.73853 23.0918 75.5274
8.52333 23.3023 79.0932
8.81272 23.4101 76.2255
8.61818 23.5879 78.8074
8.69687 23.4758 75.6223
8.41656 23.1821 77.7751
8.73387 23.6016 77.992
8.60821 24.5207 88.8407
9.62106 25.9104 81.0115
8.64657 23.8891 79.0021
8.6452 23.5311 79.5907
8.65398 23.0555 77.189
8.46021 23.3375 77.8425
8.39161 23.1224 76.9125
8.59601 24.0973 80.6657
8.52837 23.1488 78.0723
8.54059 22.8914 75.6594
8.46536 23.4571 78.882
8.42732 24.1771 80.6431
8.41434 22.72 78.4413
8.64577 23.4911 77.616
8.28022 22.2051 76.6027
8.38277 23.426 79.7116
8.50469 23.0396 78.2112
8.34485 23.3968 77.6818
8.27616 23.1355 79.0085
8.32033 22.4225 76.1634
8.20875 22.8473 77.9458
8.27935 22.5518 76.2798
8.00444 22.8074 77.2843
7.9097 22.4563 77.6644
8.03556 21.9944 77.7048
8.42694 23.4108 76.3953
7.89752 22.166 77.5957
8.22965 23.3338 77.5182
8.22811 22.9201 78.6548
8.28978 22.3758 76.5695
7.9637 21.7674 76.8599
8.2102 22.957 77.3582
8.10654 22.0682 75.1996
7.89727 22.5787 77.1535
7.90533 21.988 76.9344
8.34166 22.6761 76.5539
8.01455 22.2803 77.6333
8.00773 22.9948 77.4869
8.05585 22.9788 80.4213
8.30992 22.7261 75.5501
7.7631 22.0812 77.5074
8.06041 22.647 78.9839
8.07881 22.8854 80.3063
8.09835 22.0968 78.4033
8.24789 22.8816 77.4888
7.92234 21.72 74.173
7.70964 22.0328 77.6434
7.9459 22.7843 77.2834
7.71681 22.108 78.1599
7.96374 22.1766 78.3992
7.9557 22.2271 79.5804
8.30955 22.3686 77.4771
8.01427 22.4086 77.894
7.73601 21.8239 77.8782
7.98793 23.0363 78.5977
7.98935 22.9877 78.4936
7.59587 21.4195 75.6644
7.65507 21.5076 76.7708
7.89267 22.2212 79.7449
8.08869 22.6956 77.2325
7.70601 21.9427 77.8023
7.70446 22.1854 79.2615
8.05465 22.2825 77.8573
7.79299 21.8986 77.3119
7.75991 21.3979 74.6711
7.65717 22.2632 76.8484
7.5947 21.1732 75.916
7.64231 21.8811 77.3379
7.69906 22.3295 77.2036
7.55334 22.0888 77.4986
7.51076 21.4002 76.0346
7.47779 22 79.5883
7.78768 22.513 79.4401
7.72899 21.9069 78.2315
7.63004 22.0944 79.6532
7.75665 22.4784 76.9702
7.53584 21.0987 76.9326
7.41711 21.469 78.7691
7.85487 21.8098 76.2655
7.51118 22.0747 77.3813
7.42833 21.78 78.8654
7.58117 21.2851 76.0016
7.50812 21.5842 78.8245
7.60656 22.059 76.7661
7.30574 21.3327 75.8514
7.42993 21.7476 78.6201
7.47489 21.9029 80.6011
7.88662 22.8281 81.0797
7.55574 22.4418 79.6801
7.54575 22.3651 80.2005
7.66267 21.6959 78.9493
7.63436 22.1968 78.5928
7.49186 21.6213 77.3587
7.427 22.4315 80.0991
7.51247 22.0923 79.7568
7.48407 21.9346 79.2355
7.59871 22.4004 88.0978
8.52044 23.9151 80.39
7.53846 22.1501 78.1755
7.29976 21.4379 80.1228
7.57521 22.1355 79.3138
7.41272 21.4167 79.6683
7.71882 22.4883 78.3679
7.29015 22.4943 81.7813
7.44003 22.0033 80.5919
7.45491 21.3472 77.5535
7.49802 21.6824 79.4112
7.48545 22.3626 80.4353
7.3569 21.2683 79.1171
7.45893 22.3229 82.8006
7.62164 21.9268 78.5122
7.37949 21.8084 78.8009
7.49707 21.5832 77.6792
7.24277 21.4397 80.1316
7.35512 21.1295 78.6285
7.3702 21.7797 79.7078
7.31073 21.5929 78.147
7.27521 21.2321 77.1127
7.33144 21.7993 82.2611
7.68779 21.5348 77.7728
7.21595 21.1473 77.0966
7.1974 21.3249 79.4234
7.32225 21.6343 78.6984
7.15905 21.2458 77.7112
7.12831 21.041 76.8924
7.17956 20.9054 76.9472
7.16168 21.2122 77.2193
7.01303 21.2834 78.8254
7.31054 21.6915 78.2785
7.14298 21.0032 78.042
7.1088 20.6388 77.2326
7.06337 21.0501 76.4266
7.00584 21.1647 77.8955
7.05555 20.9981 77.0726
7.07349 20.3522 76.6779
6.99555 20.5559 76.076
6.99634 20.5918 79.0807
7.24205 20.793 76.2112
7.0349 21.1794 79.1813
7.25171 21.6296 78.3116
7.11577 20.8585 79.2899
7.28105 20.7958 75.2224
6.8886 21.0809 77.4965
6.85985 20.2769 77.3601
6.93421 20.7805 78.9169
7.29499 21.6605 79.2313
7.08629 20.8236 77.1703
7.0138 21.3743 79.2367
7.0093 20.8807 78.5065
7.01875 20.8439 76.162
6.95482 20.7248 77.9062
6.98994 20.3693 78.0313
7.02369 20.9529 78.9256
6.94233 21.4559 79.2042
6.97129 20.9043 78.4888
6.84689 20.8196 79.6202
7.03639 20.3571 77.0109
6.96225 21.3428 78.3393
6.79484 20.1471 75.2189
6.67997 20.8447 78.3415
6.97907 20.3426 79.3899
7.01374 20.7764 76.5368
6.70667 20.6166 76.4742
6.78782 20.5015 77.6575
6.97545 20.9667 77.1439
6.86666 20.0972 77.5629
6.74146 20.2998 76.1076
6.84752 20.4735 77.2913
6.88319 20.6313 79.2851
6.99727 21.507 80.0569
6.95058 21.1673 81.2076
7.14827 20.419 75.7515
6.80517 20.1029 79.5747
6.99445 20.5685 75.6311
6.67717 20.7626 79.842
6.94978 20.332 75.3917
6.6212 20.1657 77.6153
6.87446 20.8289 77.8256
6.9189 20.128 77.7263
6.80302 20.2029 76.4431
6.75357 20.7427 78.4751
6.77521 20.1094 75.9914
6.54168 20.7105 79.3232
6.91585 20.3788 76.8908
6.69481 20.3555 79.2743
7.02449 20.5212 79.2919
6.75646 20.2414 77.2775
6.70235 21.0242 77.5096
6.73792 20.5627 79.3279
6.76819 20.3981 76.7838
6.66639 20.1179 77.4055
6.77414 20.437 76.6397
6.69304 21.5347 90.118
7.56372 22.2909 79.8065
6.79044 20.5549 79.2627
6.68285 20.7354 79.5468
6.81134 20.503 78.1327
6.6284 20.2568 79.0016
6.93801 20.4989 78.6528
6.83774 20.7178 76.6071
6.53573 19.8123 76.7971
6.629 20.6744 78.2383
6.52816 19.74 77.21
6.63538 20.4363 79.8925
6.90828 21.2859 82.3484
6.87939 20.6525 75.773
6.53457 19.9183 78.0916
6.59525 20.62 76.7957
6.42455 19.9695 79.0958
6.71171 20.4703 76.9524
6.48707 20.2996 77.1792
6.6349 19.9695 78.9448
6.6587 20.5715 80.0515
6.68879 20.2961 78.2957
6.60641 19.8229 76.441
6.53421 20.6004 79.6213
6.63391 19.8696 75.8446
6.47647 19.3538 78.0959
6.83836 20.5171 76.733
6.60902 20.6952 79.0333
6.7401 20.4931 79.0034
6.60614 19.8271 76.5514
6.44087 20.44 80.586
6.77048 20.0843 79.634
6.57351 20.545 79.6633
6.59491 20.3846 79.6222
6.78887 20.4714 76.9452
6.37871 19.9123 78.1646
6.62814 19.8806 79.0628
6.68115 20.48 78.8268
6.57157 20.4026 79.3547
6.66745 20.45 78.7648
6.63269 19.8229 75.7369
6.4499 20.1946 77.9439
6.54358 20.1234 76.4444
6.45391 20.5943 77.3554
6.30128 19.3648 79.4149
6.62306 20.805 80.3865
6.71462 19.904 75.8791
6.36585 20.3162 78.2369
6.53025 20.1979 77.4612
6.3785 19.3086 77.5135
6.46294 19.7581 75.5224
6.24888 19.9971 78.2555
6.38597 20.2266 79.5012
6.5318 20.2259 81.8117
6.62672 20.2752 77.1651
6.46715 19.5903 75.2008
6.22803 19.4355 76.1703
6.36662 19.7894 77.6654
6.47558 19.9449 78.4676
6.46687 20.175 79.2294
6.56446 20.0129 77.3073
6.41634 20.3034 79.974
6.59717 20.0175 78.6028
6.52336 20.1161 78.3195
6.50586 20.66 80.857
6.56109 19.7463 80.4472
6.56036 20.9168 78.7861
6.48959 19.1279 76.4599
6.35646 19.7872 78.5715
6.42659 19.9707 76.5604
6.26969 19.7539 78.7274
6.52608 19.7074 76.9903
6.37514 20.0353 79.8699
6.60238 19.6618 74.7178
6.09648 19.7054 79.6527
6.59695 20.1266 77.6105
6.40052 19.4273 76.2005
6.27882 19.7378 80.0622
6.56544 19.6798 76.2064
6.30544 19.9652 78.279
6.31783 19.5824 77.5214
6.44938 19.2691 76.1651
6.22615 19.2102 74.7382
6.20732 19.6251 79.3759
6.51319 20.2725 79.1523
6.55944 20.3629 80.3872
6.56381 19.5578 77.433
6.37376 20.1829 77.6725
6.35434 19.5401 77.7399
6.32123 20.0082 78.9756
6.36958 19.5487 76.7437
6.31234 19.9555 77.4989
6.30365 19.3381 75.5309
6.28504 19.7824 77.7183
6.37055 20.1473 79.4215
6.56057 19.8941 77.29
6.322 20.222 94.1961
7.51701 22.0654 78.6017
6.35702 20.215 77.8101
6.22802 19.9779 80.7969
6.36183 20.0787 80.5997
6.60466 19.7849 76.9166
6.33079 19.6229 77.0331
6.25616 19.3381 74.6284
5.93009 19.0404 76.4557
6.16779 19.4683 76.449
6.25856 19.4648 76.6232
6.30648 19.1962 78.0311
6.39209 20.2435 80.4875
6.48653 19.3519 78.4494
6.36986 20.2382 79.4189
6.42637 19.5222 78.4448
6.33558 19.7947 75.0767
5.99623 19.5079 77.0386
6.24322 19.7344 80.3964
6.42283 19.6958 77.7572
6.26379 19.426 77.9534
6.24722 19.1756 76.7088
6.16849 19.4498 78.2933
6.30998 19.837 77.3261
6.2614 19.7225 78.3255
6.34902 19.9669 79.4532
6.38059 20.2737 79.8053
6.28551 19.4635 76.9102
6.15954 19.6401 78.1271
6.23955 20.0283 79.1076
6.40947 19.7355 77.3292
6.24618 19.6817 77.9659
6.28854 19.5877 78.8343
6.31253 19.8344 76.8909
6.20093 19.3896 78.7508
6.16999 19.4699 78.2322
6.35746 19.9706 79.3784
6.34016 19.4855 76.2825
6.07879 19.4707 77.5983
6.16578 19.5914 78.5039
6.17867 19.6835 79.9601
6.34004 19.2529 77.4885
6.2563 19.6198 78.0529
6.33105 19.6122 76.8918
6.11938 19.3033 78.4692
6.22494 20.0564 79.3897
6.28435 19.7719 76.7747
6.29583 19.9297 79.5439
6.23742 19.571 78.3908
6.26811 19.259 76.3007
6.13614 19.626 76.8389
6.02431 19.254 80.7108
6.46881 20.1147 77.1446
6.12351 19.266 76.228
6.11917 19.0935 77.7451
6.11837 19.0045 74.8939
6.09648 18.9616 73.6116
5.83249 19.0816 76.4911
6.05932 19.5481 79.779
6.44105 19.434 78.3247
6.26994 20.1243 79.8716
6.36135 19.8188 78.1732
6.08248 19.2889 77.3749
6.37335 19.3041 79.79
6.40051 19.8009 77.8133
6.22145 19.4102 77.8685
6.29121 19.5238 75.234
6.04768 19.0538 79.6429
6.3128 19.609 75.7953
5.98275 19.298 78.8234
6.25879 19.7218 77.2752
6.09851 19.4646 77.4131
6.16129 19.6594 77.0741
6.26285 19.7683 76.9677
6.10174 19.3877 79.658
6.27005 19.4653 78.5828
6.33358 19.3729 76.8446
6.09869 19.4929 77.7399
6.11875 19.9936 79.4603
6.3601 19.6474 79.2464
6.32422 19.7546 76.1026
6.08586 19.3929 80.9696
6.43586 20.0384 77.7799
6.10183 19.2074 76.4078
6.04491 19.5588 76.6018
6.187 19.4731 78.1232
6.25781 19.6593 78.8586
6.26788 20.1363 80.0285
6.19642 20.0499 77.0385
6.06759 19.915 81.2527
6.35002 19.7176 79.0569
6.25313 20.1043 82.5192
6.5637 20.3449 81.0007
6.30356 19.8804 80.1723
6.23888 20.9016 80.9297
6.35735 20.6043 83.4032
6.64026 21.459 93.5816
7.17273 0 0