# pn-170911/RbIIR-55-KOKB-1280-1959.psd
# Power spectrum* (dif=0,1,2) (really just |FT|^2)
# NOTE: only the first half! (symmetric)
# weeks: 1280-1959
# 3 clock-days, 0 excluded
# PSD: 1441
127.571 0.16389 0.0178475
26270.9 0.440082 0.0185639
84188.3 2.64266 0.0193458
19728.1 0.331823 0.018965
34390.2 1.8681 0.0194452
5923.33 0.606188 0.0174126
8825.26 0.77169 0.018025
703.447 0.189978 0.0183211
2200.87 0.379418 0.021113
1050.15 0.256328 0.020426
1792.34 0.575647 0.0216986
1272.17 0.650558 0.0160301
920.785 0.168974 0.0177892
1739.98 0.893575 0.0244492
116.767 0.316349 0.0182693
789.266 0.586944 0.022767
807.708 0.533594 0.0175013
500.791 0.852322 0.0150148
277.909 0.155168 0.017755
554.31 0.775836 0.013941
436.862 0.616133 0.0201574
624.786 1.14302 0.0258414
773.771 1.06545 0.0268286
233.006 0.587773 0.0236077
397.72 0.949718 0.0278466
526.767 0.972497 0.0239442
511.779 1.50286 0.0293559
1269.55 2.89979 0.0331758
434.934 2.58957 0.0356542
181.388 0.632929 0.0226132
289.462 1.42594 0.0205788
240.175 1.57601 0.0359455
415.019 2.37908 0.0278043
433.786 1.78673 0.0337051
1019.7 4.02365 0.0183312
880.525 4.33652 0.0707581
1401.51 7.24813 0.0540764
427.595 3.16036 0.0565589
755.4 4.02008 0.0550554
77.7786 1.00327 0.0256813
121.649 1.35032 0.0463102
337.906 2.31052 0.0314993
143.194 1.27385 0.0355519
241.546 2.34504 0.0286852
241.883 3.02868 0.0713141
485.311 4.15543 0.0276136
412.57 3.24511 0.0815827
279.176 3.5989 0.0852993
404.624 6.05752 0.0817515
419.455 5.15586 0.0683512
230.584 1.92192 0.0564314
625.032 8.46471 0.177652
247.662 3.8961 0.0886816
632.177 6.25902 0.127379
787.349 9.61436 0.0862334
156.829 1.50612 0.0466186
196.914 3.61393 0.057054
422.071 5.58803 0.156571
260.259 3.63603 0.0473177
496.904 6.57133 0.0844022
397.23 6.52052 0.0930345
492.095 9.05428 0.138582
387.8 5.88047 0.0772524
289.227 6.70806 0.0857815
169.472 3.51678 0.11458
866.804 14.983 0.318094
273.278 4.31148 0.160027
759.959 15.1247 0.338244
253.048 5.07113 0.192033
1003.31 21.672 0.553041
196.338 4.09395 0.120224
312.652 7.12822 0.223933
365.924 8.23045 0.276852
503.621 11.5521 0.386818
498.991 13.7148 0.340763
224.53 5.94788 0.199493
608.206 17.3054 0.391282
118.345 2.21395 0.0604604
102.345 3.42587 0.112983
301.693 8.42532 0.262505
186.444 6.5705 0.16231
107.597 3.91608 0.12394
193.856 6.88392 0.212284
562.08 16.4173 0.606858
331.304 9.44075 0.276621
274.664 9.73835 0.424926
160.324 6.0945 0.249465
497.921 17.1544 0.725438
154.509 5.88005 0.37357
130.623 5.31399 0.234117
612.785 20.1529 0.63853
374.329 13.9848 0.686375
225.992 10.427 0.441238
258.945 10.2695 0.440267
825.122 36.5543 1.43715
261.401 11.9896 0.457758
191.788 8.6767 0.339577
393.74 19.8739 0.828646
347.482 17.3944 0.931285
404.113 17.8259 0.619718
147.638 7.90966 0.265381
215.914 12.8 0.633054
183.58 9.97911 0.436797
306.601 12.9389 0.632898
245.51 11.9634 0.637209
125.891 5.71765 0.236865
270.788 16.3103 1.03331
468.585 20.8082 1.05991
477.963 26.6279 1.30119
138.735 8.54182 0.499442
175.378 8.64532 0.559123
212.172 10.6275 0.647589
65.1737 3.0313 0.238947
284.597 15.7329 1.0718
167.325 8.97986 0.603559
53.0171 3.92662 0.248234
114.191 6.76574 0.617482
248.289 15.9078 0.834557
330.076 21.6847 1.49244
670.117 48.1815 3.33704
92.0427 5.48043 0.304824
304.103 22.4219 1.35951
49.1725 5.21118 0.346978
81.0911 7.17657 0.473718
458.577 31.6148 2.46763
139.089 9.84158 0.780819
69.538 4.08588 0.261525
169.919 14.6754 1.34818
87.8573 4.63364 0.369832
143.164 12.5827 1.012
322.252 22.9553 2.01634
132.154 13.5089 1.12841
131.236 8.13813 0.602063
90.1833 9.02515 0.681392
355.533 25.5156 2.11307
205.586 17.4788 1.76666
213.834 20.4006 2.27917
32.0164 3.08396 0.512629
811.445 71.8017 6.1447
43.0718 4.4188 0.399528
218.967 18.0243 1.57714
250.47 24.5857 2.44937
188.574 18.1545 1.94632
149.41 13.4124 1.1759
185.333 19.9231 1.99335
186.198 19.1362 2.00969
287.461 30.0392 3.06534
140.037 15.3134 1.86802
316.405 27.8188 2.852
232.408 23.1431 2.4512
240.228 24.0325 2.86852
329.187 37.5702 4.15493
84.771 10.4306 1.42368
217.563 21.7511 2.52661
183.429 16.3992 1.30068
112.42 12.8841 1.39252
67.8653 5.62965 0.738808
280.874 29.6097 3.36793
321.308 37.1451 4.43614
54.0801 7.90151 1.39439
129.378 12.8982 1.51831
112.632 14.5143 1.52056
32.8295 2.79558 0.402648
122.383 13.6883 1.63068
163.968 20.8643 2.87698
72.904 11.5057 1.99786
379.248 42.7876 5.54117
99.7179 12.069 1.5136
41.7087 6.03694 0.722445
143.923 17.3637 2.52832
161.198 22.4637 3.24016
137.695 16.9048 1.9372
208.772 27.5615 3.41457
74.098 11.061 1.70173
90.1562 14.9409 2.34305
58.5097 9.7297 1.87496
82.4199 9.93676 1.37519
116.669 17.2975 2.46218
94.456 16.5052 2.50531
70.2235 9.60469 1.6883
132.087 19.8188 3.1379
119.707 19.0633 2.66372
81.9281 14.7537 2.59744
105.949 17.1953 2.9366
274.457 39.8538 5.88616
79.8378 11.8197 2.10532
70.9956 10.04 1.88244
310.136 50.6094 7.73964
126.086 19.082 3.0946
168.136 26.9922 4.21796
194.037 30.11 4.96624
80.024 12.4966 2.3383
66.1813 14.7807 2.84078
136.591 21.4332 3.89362
173.248 27.1701 4.64339
102.244 22.6861 5.56867
168.377 27.0952 3.83654
155.111 25.7976 4.05861
99.6358 18.5814 4.07081
20.7689 2.83813 0.471999
73.9757 16.0663 3.01001
102.084 15.5935 2.38471
93.0849 20.141 4.56043
99.1435 18.4275 2.84907
91.5131 17.0361 3.09598
24.2094 5.1993 1.12817
83.7316 16.4945 3.30188
69.66 19.3594 4.75607
99.5923 18.749 4.20204
85.6894 12.9635 2.2147
18.4809 3.19513 0.587432
37.0258 7.39736 2.04847
34.1602 6.16564 1.51609
129.403 28.9027 6.15412
60.8475 10.1989 1.84753
51.5642 12.3076 2.50293
25.979 4.59277 0.912571
39.4041 7.67453 1.70046
47.9864 11.1043 2.28076
75.1979 21.031 5.45816
52.0609 8.82697 1.6938
55.2736 10.3254 2.63921
132.239 29.9031 6.26231
138.62 28.7219 6.40143
100.276 23.0622 5.06125
86.6311 23.5172 5.36392
235.227 61.0665 14.5649
103.172 19.3329 4.27116
20.2677 5.43858 1.31153
65.8964 14.5987 3.16819
26.1632 7.70019 2.30576
39.1106 11.3694 2.61349
41.9029 13.7862 3.7135
65.9886 17.2695 4.67401
205.75 65.4152 19.3753
122.124 18.8914 3.35649
104.204 23.9132 6.02554
47.6078 10.2431 2.17444
36.0005 10.4329 2.52442
43.7349 10.3435 2.90823
111.759 27.3924 6.56231
60.6696 20.268 5.71152
25.3329 8.77705 3.0343
23.7577 5.58592 1.86053
74.6201 19.2416 5.1245
66.5906 20.1529 6.21977
153.186 39.6389 10.776
62.0852 13.5247 3.22942
52.8386 18.1336 5.96813
43.0159 9.26409 2.12977
56.3951 15.2922 4.38239
14.319 5.36205 1.67119
18.1976 4.19227 1.38073
72.2275 17.9176 5.09164
51.676 15.88 5.40282
67.521 20.9019 7.16534
94.0585 29.9877 8.62529
69.3789 20.8752 7.17401
65.3452 21.4593 7.42815
75.3237 24.324 7.0149
72.426 21.8349 7.69755
59.8683 17.8012 5.18388
79.7085 25.5555 8.73428
78.7399 21.7056 5.46797
18.1719 6.28439 2.70119
34.763 11.3869 3.63328
145.476 48.6893 16.3113
89.8135 37.5683 14.0883
88.2097 24.2999 6.97697
112.259 42.7465 17.1638
65.7213 18.9898 5.62707
107.564 34.1786 10.3145
56.6803 18.8697 5.96153
112.473 41.2356 14.9707
60.5642 15.2737 4.36031
61.5929 20.0163 7.05122
84.2287 22.3782 5.7476
24.6241 9.45573 3.81385
124.271 40.1903 13.9006
33.6924 10.8421 3.68751
74.0198 24.4425 7.7394
22.8447 11.3059 4.65466
54.8955 16.9628 5.42086
63.1187 21.687 8.73734
43.0642 15.9979 6.21416
98.5368 39.8512 13.7126
69.2005 27.562 10.7254
31.9905 13.8894 5.88319
42.4451 16.833 6.98946
15.5052 7.4507 3.72677
66.4722 18.171 5.99243
58.3305 19.411 5.9714
63.7232 27.4912 13.0335
31.9364 11.8559 4.19821
38.1248 10.0753 2.32856
111.096 46.7155 18.8686
27.5986 13.9577 6.83546
5.57797 1.53319 1.22325
41.2698 14.3762 4.94913
36.2738 14.4163 6.39397
70.1436 29.1205 13.2477
21.3841 9.87486 4.95406
20.1677 10.8638 5.56768
63.0203 32.806 16.4672
35.2829 10.6832 3.08612
47.7457 23.7952 12.5268
61.7605 24.0339 10.2072
199.917 74.5468 26.6241
22.3456 12.5787 7.198
77.3074 30.6672 12.6752
66.2113 31.903 15.1267
135.288 53.9938 21.514
24.5585 13.2072 7.49391
65.1867 30.2894 14.2899
20.6762 10.981 5.71663
66.3986 25.8284 10.3488
59.8336 29.3309 16.0209
45.1147 20.6881 9.76657
81.0597 35.0341 14.9478
122.722 58.1003 24.2524
30.7824 13.6943 5.9416
15.9837 4.88438 2.3455
38.9616 19.4485 10.2695
49.4182 21.1958 8.63605
47.7183 25.498 13.3267
98.7795 48.3627 26.2094
59.8849 25.0126 9.16044
67.3279 31.8636 11.9564
31.5467 19.3523 10.2914
43.8456 29.9572 17.172
62.3612 23.6144 9.76087
9.19763 4.55494 2.72825
41.0266 31.0797 19.6301
67.3928 21.6378 6.28032
61.1185 34.6101 19.5854
38.2186 16.1349 6.47989
9.77027 8.12372 5.93494
83.2417 42.6023 20.1615
29.5527 18.0732 11.9511
17.589 11.1758 8.53842
15.2486 7.13629 5.14647
37.6568 13.276 3.7729
35.6745 20.4475 11.6285
34.5092 19.045 8.87697
19.8745 16.8007 12.3018
81.2496 31.7799 12.1169
36.0927 23.9424 14.2981
48.3182 26.4141 14.0273
68.1281 36.262 20.4561
4.92987 3.16908 3.89704
49.6198 24.257 13.2104
22.6954 12.7243 6.42178
14.3541 8.08736 4.56661
27.9722 11.7257 4.00802
24.4209 12.8668 6.45133
10.5633 6.53451 3.51202
28.7433 17.6338 12.5019
72.9685 39.4444 21.061
36.8844 22.2766 14.3801
15.4027 8.05603 4.56897
87.5121 54.5767 30.3938
23.5557 10.2118 5.6298
44.1914 28.3371 15.848
23.4146 18.8276 16.5888
70.3227 35.6671 15.4296
15.9434 12.1634 9.46083
32.445 18.5217 9.63929
46.8262 30.2354 16.2513
46.409 32.3835 21.9308
34.3921 20.9647 10.6384
7.92363 6.37083 5.23745
25.5968 13.1774 7.04075
34.5941 21.6357 14.3152
36.7599 25.0756 16.9261
27.9321 17.0338 8.49875
12.0327 10.6645 7.79515
27.9181 20.478 13.436
8.37047 4.60786 3.14378
38.0606 28.1768 20.1862
39.6456 20.6082 12.0719
42.53 28.8015 20.2299
34.3429 18.451 9.44971
39.6698 33.2431 27.3352
54.9833 30.8265 19.5398
82.0164 43.4647 23.2122
38.2113 28.7122 19.3905
7.30694 4.43716 3.80297
21.4159 15.5209 11.9631
52.3525 34.2812 21.0705
21.9046 14.5345 10.2757
14.5508 5.88206 3.74281
28.8519 15.7769 8.0815
69.9069 54.4256 41.9863
19.8412 10.9653 8.2056
25.2089 18.8721 12.019
42.2301 33.0392 24.4926
25.6074 18.0458 14.5422
43.5175 27.8032 15.4691
7.37421 7.08787 7.39481
47.0791 39.2352 30.0318
8.02083 7.52126 11.6014
26.4363 15.3105 9.42984
29.0615 14.3224 6.91374
22.4313 14.8256 9.17452
14.9404 7.55045 5.76876
41.6669 21.8051 11.1639
45.1973 35.3774 26.4209
24.7996 15.0246 7.76016
43.8492 40.0409 29.24
17.6229 12.3924 7.72465
25.9729 21.5945 16.3477
23.8648 20.6066 17.1041
18.6871 11.7761 5.83599
26.3667 30.7441 28.1777
19.052 7.74736 2.95744
5.27681 7.55739 9.05005
42.3567 32.3746 23.3194
26.3786 24.8943 22.2033
14.5764 8.71487 8.21852
52.8281 39.294 28.0841
32.8408 23.5223 17.1643
6.76378 7.80157 7.66953
17.9322 15.2882 12.6956
16.696 9.38848 6.88084
21.0542 16.4159 13.7906
26.3868 19.5206 15.0528
35.2427 26.7472 20.5786
23.7878 21.4509 19.5922
36.0931 26.7204 23.0524
35.1608 29.6256 24.9417
20.6742 12.61 7.21741
16.9272 15.5094 13.2735
22.5326 26.7819 29.0865
48.6138 28.0716 12.2547
42.4122 47.2101 40.2986
19.5794 12.2054 9.27989
34.6453 28.6925 22.5684
21.3658 19.4176 15.5943
16.5721 19.1764 21.2286
31.3833 24.5689 19.467
17.8046 16.4324 17.2092
51.866 41.1673 28.9229
12.2102 18.5419 22.6137
22.3463 9.10531 4.69281
21.8933 17.0448 15.2734
34.2066 24.689 18.3244
11.4098 10.4523 10.7836
16.4804 15.3973 11.3459
27.8924 36.1189 41.0612
23.5361 14.7323 11.6519
27.9732 19.3079 16.3405
25.6676 20.7768 13.8589
13.5229 17.4148 20.4465
23.202 10.5376 5.27999
29.9661 23.0169 17.2523
35.99 40.2044 36.4118
23.6428 16.6777 11.531
8.47913 17.5413 24.1364
18.7062 13.6998 14.8179
41.0997 29.1047 22.5463
45.7835 41.4341 34.95
22.7353 22.2514 22.7417
24.6298 24.3772 22.901
35.3793 30.4718 27.6028
23.6266 21.5525 18.8713
27.5071 28.8597 29.7802
22.7334 15.607 12.2637
15.1771 14.9919 12.0511
10.9483 12.8292 17.0785
14.0918 12.6703 11.2599
26.091 21.1841 17.3169
29.6259 38.239 42.7867
25.1712 15.0634 8.76806
31.5246 33.9662 34.3207
6.11258 5.7802 6.55298
10.5363 18.5378 28.107
37.723 30.5838 22.2396
16.484 21.2265 24.4759
19.97 11.3617 5.87101
26.3933 33.7383 39.3187
14.062 14.1534 17.7119
14.5585 17.8356 24.6811
56.0782 58.3411 55.8902
39.9425 26.4734 19.2342
7.44027 5.67828 6.27127
21.9704 19.5241 12.4279
7.52727 11.9513 14.4857
7.54218 7.85494 12.3459
33.8522 36.6367 32.1485
11.7587 21.2637 29.5221
18.761 17.5676 20.6699
24.8894 20.6687 18.111
17.9962 15.1038 12.2364
3.4834 2.78346 2.2892
8.40514 12.3773 16.2909
16.2236 16.2152 17.961
23.5846 28.7753 33.5227
25.7934 24.9305 19.9984
6.29485 8.96967 12.5688
17.4874 20.3206 27.4002
23.1736 23.5088 20.1156
5.38107 6.06249 11.2161
29.6983 29.0863 23.3362
8.67924 12.3469 15.502
14.2701 11.4488 9.91397
9.69291 20.0892 30.6827
25.2437 18.1659 17.074
17.8157 14.1462 12.1517
17.3968 15.6896 14.6155
30.4796 28.5331 24.6813
16.1939 19.1294 21.0304
5.25273 6.52511 11.7214
34.7624 34.7497 30.138
19.1595 28.2234 36.4236
8.7104 8.31385 9.44289
10.9148 17.847 27.031
8.14923 12.1931 20.6402
10.8344 5.61781 6.511
28.2485 25.0174 20.1096
14.8292 25.3393 39.4992
32.4511 26.7639 20.6245
16.369 17.0499 17.403
13.4644 23.3395 36.8542
16.7798 12.241 7.05055
15.7091 24.8781 32.945
26.2311 32.0291 46.1101
18.4786 11.7071 3.55063
13.959 20.5335 22.768
12.6814 16.1469 17.7214
8.10232 9.25975 13.8745
17.1965 18.8913 20.2894
13.3513 14.4103 16.555
17.6061 26.3309 36.5765
15.4398 18.6647 26.9699
34.4913 35.7678 34.4768
22.5348 28.7685 29.0014
12.232 20.9255 27.5608
9.60913 14.4211 25.2979
25.1501 24.7479 23.4243
5.91629 8.89552 13.3475
9.71491 15.7516 29.9974
29.2748 24.6928 12.9252
29.4199 51.0246 57.9314
2.66565 9.15523 22.6153
19.4702 29.8491 45.127
13.2022 7.41484 4.73202
0.882533 6.06164 18.358
29.8472 30.0185 32.1224
25.5672 44.4675 64.2219
9.43575 11.1448 29.9615
37.465 37.5146 34.6938
27.1483 41.1557 60.8371
20.9801 22.7944 32.8971
41.4376 41.4187 37.1302
1.44245 4.95757 17.2692
26.8172 30.2266 36.3107
21.6388 20.3747 23.3953
11.7531 13.9805 20.7905
32.9249 31.0006 22.2154
30.3565 41.8436 43.4485
9.646 28.9269 56.6371
23.7382 34.3636 57.2438
26.8492 25.8185 27.2058
12.709 16.0827 19.9871
14.601 19.3289 19.6778
8.46397 13.4562 21.5818
11.4438 15.8013 21.8398
6.97043 7.83199 11.7152
11.1653 16.724 17.9037
7.80275 17.5823 37.77
27.8424 32.6223 47.5327
41.3633 48.5452 48.4378
17.7561 30.3332 44.582
21.6803 31.1997 49.2409
21.9215 21.4594 14.2518
8.47589 16.1804 18.9029
13.3671 27.1926 35.2023
9.6279 26.686 53.9351
13.093 6.45213 11.3201
15.8115 14.3829 12.2943
16.1872 24.1685 27.1276
1.74416 5.17701 12.12
6.39688 6.92548 10.0111
5.96343 14.0648 28.9462
9.67078 11.2986 26.5564
25.3963 20.7632 12.5129
13.0627 19.2572 22.4629
25.7505 40.3032 52.6789
13.7762 26.2453 39.2771
5.04557 8.71912 22.4352
16.5511 18.2303 23.2447
10.3529 17.5863 29.576
17.0988 25.9926 36.3687
6.63794 6.15787 11.388
18.0436 26.4354 31.8054
7.69949 9.32893 14.9513
9.62991 15.9667 30.3154
14.3716 22.4684 30.1352
6.94744 6.04698 13.8506
12.1202 9.37259 6.58825
7.61474 7.16654 9.34374
16.4766 21.7153 20.4417
11.7773 25.3866 46.1995
9.48679 10.2203 10.8392
11.3916 18.6494 25.2597
3.63055 6.84064 18.7116
24.1106 26.7527 22.0737
20.3891 40.0699 62.0557
13.0801 28.4202 63.7693
35.1275 57.6522 80.5109
7.38234 9.85075 19.6453
3.15277 11.2856 40.504
24.7405 31.8998 47.1225
30.2392 47.9237 68.7984
23.9686 34.3544 60.2543
21.249 20.7105 15.4549
9.06374 17.9312 32.2761
16.6783 23.8059 25.0171
10.8136 26.1871 44.0173
10.5343 9.39033 13.3424
3.98601 5.65515 6.74328
3.13189 4.0251 5.31898
1.29701 4.4725 14.2488
13.364 21.8033 35.9069
6.00918 7.83332 12.4752
7.57757 9.14438 13.8357
7.81934 12.1835 13.0851
3.18261 8.18259 21.6126
9.44137 16.4255 29.7255
8.97295 5.88915 3.64565
19.3924 43.1951 68.7471
7.43381 4.06236 10.6005
16.9913 28.8854 35.4515
5.17575 5.84225 9.95966
14.9067 26.2348 37.1693
3.73663 9.5849 29.3902
15.3086 18.7211 21.8594
2.53501 7.38185 19.8796
6.13 7.26276 14.9079
16.8582 24.2299 25.5382
9.36796 24.9761 43.1298
8.20517 11.4797 21.4427
6.8471 12.6797 26.7481
14.3775 20.1489 31.1752
8.55805 11.007 11.0893
3.28635 9.21053 21.3202
19.4232 31.322 40.3196
4.54732 12.4563 28.1025
6.88259 8.0227 15.4382
8.85496 14.9848 33.8377
21.0832 35.1067 42.4501
16.7527 37.7967 70.3183
18.1255 37.6083 70.4626
19.8404 44.6956 98.9911
21.4364 21.7363 28.117
6.29152 3.96108 4.14746
1.71176 6.1903 28.1336
15.3684 16.7014 13.2499
0.507285 3.17824 18.7647
25.7901 49.2728 73.9647
4.93664 13.7965 47.6525
18.2144 25.7885 52.0533
22.9025 34.298 46.5958
12.4992 13.838 13.7139
8.58959 14.568 22.8904
13.0535 30.4998 62.0133
23.7195 33.7189 37.3232
5.30934 13.9877 29.3635
9.80907 16.6284 33.9744
13.4898 25.9226 43.6813
20.9321 39.8613 68.5384
6.04752 7.45411 21.8926
15.1207 29.2215 43.5399
10.6328 19.6691 33.8152
8.8305 16.7141 31.7106
5.32233 10.4709 28.3536
15.3026 30.4518 56.5042
13.7306 25.7014 44.5159
14.0819 23.7715 40.7126
13.0162 21.7442 32.312
3.47097 9.84945 43.6903
25.9937 31.5078 30.1239
12.0938 26.0966 38.7705
4.49304 15.1296 41.5974
9.806 15.3544 34.6884
11.6816 21.9357 31.9496
8.9936 15.2554 28.1205
6.71362 11.3159 25.3916
6.34781 8.99614 19.0133
9.35687 21.3298 42.309
15.4117 20.8747 24.8232
9.45528 24.8798 47.1876
11.6805 22.2295 40.5414
13.1327 22.2185 23.8726
2.67229 11.6761 29.4842
10.6275 19.6146 36.6062
2.42471 1.15703 5.3442
4.56732 13.3284 40.3259
23.3652 38.7042 51.2443
2.56162 7.86356 28.1957
9.45982 16.8161 35.6248
11.1834 21.5603 37.8931
10.8295 25.9736 61.6783
30.0557 51.0595 73.0177
4.72158 7.15342 12.3681
5.98881 20.1573 46.2344
4.76202 6.23001 14.5986
5.48939 8.0111 16.7548
8.72442 20.327 40.063
7.49395 12.1191 18.2565
5.01038 11.1453 28.4353
6.47671 15.3188 28.3678
5.5239 13.7892 33.9055
9.44744 14.1755 38.5676
15.5911 28.1222 37.5037
3.82427 5.51727 18.9166
18.8283 48.6474 107.45
15.371 21.8373 38.0664
14.2512 25.76 42.9603
5.81249 9.17318 10.7207
1.94279 7.39087 18.8401
4.63303 13.3881 36.388
9.71627 12.7989 19.7378
2.41858 4.26091 9.52898
1.44939 2.57587 3.01592
4.42055 14.9172 35.9128
6.48173 15.2058 45.1089
4.97761 3.61727 23.7795
18.3694 30.8028 31.0271
5.82052 13.2942 17.1856
5.8258 21.681 60.7071
9.71822 12.2286 25.9648
10.992 20.1068 22.9102
3.07477 7.44143 16.7979
11.9027 35.1495 71.8953
8.08255 12.357 27.3822
6.06968 14.7553 47.7934
18.2972 32.5488 54.1198
14.1214 36.1479 75.4837
7.79265 16.4225 59.6362
11.816 14.8748 19.3551
4.45875 9.92069 41.9777
24.0326 46.5465 61.9565
4.34095 8.99482 27.3893
8.45521 14.239 37.492
21.6547 52.2345 85.3311
14.6797 26.105 38.9544
8.2412 24.8167 59.9158
6.85524 9.84448 28.7673
17.0045 42.6117 64.8793
4.12315 11.4422 26.2637
1.05306 9.38616 41.326
10.3262 22.3267 53.7808
6.43765 4.95594 5.69116
6.35425 21.5354 54.4482
14.5901 30.7498 69.4764
12.1397 18.8399 31.5545
5.59364 14.3914 31.6513
6.48866 19.7742 68.9683
13.8265 20.9118 34.5873
10.5478 30.7503 68.0603
13.0272 23.9023 50.5833
10.519 12.639 14.0064
4.43297 9.49253 17.019
3.64146 11.6876 31.6922
5.15381 8.77256 17.7059
4.81184 19.1756 51.0143
4.51236 7.28709 31.4687
10.8888 12.6463 7.55526
6.63767 22.9169 44.2542
7.79196 21.4395 52.2643
7.02896 19.8084 69.4396
12.4972 15.9003 17.9863
4.00728 7.95948 20.3974
9.59552 22.7619 34.5624
1.66607 5.00287 16.4453
6.01545 18.7328 50.2961
9.74747 13.3553 15.1944
8.3499 30.8749 70.4996
9.51471 24.1523 60.8485
4.19377 14.2696 75.7372
18.8275 22.2272 27.9727
7.03969 10.9474 11.69
13.9041 43.7044 85.2066
1.15714 10.4512 83.4147
20.3815 35.4517 48.6137
3.26393 5.98555 18.6487
5.92979 14.595 40.3447
9.27243 20.7601 38.785
3.81464 9.09027 23.4957
3.69411 13.9855 73.2646
18.7459 33.4173 40.2757
3.63527 6.47744 18.7013
10.0295 26.3403 50.2987
7.78094 16.5803 30.3946
2.86327 6.40572 10.0249
3.20279 9.66072 30.0369
9.81787 28.4238 62.166
7.93298 27.2043 84.1756
11.1127 12.2649 15.2953
8.5067 24.2886 53.8958
6.15252 15.4444 65.3718
14.0325 21.2546 18.5752
6.62767 28.7128 72.6945
9.40774 21.4661 41.5949
4.17095 13.2036 57.2328
12.8001 20.8303 15.2706
3.07052 17.2461 42.2157
3.65019 3.88705 8.61477
2.49252 7.88863 23.5154
4.84993 11.0926 28.6913
6.76865 14.3358 20.6188
4.75792 23.6498 57.3917
2.25915 4.66012 36.6964
6.35347 10.7631 34.6905
12.4454 34.0403 69.9965
7.12806 9.84043 9.15882
0.713904 9.32089 51.4955
12.8912 32.2949 52.7024
4.42512 15.9875 54.7914
4.57999 7.75606 40.5698
8.62644 5.91704 9.78192
13.3986 43.5077 97.4841
11.6058 20.0164 31.6384
3.27981 19.6611 93.996
15.0289 19.1777 22.0589
7.07053 18.0363 35.3326
7.83373 21.1874 36.2358
6.03346 12.3304 16.0968
6.01805 30.988 81.2843
8.32628 15.1916 32.3543
2.96621 10.337 34.7029
3.06177 2.80223 18.8377
6.35682 13.9791 34.704
6.08587 12.4966 23.4241
1.99956 2.66511 21.1851
8.48399 14.597 27.2568
9.69487 30.4613 62.5196
4.33626 6.09693 11.8279
5.04595 24.0714 76.944
8.41987 16.5051 39.5797
2.70704 2.64893 12.095
4.51765 13.9141 20.2662
2.90913 17.333 42.3962
2.20909 12.1201 73.0662
13.7479 22.7396 66.8826
16.4873 40.533 74.0206
5.71699 7.03795 11.1461
1.23051 12.5211 91.1942
22.2936 38.076 44.3994
3.46215 9.59289 23.486
4.27269 8.93694 27.0036
10.8393 28.6911 56.0284
7.70308 18.8464 29.7213
2.08502 15.8829 59.971
7.07115 17.1688 41.0703
2.75977 7.03664 40.6913
6.41877 12.05 28.9167
4.32205 7.76427 10.733
2.84686 15.3107 75.4568
11.7081 20.27 29.907
7.62973 27.3277 57.3943
8.31534 24.2384 39.9446
2.46164 15.1253 59.286
8.71907 16.8157 44.2872
8.60993 24.0962 44.1829
1.95555 8.91846 53.5123
10.7813 29.5042 75.0375
10.3934 21.6363 29.656
2.05819 20.1642 94.6645
11.0695 12.5413 24.0781
5.11564 8.49114 37.0741
12.7391 32.6683 61.5646
3.75984 7.9643 37.9668
7.50843 19.0833 54.3183
8.44286 16.111 37.2441
6.64825 17.6974 30.3079
3.73746 14.1439 49.1536
10.2941 26.8296 49.2218
4.8993 17.292 31.8496
2.82187 13.2766 51.4436
5.28082 5.20915 16.1804
5.5627 12.3335 26.5187
2.19561 3.74208 7.39471
3.07566 9.15054 12.9309
1.52831 6.69833 32.669
7.63804 14.1521 14.7552
3.75532 16.0643 31.7804
3.21772 11.9252 32.44
3.23744 8.10218 27.8479
7.36598 26.2394 70.2406
5.35029 16.9405 63.326
9.02786 19.3107 31.3142
4.27117 13.0292 25.0818
2.30638 9.57765 44.8233
7.22044 16.8339 30.4842
5.50493 24.2176 87.9635
8.66032 19.8441 63.5426
9.16132 25.7933 53.8315
5.05134 7.75491 10.6665
1.04069 7.60887 29.548
4.73568 9.71373 15.7148
5.18741 33.3091 107.626
5.7816 9.17954 52.7291
8.32005 22.0729 73.5627
12.4096 28.3881 53.7572
3.89087 15.6878 51.7993
3.80716 8.11243 62.8755
12.928 26.8898 55.4381
8.78171 21.7757 37.073
3.88373 17.1901 48.0387
1.91148 9.32633 58.0771
9.19803 22.9831 67.9331
7.50712 17.8101 45.8321
6.24035 20.8052 73.8606
6.02015 10.9323 38.9525
6.66574 11.8397 30.4547
7.94367 24.7418 51.5811
5.38339 17.5769 57.5949
6.49086 13.5779 18.3017
2.39633 10.3171 37.9397
5.08844 15.8073 29.2825
2.56877 13.3538 65.6759
7.7818 12.2284 25.4725
6.32708 19.6097 50.5346
6.22162 18.8241 44.7711
3.45559 6.94411 19.9771
4.54818 18.2655 83.8156
11.7158 32.0789 66.0402
7.90821 18.796 44.5959
4.14254 10.1377 26.0539
3.7409 14.9861 40.6498
4.67652 14.116 40.7408
2.79829 9.85985 29.9123
4.3726 16.1963 46.0086
1.65268 2.79406 32.5911
6.80646 25.7985 51.6049
1.32598 6.22147 43.7961
3.76297 3.24447 35.2948
6.51 11.4224 18.4662
1.73642 4.39912 15.4285
3.91776 20.4832 90.7145
10.6734 26.4121 53.5301
6.95137 19.3005 46.757
3.63299 12.9569 35.0559
2.71446 5.55565 14.2231
0.619324 1.60073 18.7647
2.12639 3.56705 32.3298
5.49707 15.7767 30.2113
2.94121 9.49379 28.2653
2.81558 12.7114 50.6271
5.32037 6.42749 25.9921
5.58571 16.6215 69.7084
8.55144 15.1891 11.1061
1.67568 5.99757 17.0655
1.8754 5.18002 16.396
2.03404 5.7025 23.0112
5.95669 20.2709 40.3495
3.72032 9.73365 27.242
5.37268 18.3157 21.6985
5.32822 37.6875 96.3544
4.15818 4.42636 17.696
1.58756 2.46291 9.5783
1.18217 5.21427 18.7894
2.99853 17.9407 58.8863
4.39986 3.44066 12.9514
2.77028 8.29452 33.5036
4.75253 13.2487 32.7792
3.23906 15.0603 53.7012
3.68385 3.56248 32.0646
6.68355 14.5645 11.325
1.21881 10.0671 46.9257
4.76708 11.9194 32.1391
3.35174 15.6911 74.3413
8.80503 15.0497 8.81799
1.80773 13.4873 44.8606
5.33675 20.8457 39.6508
1.85456 8.7502 32.8412
3.838 16.1682 66.2601
8.8678 29.4282 82.546
4.73888 3.86447 36.3503
8.83968 33.9854 78.3675
5.14586 14.3467 43.3161
2.61134 5.4415 44.6373
7.08744 15.5089 52.6691
9.27822 33.9275 70.2692
5.1773 16.2506 55.8767
3.96466 4.22326 9.30592
4.12733 24.9897 84.6525
5.00216 9.75488 65.7682
7.49798 18.5155 39.0235
5.09577 14.5059 42.2111
5.14316 20.4603 90.9115
8.28672 16.3116 36.2736
3.83404 13.1001 29.69
4.77812 19.5528 46.4023
6.08587 27.4355 66.9798
2.90248 4.99589 12.0761
0.938144 11.9966 82.0119
8.47458 11.2114 13.6867
2.4385 14.552 65.7184
5.45243 6.71672 4.20419
1.61492 11.2997 41.3892
3.69204 6.81371 27.5754
3.74361 8.47079 36.199
5.04615 17.0992 77.4147
10.2405 20.2156 33.2857
3.8502 13.4955 37.8089
7.21306 26.3451 49.8711
3.28061 16.7065 48.2616
3.13731 18.1881 44.7259
2.08495 17.2846 105.054
7.73497 6.02547 42.858
6.04659 10.1253 31.249
6.71586 25.4601 38.5715
1.36243 2.67759 7.8346
0.962128 3.91008 19.9579
4.26499 18.2515 46.95
1.70563 4.04287 20.3741
2.11078 5.72119 31.432
4.38437 15.5919 56.376
7.34617 31.089 92.4729
7.03488 17.8431 32.4312
1.27151 11.5471 61.8283
4.97589 2.33568 13.2156
3.53279 11.1148 33.6151
3.8485 9.18851 18.3231
2.89327 11.1361 27.958
1.53329 8.90795 56.3027
6.48613 16.105 40.2474
4.05858 9.8989 9.56973
0.919404 3.09147 7.98119
1.40609 8.10554 23.9752
2.09302 6.12456 12.3935
1.25343 7.34255 17.21
1.472 8.95132 30.5785
3.74581 27.785 140.003
8.30642 6.42286 17.4989
4.34046 21.582 80.2334
7.67233 30.5258 79.8007
6.35468 19.8344 53.6336
4.26468 11.1772 26.9694
1.40249 4.02201 26.0473
4.15739 22.4973 87.2582
5.72246 8.56088 24.132
3.23395 11.9422 56.9747
7.17434 23.0215 51.0539
3.62061 15.2095 41.6737
3.32056 11.9888 20.0752
0.317554 13.8894 99.7637
5.74158 4.69973 28.1914
3.67124 6.5882 21.9195
2.67511 9.24478 53.2807
6.85129 23.4384 42.3215
0.819084 13.4966 179.405
18.1404 26.6639 7.25067
3.1902 19.5601 44.0786
4.74127 25.3869 65.2459
5.18464 31.1866 96.4926
7.30246 21.659 63.4098
3.42922 4.4619 43.9612
6.72957 25.213 49.1396
2.75786 6.69469 23.2515
2.43324 17.2903 78.1764
5.89092 10.4505 11.8925
1.06201 9.15927 35.0165
2.86621 17.7959 43.1927
1.14233 5.57844 54.1732
3.92634 10.6631 81.1062
9.38859 23.2038 81.6122
7.53701 21.935 49.6057
3.60109 12.8576 71.5928
5.29962 8.59832 28.9413
3.53402 11.4201 37.7187
4.6294 14.3715 32.6859
5.47766 41.7606 133.681
9.49837 19.2107 33.4378
1.92813 3.89132 29.2177
3.91754 10.6903 44.8214
5.67898 26.925 70.215
3.48114 6.47859 24.5437
3.08028 11.0407 34.6492
2.85325 10.4124 18.5199
1.96619 10.5418 31.9103
1.7592 4.71207 20.7154
3.97411 22.6559 69.5549
3.92382 17.4567 85.9941
5.24382 6.01569 25.2414
2.85006 3.98141 9.77001
1.3936 5.61236 29.6092
3.04599 7.99441 10.0769
1.16654 5.76723 20.3114
3.09318 14.9413 41.0983
1.88103 2.63626 20.4895
2.12351 6.8329 68.4446
7.94769 30.0021 53.6209
4.17783 13.3626 37.8748
2.244 5.06456 26.2628
3.149 20.078 73.3723
5.79558 11.1903 28.6371
3.79466 19.9421 32.4471
1.30859 7.23668 37.9565
2.43197 7.93818 29.6621
2.69924 9.14568 16.8923
0.30171 5.52845 72.6081
8.00415 28.1203 74.5099
4.80458 10.132 43.4862
3.06589 9.73781 33.7988
4.11857 26.3098 77.7096
4.39131 11.846 63.8828
4.38088 9.62064 44.1884
4.14905 9.07647 24.8641
4.23732 29.5412 99.2282
6.60447 20.6341 56.0247
3.88848 7.11904 32.9402
3.41259 10.4675 32.686
2.74328 12.0139 45.5948
3.54097 8.23495 35.8615
2.56411 12.7576 81.735
8.25624 15.5032 29.1281
2.94631 7.7466 29.385
4.84613 29.1016 93.212
6.32791 16.1013 37.0917
3.04234 20.1934 39.303
2.41621 22.0982 111.841
7.06027 13.0062 54.6264
3.62026 4.5214 19.9562
3.00982 11.4691 33.5351
2.56197 9.09835 42.5809
3.73419 18.1779 71.463
5.40352 9.25565 23.8842
2.25013 9.40289 43.9042
4.2386 20.9804 57.3594
3.13025 5.98509 30.7261
3.96771 13.4037 19.2874
1.13257 10.8595 63.5003
3.7101 11.4833 80.5279
6.856 13.0645 4.88286
1.21 18.7897 62.3339
3.65852 5.01775 29.0479
3.61968 20.4932 76.6155
4.92438 19.0055 38.81
2.49459 15.6588 107.654
7.83495 10.4675 17.2986
1.81251 4.20119 34.0329
4.16776 15.9037 51.1689
4.67663 16.6668 49.3383
4.83309 17.3032 49.9921
4.28342 13.7061 21.4254
0.747715 6.59561 56.5439
4.6576 17.0466 25.6044
1.05174 12.4702 72.3207
5.33633 8.2416 50.3777
5.81442 20.9201 32.8803
1.49964 6.93878 14.4657
1.27142 7.63356 30.6263
1.07249 3.47643 34.8746
2.97584 8.67248 40.1405
4.10916 19.8331 68.765
5.67084 21.6276 69.2716
3.36454 7.40713 44.9265
4.17753 16.9091 21.3216
0.728154 2.97633 12.2666
0.604629 10.0193 86.4265
8.13419 31.944 95.3369
5.22621 12.3501 35.8407
2.6856 12.0469 55.0433
3.79457 3.75898 23.6948
3.38382 15.3881 45.1448
2.28492 5.69325 32.7948
3.46408 18.4658 51.9468
3.57902 8.4795 16.3171
0.992665 14.547 73.754
6.02469 13.2634 31.2268
1.08382 3.7284 53.0359
4.4862 12.9845 73.9709
6.94064 28.593 36.4446
1.36426 5.33981 29.8155
2.11773 8.33554 22.4509
1.44997 6.46946 55.0683
4.46546 19.3551 54.7964
3.39639 8.49316 40.2655
3.35703 9.64888 50.072
3.79427 8.17099 7.81389
1.21 18.2535 82.704
6.33302 22.3721 43.9595
2.55945 3.15421 22.3941
2.75507 16.9921 38.7942
2.14036 3.516 11.8338
0.895677 6.65159 55.4227
4.98736 12.3075 37.1126
3.48649 13.101 40.6576
3.17309 16.83 60.5102
4.41211 17.1 34.6526
1.51026 10.3222 45.941
3.08248 7.63997 33.2331
1.31282 2.71401 40.3146
2.68921 7.66017 43.4301
3.97791 11.4072 47.1071
4.08212 10.6762 22.6582
2.79237 24.5311 67.9094
3.7746 20.5426 105.768
6.56939 9.28948 52.7268
4.92453 14.5845 15.3897
0.61383 5.67496 56.6556
4.90389 12.3811 27.8409
2.34149 14.1188 66.6834
4.45471 15.4689 104.691
9.41079 39.8646 105.914
5.12819 6.30924 31.1877
3.56895 21.3698 73.1752
4.14105 9.08554 54.0459
6.00081 33.5384 59.3266
3.67673 16.7609 63.0275
2.93022 12.1101 62.0707
3.49275 3.24852 42.1449
4.00085 7.98608 14.8304
2.01981 21.2314 68.0183
5.30854 24.6855 76.9022
3.52303 4.32133 74.6299
5.69121 6.73978 30.0419
3.32474 16.6872 60.815
3.66939 16.9005 64.5391
4.89443 10.8863 23.0494
1.69658 4.2393 27.1062
2.54626 16.3857 43.9354
2.52635 19.6993 87.9708
5.78563 16.6092 93.9721
7.4558 15.1909 12.3355
1.28774 11.3054 47.8545
3.10962 13.2292 22.4758
1.26598 6.88286 19.9718
2.09065 27.4321 132.593
7.90042 18.9041 120.873
10.169 24.5482 43.1903
2.74631 11.9514 15.8739
0.984541 3.97668 27.4879
2.36626 17.3332 84.6463
5.90073 16.5166 66.6094
3.80482 6.33197 80.5685
7.39652 29.5252 35.0697
2.28699 17.6061 60.8892
3.29797 4.78812 28.2792
1.95486 9.03494 61.3043
4.89393 23.1308 68.3587
4.13781 5.44474 42.4183
4.0176 19.3862 55.1825
3.75718 9.07991 67.9873
6.41755 20.4341 41.072
3.01429 13.3246 39.3513
2.63113 15.0127 60.4268
3.22047 12.1129 46.8522
3.34969 13.2778 57.1959
3.22139 9.11969 34.3611
2.62702 8.63982 7.82728
0.500209 6.01521 20.0522
1.29624 7.89433 31.1612
3.04115 25.7308 90.1796
4.87043 16.9362 66.7357
3.86224 6.07092 59.8091
4.458 7.42594 19.3062
1.69421 4.09878 11.2901
0.696528 5.23778 31.5362
3.03456 12.7207 47.8697
3.34031 15.554 97.2387
6.59559 21.1149 29.4895
1.18281 4.96848 24.4885
1.70943 3.39186 22.6869
1.15948 2.55482 28.4093
2.50582 10.0436 40.7289
3.37687 15.2972 53.4709
3.57448 11.4291 32.3142
2.53995 5.80225 21.8722
2.21335 18.4689 39.7206
1.35542 2.77225 47.2432
3.0408 9.4969 38.7818
2.57822 10.1787 33.0293
2.16925 5.7618 17.3526
1.65392 12.7147 61.3654
4.8086 13.7021 43.8226
2.39237 4.88476 9.0339
1.02086 9.24797 34.7765
2.50096 14.7147 46.0904
2.14572 7.74764 56.8417
3.39779 9.10223 70.6818
4.93534 20.1611 38.9851
2.22894 5.35211 40.6358
3.36625 16.2409 25.8498
1.82296 8.86535 36.7024
1.99847 10.7279 32.1027
1.74482 9.41608 30.2312
1.76895 23.0505 121.219
7.98303 6.85781 27.2105
2.12368 5.04538 27.9225
2.24056 11.0922 21.8014
1.75541 9.52699 47.7734
2.66987 5.0193 19.2931
1.39506 4.88556 46.8868
4.45363 21.3412 51.186
2.81378 9.57246 20.5465
0.939355 1.48019 19.8326
1.83806 7.64006 35.4191
1.82294 4.91599 28.7837
2.02829 13.538 36.2795
2.10054 13.0392 19.7702
1.05797 5.33609 43.0976
3.1142 14.7706 46.1771
2.42393 4.88536 60.5903
4.78306 12.6116 59.2391
4.00142 11.0244 23.6049
1.14559 3.30791 40.9287
3.00878 20.442 33.237
1.85756 4.15057 14.0723
0.975926 7.55957 47.4733
3.41663 4.64076 29.9258
2.61534 9.26036 16.3922
1.12587 11.2598 57.4854
3.79399 5.67103 23.5864
1.7553 11.6702 56.8839
4.36372 7.68729 7.9213
0.623305 7.07173 30.8978
1.68233 10.7463 81.4741
5.4828 10.2892 25.5953
2.12383 12.0994 34.2997
1.86601 5.25411 33.4517
2.77368 16.0145 92.4247
5.82087 23.113 58.5771
3.5213 9.10176 14.724
1.09658 9.77411 114.715
8.59927 21.4466 54.8839
3.79763 14.8761 33.3245
2.48692 7.85541 15.3086
1.42661 12.5868 46.7277
2.30431 13.5327 67.5874
4.26473 7.85591 21.2367
1.79166 8.55923 51.595
3.18636 13.5541 36.0278
2.56643 15.4231 75.1113
4.96966 11.2052 20.6355
1.15763 9.01517 32.5924
1.63392 3.51057 27.917
2.43873 12.0711 37.2966
1.84282 3.31383 25.0264
1.70889 8.61818 42.3775
2.38271 4.5639 20.5191
1.59112 8.68802 34.8553
1.94581 7.06007 44.3333
3.18155 19.2982 37.5511
1.98345 3.83148 30.347
2.15428 16.0904 52.8113
3.33467 13.4482 76.1495
4.3433 17.3254 58.576
3.87806 8.27565 28.9901
1.63471 7.52391 16.658
1.07763 9.97268 38.3218
2.19297 6.50818 47.5048
2.70327 13.377 32.5017
2.3292 13.389 88.3348
6.13486 28.1142 55.4383
3.00734 3.16603 34.3665
1.80068 1.04526 28.5755
1.89918 9.84426 30.7717
1.95765 6.50007 36.8905
2.62148 3.60854 28.2505
2.61015 20.6943 44.5085
2.1176 1.51476 25.4812
1.35685 5.78116 8.28176
0.628633 11.851 33.6836
2.3366 3.73139 45.6588
3.28501 19.685 39.9166
2.6621 8.54572 22.6957
1.29358 6.0195 52.1153
3.38079 6.84081 26.8387
1.79029 11.2958 50.2074
3.57698 6.80809 12.7891
0.870879 7.69954 64.4401
4.05774 16.4588 51.2961
3.14741 9.95026 51.0605
2.94143 18.4499 113.481
7.89252 17.002 29.984
1.41519 8.17177 91.2222
5.90448 20.53 28.4207
1.34617 2.35446 30.3206
1.70592 11.73 75.4506
4.51405 13.7297 40.9898
2.87813 30.5849 48.8986
2.77274 11.3134 52.3925
3.82832 11.5101 32.7942
2.25628 17.458 51.8877
2.81589 11.4819 104.313
6.59085 10.8335 38.6376
2.65872 8.60842 30.8207
2.20234 13.0813 22.1803
1.59275 4.58601 12.9596
0.779316 2.91625 16.0261
1.03487 8.08466 22.0189
1.30259 4.08689 21.0557
1.20873 15.3196 48.0859
3.16539 2.37699 26.3903
2.05936 6.9664 32.1222
2.15369 3.22439 28.4209
1.89102 10.2392 23.3621
1.79037 6.58091 30.4006
1.92486 5.12831 22.1027
1.79756 3.31512 23.947
1.5061 8.44983 26.6778
1.40342 14.3016 60.7436
4.1904 5.41758 32.3614
2.58543 13.8726 44.5468
2.74041 7.00848 18.5123
1.29484 1.39599 11.4147
0.889069 5.3208 21.6846
1.44312 5.17571 13.6633
0.623748 3.14616 49.167
2.77708 11.1636 36.363
2.13741 12.3032 89.1919
6.01515 20.6848 56.5116
3.84857 11.0187 48.057
2.99085 16.6914 49.2269
3.59275 4.89176 33.5816
2.3437 12.4616 32.7406
2.22618 12.965 33.3856
1.61193 4.47093 47.9987
2.91845 12.6715 7.6588
0.726809 7.54324 28.9487
2.48713 11.302 19.4662
1.01372 12.9872 70.428
3.85482 18.5328 117.68
7.83752 16.6244 29.423
1.62948 6.64408 23.7721
1.82132 1.80278 42.9793
3.18201 8.10999 36.011
2.29012 12.7772 47.7053
3.18574 8.57467 51.1572
3.59132 11.1136 37.0097
2.64334 17.5707 41.9288
2.78182 4.78749 12.0256
0.705519 5.47263 96.6049
5.95866 26.9189 51.11
3.30991 9.45184 26.7236
1.14258 0 0