# pn-170911/RbIIR-58-USNO-1280-1959.psd
# Power spectrum* (dif=0,1,2) (really just |FT|^2)
# NOTE: only the first half! (symmetric)
# weeks: 1280-1959
# 8 clock-days, 0 excluded
# PSD: 1441
270.661 0.0392894 0.0201312
18427.6 0.4106 0.0176498
166713 3.3716 0.0226619
23375.9 0.634218 0.0227069
40993.3 2.513 0.0168183
6456.43 0.57092 0.0144433
5266.44 0.475574 0.0187965
3666.07 0.527828 0.0193161
2473.22 0.278074 0.0188429
1661.36 0.219993 0.0181499
1267.64 0.347099 0.0219031
1663.45 0.591478 0.0198014
1644.47 0.774038 0.0152704
1506.31 0.678429 0.0120955
874.908 0.541975 0.0163662
1362.89 1.08955 0.0264086
743.227 0.522594 0.0228846
363.302 0.535873 0.0182015
602.988 0.547664 0.0173532
641.148 0.440139 0.0196729
793.427 1.5813 0.0204545
572.063 0.940147 0.0195181
336.801 0.604098 0.0179851
419.07 0.723507 0.0183678
441.379 1.03532 0.0247243
155.811 0.285012 0.0144476
335.608 0.663371 0.0214498
358.855 1.22437 0.0275296
224.138 0.66433 0.030009
177.135 0.521966 0.0245456
209.098 0.689724 0.0124632
224.627 0.532575 0.0164865
254.249 0.843717 0.0218362
246.514 0.927402 0.0292838
247.753 1.04205 0.0292609
229.712 1.16729 0.0303709
231.723 1.44473 0.0434925
469.787 2.32806 0.054682
248.565 1.96731 0.0378848
302.923 1.79093 0.0316562
236.072 1.40109 0.0310781
276.893 1.47878 0.0310139
157.13 1.2427 0.0307466
137.272 0.922397 0.0280606
214.307 1.73951 0.0372827
174.049 1.40547 0.0298293
160.313 1.02155 0.0332074
187.948 1.84544 0.0462506
101.501 1.0044 0.0278138
145.947 1.45618 0.0261326
107.31 1.09838 0.0468283
211.733 2.19988 0.0654008
113.113 1.02431 0.0320179
247.657 2.72206 0.069466
76.7145 0.980127 0.0389557
140.336 2.04108 0.0555479
253.286 3.07349 0.0476077
235.816 3.2509 0.0872215
191.972 2.33365 0.0541061
193.497 2.48533 0.0424912
189.993 3.60333 0.0972072
287.473 4.34357 0.0777731
219.464 3.32243 0.0982379
74.5507 0.909036 0.0352479
126.92 2.2659 0.0646573
142.719 2.51396 0.0715185
80.9261 1.83095 0.0875028
200.671 3.44503 0.0864234
176.178 3.45043 0.0672231
191.691 4.09698 0.123093
112.466 2.35346 0.0831893
131.525 3.33771 0.136536
301.406 6.4633 0.194203
65.0247 2.03093 0.0902411
140.534 2.9738 0.0949658
208.104 5.15548 0.128707
126.943 3.8864 0.127271
241.685 6.37988 0.211556
129.866 3.72655 0.156028
152.717 3.65022 0.115511
94.1111 2.98874 0.0959323
145.207 3.94229 0.150649
67.1306 1.77531 0.0418478
166.953 4.668 0.228381
154.648 4.58005 0.198682
182.587 5.42253 0.252782
159.785 4.90262 0.186508
140.066 4.54449 0.156243
165.217 5.2493 0.260485
111.911 3.37225 0.141682
109.297 4.12576 0.153347
117.261 4.04232 0.137052
111.757 5.48177 0.273274
265.39 9.77009 0.408183
122.969 4.15398 0.16171
188.322 8.46072 0.394232
114.385 3.86438 0.18956
156.693 6.0613 0.294517
111.072 5.22778 0.240894
80.7745 3.77103 0.172635
128.461 6.4103 0.338773
95.5366 3.83004 0.215896
127.122 5.85032 0.311064
110.083 5.09915 0.297138
88.5227 5.49305 0.35755
184.307 8.53581 0.525454
88.1434 3.93313 0.232592
180.311 8.76188 0.577734
86.148 5.12673 0.275517
174.953 9.22646 0.641266
138.958 7.63131 0.396577
111.959 6.41734 0.461465
155.558 8.93804 0.617239
105.041 6.46023 0.461848
181.603 10.4581 0.776495
142.513 8.51132 0.500676
71.3348 4.42668 0.372794
110.715 6.71888 0.527124
155.515 9.32614 0.735977
112.912 7.16123 0.528436
40.866 2.9922 0.306089
80.9665 5.22504 0.427741
83.4337 6.47428 0.466065
113.991 8.15134 0.606674
102.907 7.45208 0.550592
66.0456 4.37677 0.369394
71.2946 5.38819 0.310196
151.471 11.9268 0.959975
115.407 8.66574 0.715525
149.689 10.9098 0.771533
60.8165 5.47874 0.475775
67.6206 5.32649 0.462735
84.5769 6.59773 0.515027
86.3967 8.36598 0.784627
124.255 9.43725 0.753127
137.593 10.5213 0.903786
41.0116 3.44582 0.267465
60.9899 5.49904 0.563409
120.105 12.8379 1.29995
136.075 11.8246 1.10231
130.588 12.7963 1.36673
115.63 10.6712 0.919015
62.057 5.8093 0.59721
109.098 9.2705 1.00452
151.465 12.3237 1.23366
139.208 11.957 1.08327
165.925 15.4711 1.53014
138.416 12.4876 1.1785
153.751 16.9315 1.62592
95.284 10.1344 1.31454
88.0192 8.38118 0.751868
207.093 23.4343 2.70329
102.622 10.725 1.26403
89.7598 9.14421 1.04763
116.017 12.6322 1.49451
98.9077 9.65253 1.11967
123.836 15.1307 1.68364
57.9558 7.79827 1.03782
141.943 16.546 1.97139
159.106 18.8334 2.15017
79.6842 10.8295 1.48258
109.664 14.2433 1.89782
120.765 13.9252 1.52466
61.0449 8.78634 1.12521
130.766 15.292 2.01203
101.232 11.845 1.47012
112.403 15.3033 2.17359
118.871 14.1213 2.10083
114.342 17.0016 2.39383
81.1511 8.12367 1.06632
89.2405 12.1393 1.73028
98.0608 14.2039 1.99828
77.8087 11.9222 1.89797
80.9873 10.6377 1.63625
93.5708 14.26 2.38452
58.9119 8.26204 1.1033
88.9783 14.0859 1.97085
76.0249 11.2352 1.59377
191.666 30.2987 4.75708
187.081 24.3269 3.43692
64.9572 9.94095 1.56486
105.692 15.5222 2.52014
27.093 4.78742 0.922471
77.8212 12.6225 2.02965
64.9148 9.98395 1.63827
98.6039 19.9395 3.3727
73.874 9.27857 1.40124
67.422 11.1653 2.0374
111.964 17.8128 2.79818
57.7282 9.74091 1.63067
86.0855 11.8859 1.71154
166.526 30.5695 5.48997
92.494 15.9823 3.12164
91.2939 15.8927 2.81194
46.934 9.10786 2.16471
77.4543 11.7958 1.89161
56.0632 7.29135 1.02673
104.652 17.3159 3.24976
88.0557 18.1244 3.71323
76.0511 10.8733 1.62283
59.0618 13.0415 2.93212
117.886 20.2807 3.80156
54.2833 13.4147 3.17954
180.211 32.0898 5.6762
75.3784 14.5328 2.99376
102.498 20.5364 3.91935
55.6977 11.9855 2.6349
112.437 17.263 3.21341
96.3098 19.7043 4.56236
82.7456 14.8471 2.78223
74.2563 16.7467 3.74041
51.3464 9.64349 1.99535
32.7033 8.26279 1.91747
58.7952 13.5837 2.97122
37.8151 9.14104 2.20974
77.9989 17.1617 3.92452
155.595 31.2772 6.60027
63.2582 12.4679 2.87595
92.7273 19.0622 4.35429
100.67 20.7913 4.47725
63.0837 14.1995 3.27104
42.1426 7.95095 1.61616
61.6964 14.5937 3.44836
88.5 19.3328 4.08917
44.1793 9.81754 2.35845
56.9042 13.87 3.28385
47.5943 12.7033 3.49297
73.4565 18.1834 4.15494
82.6491 19.3152 4.66173
75.3228 20.7679 5.42221
55.2155 14.8321 3.86673
80.0207 19.7666 4.77203
51.6099 12.0423 2.89946
79.7134 20.5622 5.23558
97.5321 24.7018 6.11175
86.2478 21.9909 5.30442
64.687 15.323 3.52346
37.9764 10.8085 2.84884
53.2591 14.9394 4.19345
66.6854 17.8426 5.2232
86.7251 21.8425 5.37154
43.2519 11.0601 2.92784
65.0869 18.2326 4.60852
57.2141 17.6017 5.52343
79.91 22.4886 6.86866
141.433 39.7758 11.081
133.187 37.2756 10.4923
53.2594 13.6372 3.76957
37.1919 10.5233 2.89698
70.6238 22.3793 7.3758
73.8819 19.9096 5.22589
86.8386 26.8465 8.38758
73.7111 18.0654 4.82989
64.5428 16.9669 4.64817
52.5793 14.735 4.17813
57.3849 16.7549 4.84037
38.5812 11.7437 4.23002
116.351 35.028 10.4512
61.1778 17.3593 4.96201
103.772 33.8313 10.9284
42.573 16.5096 6.09789
43.2866 10.8834 2.91346
106.025 31.9008 9.82195
53.2816 19.9386 7.0558
83.7649 29.0731 10.322
76.4113 19.5687 5.86677
78.5175 25.5711 8.34804
54.76 18.6195 6.6392
73.4945 28.1381 10.455
82.1904 25.4864 7.49372
53.3283 18.168 6.12567
77.3314 24.074 7.65731
81.9032 25.643 8.53825
66.2612 22.9991 7.85818
75.9232 26.8273 9.90636
43.6644 15.3853 5.24455
65.2687 24.7334 9.4605
60.0561 20.452 7.53972
121.894 38.328 12.3559
64.7298 21.1054 6.85331
22.8611 6.83876 2.25796
107.948 38.6525 14.0299
30.0514 12.0855 4.89507
100.999 36.0739 12.9123
75.3491 27.8446 10.6657
84.4712 30.7247 11.2366
51.6372 21.4522 9.36441
53.3255 22.1113 8.60077
52.1434 17.9719 6.36151
33.3843 11.624 3.79717
57.2494 23.2474 9.03906
66.9859 26.1693 10.9165
39.8262 16.5405 7.4358
50.2065 21.2247 9.55622
54.7331 19.8187 7.6147
48.1291 19.3759 7.80532
81.8702 29.9203 10.48
55.0476 22.7863 9.69211
57.2706 23.7957 9.14363
40.7024 16.6613 6.85243
89.9835 37.906 15.5014
57.4381 21.5783 8.75426
50.9037 18.2686 6.9064
35.5799 15.7739 6.75464
31.1038 14.3842 6.56386
49.4587 22.3346 10.1468
29.8608 11.8134 5.26364
63.1178 27.8753 12.9954
61.5644 25.0332 10.3586
59.7754 22.1863 7.93496
53.5627 25.3587 11.4891
27.775 13.1982 6.69498
47.9908 17.8758 7.15224
39.7645 19.8359 9.79064
65.0117 28.4835 12.6854
56.789 25.4649 11.6549
25.3569 11.3763 5.43051
52.5753 25.4265 12.8453
42.7476 21.6863 12.1264
52.8462 23.2783 10.1414
65.6743 30.6747 14.2009
84.8189 36.4253 15.3521
29.3055 15.8642 8.78479
41.0153 20.1311 10.0855
58.417 22.5316 8.59708
39.2139 19.7081 9.82322
73.2228 38.3445 19.6206
60.4176 24.499 9.00126
46.6575 21.6354 10.1962
43.4694 20.3529 9.83983
46.3217 24.9891 11.956
58.1219 27.9333 13.1779
28.7764 11.982 4.45658
43.1019 27.0094 15.874
55.6382 26.1432 12.2673
48.6619 30.9102 17.4394
40.3312 18.9889 10.703
63.5306 27.7054 12.0158
52.4146 36.1717 22.0576
27.9324 11.0212 5.37479
50.5753 28.6858 15.3826
42.5352 20.99 10.7635
61.234 34.1519 20.0992
71.0265 32.947 14.8078
39.873 22.6296 13.1753
28.9746 17.0822 10.2735
34.0445 19.539 11.8305
39.6916 18.6489 9.96558
54.4122 31.0664 16.9204
34.5754 15.1775 7.60766
51.1907 27.1842 13.5156
30.3916 19.7197 12.6586
50.2914 24.2328 13.4298
38.7053 20.0666 9.42724
35.3544 22.3155 13.2986
33.4503 20.4928 13.0254
44.9466 21.2958 10.8412
51.0014 28.6835 14.8631
43.2541 28.3107 18.0564
46.9072 24.2694 12.7777
59.8811 40.6135 27.3199
88.4023 45.8682 21.6319
49.1048 29.0532 16.1546
15.6188 13.4419 10.2753
22.7753 14.7865 10.5686
36.0015 18.8417 11.2515
29.3089 18.2603 12.5837
42.2234 26.0144 14.2823
29.5947 18.5343 12.0007
35.505 22.7726 14.9654
23.5602 10.6862 5.27276
42.6818 27.1669 16.1247
48.4108 30.1813 17.4183
37.6598 30.0451 20.6726
34.7625 23.2813 17.2087
26.8583 16.5807 12.4864
75.6287 42.3016 23.938
30.336 20.1497 13.9593
43.4322 26.2418 15.7388
30.4997 22.9441 18.0092
56.3308 32.2917 18.2151
25.2456 12.6227 7.22368
34.2304 22.6723 16.0371
33.9457 23.0453 15.7819
44.7373 26.5415 16.3432
42.6521 29.9989 19.6955
30.9135 22.7804 16.3077
36.2515 24.1631 17.0554
26.3592 14.0883 9.24711
31.4423 18.1244 9.99262
28.1921 21.8264 16.1791
19.8868 10.5095 7.09999
28.2624 21.0964 15.6369
30.6556 24.701 20.2394
45.8624 27.9417 17.7423
39.2268 22.7255 13.645
22.4056 16.0366 11.8465
37.191 25.0431 17.1927
36.2232 23.1502 15.4012
25.6978 17.8125 13.7248
60.4343 43.5087 28.721
24.3848 20.8949 17.4338
40.0329 26.1534 16.3058
24.683 26.2813 25.4932
25.9016 13.4545 10.6428
73.0892 49.0281 31.1954
20.5913 15.4498 14.3817
77.838 59.3625 41.156
34.5216 18.8665 11.6936
35.021 27.9828 21.1493
30.6361 26.5861 21.4673
33.052 28.5846 24.2121
16.9106 10.4108 9.22928
34.5438 26.0033 19.5905
26.947 17.7017 11.868
28.3695 23.8972 20.0745
21.7686 14.8273 13.0769
51.1506 39.5777 30.9461
55.2496 37.0137 24.6414
17.3262 15.2676 13.5585
15.9756 10.3432 8.28101
38.1441 31.6697 26.6731
20.2824 11.0012 6.91509
41.0067 29.7875 19.5141
27.5258 20.2135 12.4909
31.8832 31.1286 28.3279
26.8181 20.6304 18.5616
26.4875 19.6561 16.9721
45.5975 37.7374 28.128
22.2197 18.7743 18.6649
35.7526 22.8471 14.8062
26.3768 23.3303 17.7496
33.4249 29.4483 24.3594
24.9329 21.3785 18.374
32.0189 30.5037 26.7885
25.432 22.4735 24.071
40.3913 23.7277 14.9592
32.8811 28.8377 23.3262
34.3891 35.7967 32.8976
39.8435 30.6386 25.1825
27.5783 19.0567 14.7363
28.1295 20.6499 15.3513
14.2522 14.0136 13.4068
23.8447 22.2498 22.8155
29.2765 22.1823 18.9724
36.444 30.0283 24.2844
29.7718 23.3642 17.8472
11.9323 8.3663 7.62642
33.8305 32.8238 32.4248
31.8115 24.8882 22.5354
39.8496 29.5815 21.0914
15.2212 16.7075 19.5773
51.7979 43.2844 34.546
21.5334 17.5749 13.6718
20.1877 18.756 15.9133
28.8607 27.8388 26.118
32.8655 34.9277 37.5382
34.2342 22.4608 16.5016
26.3773 21.3106 16.1523
32.0452 31.8196 29.0812
37.3949 39.0453 33.1552
15.334 15.501 17.3272
35.7386 29.9705 22.2537
25.5066 27.2263 24.9419
10.339 17.0506 23.4814
25.2612 27.4814 31.7438
36.2053 32.6654 30.67
14.964 12.6072 13.0755
21.8853 23.496 24.8652
17.0958 11.7565 10.2906
23.5472 22.2893 20.9887
30.5315 30.8383 30.6644
33.6796 30.265 30.5314
24.404 21.4349 18.8245
20.0501 20.8571 20.3133
14.2489 15.9756 20.1156
27.8173 25.4023 25.5494
29.4265 22.6721 16.3548
15.1351 17.5996 18.5998
19.1357 24.2546 29.3669
37.1795 28.1381 18.5614
18.8895 23.1736 25.9305
33.8877 35.3754 33.1898
11.395 10.3278 12.3094
26.573 28.4421 29.8851
35.4535 39.283 39.9223
28.3914 29.471 28.9935
14.3293 13.5712 17.5807
23.724 21.0078 17.8095
8.80624 8.31704 9.35827
26.5984 32.7982 39.1116
23.3345 22.754 26.018
30.6932 25.1374 22.4241
36.4356 36.526 32.699
7.59977 9.03689 16.793
36.4278 32.0332 25.5433
20.3382 19.9021 18.2904
19.4589 23.465 26.1068
29.1501 31.6419 31.2524
19.0053 21.4381 27.4925
25.0464 23.1667 22.2936
40.7046 45.084 43.7335
24.5701 25.2235 21.5966
8.06213 16.1016 23.7936
11.9309 11.3809 16.5147
19.1371 20.1772 22.8365
32.795 32.7614 33.2574
34.6952 34.6458 30.8377
22.8011 29.3635 35.489
14.235 18.3683 22.5286
10.9798 15.0091 22.0359
19.6301 19.5846 21.2077
21.4613 26.8003 33.4806
16.366 20.5862 31.1712
18.381 15.2453 17.0282
20.3108 19.909 21.4986
33.6953 32.3356 26.9161
14.7862 15.0763 16.3046
30.0772 37.3955 38.035
9.38083 15.1353 23.4558
29.8712 41.9502 56.9104
23.0815 20.8825 21.1193
29.4331 41.2798 49.5798
10.1396 10.3218 19.1575
29.2585 30.1702 32.2201
17.1362 15.0839 14.9913
12.9661 17.0705 25.6405
24.0864 23.8239 27.0276
24.5653 25.9033 29.244
35.5028 42.0101 44.2967
20.0417 20.8644 21.7394
30.3936 38.5902 43.0861
21.4902 28.5083 37.7205
25.6763 26.4672 29.9903
20.5589 24.675 29.0226
21.6448 25.5506 25.8291
13.8447 20.1815 25.8145
12.453 18.7635 27.4457
15.4705 15.7752 21.3618
24.9206 29.2321 32.5524
19.5465 27.3785 38.2378
30.9587 33.0062 34.2493
11.1107 15.2617 22.3524
17.6662 21.575 25.0943
15.0748 22.8665 34.2103
22.6222 25.9536 30.9626
18.5617 19.4283 20.1803
20.6141 31.0841 45.8087
20.4252 24.0164 28.157
13.6434 12.9235 14.3218
15.3987 21.0168 27.8502
28.2836 36.9404 44.4277
11.0535 17.0732 31.0467
30.1706 36.565 39.4254
8.63196 8.12704 12.9491
24.7841 40.8466 58.058
21.8652 27.2686 37.7557
13.8038 14.7396 19.0347
11.3008 15.5444 23.7483
12.773 17.725 23.2024
16.6284 24.9272 46.0989
35.4513 38.524 41.2014
12.5282 14.595 21.0006
24.6596 33.3796 41.2102
17.1922 24.4236 35.7983
15.8842 18.3199 28.8694
21.4958 24.9554 28.8433
19.114 23.0802 29.9586
22.6042 28.2587 33.0045
27.5522 43.4901 64.092
32.9841 36.4292 37.4978
10.8221 16.5883 28.2784
21.4254 28.9507 39.8112
31.2579 41.2755 50.0213
12.3298 17.9878 25.0729
13.0931 23.2876 34.0161
5.46305 9.00518 23.5991
25.4342 33.3544 43.8137
13.9922 16.4593 28.4986
21.4328 27.2608 30.8005
14.2895 25.9086 46.9768
28.4596 31.6273 35.5207
17.1094 23.4127 34.563
22.0583 26.5285 32.5929
20.1943 23.2476 21.1967
9.12283 11.7078 13.707
15.8517 27.1507 35.9143
17.4648 32.833 54.2399
16.3108 21.5183 34.1942
16.6836 17.3196 16.5979
10.7234 21.7497 37.711
9.92816 12.7053 17.4279
11.1723 20.558 34.9461
19.8795 35.1985 58.8519
13.9768 17.4618 33.5787
18.3573 20.9961 26.7809
14.3138 19.7679 30.8078
16.1925 20.0952 30.439
19.4228 26.9799 41.1966
25.4337 29.0253 33.2927
25.1348 37.6313 51.3245
33.6344 56.5067 85.8722
25.2066 36.3989 54.2484
23.7706 37.7598 59.8073
16.1912 18.0981 27.792
25.6929 38.4928 48.3714
16.6522 26.2062 39.1705
19.5834 35.2527 58.1063
15.8318 20.3104 40.9317
26.6161 34.4264 50.7607
32.5525 46.2875 56.0887
17.4398 26.3696 39.8161
10.3171 12.5396 17.175
10.0498 15.7511 20.4212
10.2644 20.7703 35.151
13.7902 26.9699 46.3939
9.44196 12.8021 27.7005
12.3146 16.8831 29.1972
13.8374 16.1785 18.6467
15.6122 26.9032 43.1902
16.0958 26.1178 43.4052
15.6435 21.5615 32.9925
16.9237 23.5581 28.2933
11.6641 15.087 16.5458
9.6005 19.9728 33.8454
22.2549 42.5146 74.9459
16.983 24.2359 41.3989
18.5239 21.105 25.4452
15.3829 27.3706 39.5875
13.9505 27.1598 47.9581
13.1399 17.1216 23.4933
9.94808 17.951 28.0193
12.1115 20.8323 34.2849
14.6443 27.5906 47.295
14.5048 26.2077 45.4384
11.5958 19.5862 40.6652
21.6562 29.8943 42.6212
13.3526 24.6268 57.1602
32.6063 45.5339 54.1788
16.4316 29.6721 44.7061
13.6737 20.4509 27.8158
22.5941 46.9001 76.2449
14.6082 31.0716 63.1695
16.0667 23.1658 42.6804
15.4654 22.9129 34.337
18.6019 36.248 62.7476
17.2617 29.7137 42.047
5.99448 8.74923 19.3805
7.36455 12.8783 25.695
15.4691 32.8591 58.859
11.9991 20.3218 46.3012
19.95 31.425 48.2892
10.7155 16.9354 34.2267
12.2913 19.3561 31.4651
10.2466 17.9003 29.5581
5.79312 10.536 31.1891
13.6887 15.8606 26.5249
28.7876 59.077 102.771
17.1349 19.4377 31.1994
19.4579 27.6806 32.212
9.19239 21.1054 46.5025
15.4313 20.3209 23.2623
7.55952 16.708 34.0532
12.1966 24.0974 47.7398
17.6463 25.7863 38.3935
10.1435 17.3886 30.282
8.30316 14.8704 25.7492
9.22061 16.0222 33.9005
17.3332 29.7558 41.5003
6.76175 11.8175 22.712
12.2756 22.4958 28.6006
5.299 16.2013 38.8263
11.4957 17.3066 27.7472
9.0687 15.9522 23.6734
6.51764 16.4755 45.3639
25.6363 46.7412 69.9628
15.0915 23.74 31.8877
10.0307 26.1249 55.5009
16.9241 27.5192 42.7284
9.06834 13.6406 24.4396
10.0936 18.9556 36.0417
8.11917 18.5519 42.4433
15.405 28.5646 47.1683
12.6589 18.6855 27.5448
4.14232 12.4541 35.0384
14.6532 23.4723 32.3121
10.396 25.255 40.7879
5.4153 14.0705 36.5037
10.5949 25.8018 58.8431
15.1868 25.8637 45.8489
10.2183 20.1946 49.201
12.6875 13.7212 16.1196
4.5459 11.4516 35.0692
16.0492 28.907 52.6494
7.65297 8.63601 26.3097
21.684 35.5219 45.3642
6.3413 17.9929 42.7778
11.7351 17.6157 31.6039
9.85059 19.7765 41.5217
10.0306 12.2248 20.3811
9.66271 16.2008 21.6366
7.75607 20.0332 41.2173
11.763 22.045 33.6138
8.3224 17.0406 33.2818
9.34647 25.7669 61.1324
13.1466 21.0822 43.4746
15.568 22.6535 28.273
11.4891 35.9643 80.0521
13.0885 22.5986 43.1611
11.8114 29.0255 71
14.9071 21.6794 29.3747
8.07431 18.6885 47.6029
16.9773 30.1265 50.116
15.17 40.1653 86.7241
14.5599 17.95 29.1936
9.38482 22.0351 43.8247
6.13256 12.6334 35.1694
13.2938 23.273 37.6692
6.06237 11.9863 31.6064
6.21651 5.44747 11.5179
5.01034 9.55283 29.3813
16.8692 30.8662 49.6999
10.7398 21.9981 49.8902
8.26791 9.51048 18.8688
13.5585 25.1159 39.3098
9.6207 15.407 23.478
9.95453 23.8644 46.2608
8.98532 18.2197 36.1702
14.2174 30.1885 46.6991
8.57269 24.8154 50.9278
10.6587 26.24 52.3613
6.55253 18.3907 59.182
10.5908 20.2254 49.3717
14.8235 30.3937 60.0142
13.2422 28.3078 55.4479
9.24881 13.1556 25.2858
7.9517 16.052 31.5868
9.82407 21.787 37.1572
7.28322 19.4139 48.8776
13.901 29.0317 50.6299
7.21028 13.4336 29.7875
9.95308 25.2469 50.2166
6.01767 13.46 38.5431
7.78534 10.0887 28.071
11.6847 20.0536 26.2832
11.4704 30.3207 50.319
6.99073 22.7156 57.829
11.3795 25.8885 60.679
11.341 23.535 61.3374
16.562 30.0027 54.1531
11.5635 25.5884 56.7361
13.9441 23.9853 36.545
6.55084 15.5902 35.5759
8.80405 21.4149 60.4981
12.0014 19.6121 36.3067
10.3787 23.2107 45.1087
8.58047 21.5222 50.5799
8.83757 16.5661 39.8623
4.5326 10.5538 41.4503
13.0456 19.626 24.8825
6.81287 14.9935 29.8018
7.90444 18.5206 31.645
4.98397 14.5064 34.6523
6.38866 15.7081 44.0303
7.84634 9.2224 10.2573
3.46775 13.6652 40.2279
12.8614 33.9145 67.4628
6.9506 18.5588 62.7445
12.1614 17.2469 24.2783
5.5186 12.4815 25.7478
8.79199 19.8259 35.387
5.65036 16.487 40.5928
5.59648 11.1051 29.2694
5.19051 9.76501 25.9301
8.02556 22.2758 57.8873
7.92148 9.13446 15.2874
6.02517 17.614 49.3948
11.366 27.0961 65.7476
12.4853 18.8912 33.3004
8.02566 18.8401 56.0996
15.7733 25.1651 31.5559
7.3159 20.2724 37.6085
5.92681 17.7275 44.0857
9.68914 24.355 58.4339
4.80328 8.57067 36.8968
12.8337 28.0948 54.8081
10.9244 23.8343 44.0127
6.07819 15.9688 41.936
7.32336 19.2125 40.4376
5.27318 11.2185 42.8694
10.0662 14.8719 17.1958
6.33031 16.8593 38.0668
8.51509 24.2869 55.0817
11.2659 27.8633 57.2634
7.20812 17.7466 47.3258
8.11478 16.8736 35.0281
5.52334 11.9659 28.2012
7.83446 21.5455 43.073
7.4534 28.0637 82.623
12.4124 18.2085 31.8044
6.5116 14.7307 27.237
2.75001 3.41411 10.3533
3.52357 9.41267 15.776
5.23206 19.9897 48.1431
5.64517 12.0701 31.8288
5.32936 11.3083 31.9049
7.24727 17.6739 44.7219
6.74824 17.0084 44.4719
7.94022 17.812 40.4442
3.63528 6.05494 20.1751
6.95133 18.143 50.6863
8.57064 16.0695 36.6815
10.0234 22.7456 37.456
6.67498 27.1553 85.6342
11.548 17.2974 31.5367
6.35646 15.6244 38.7877
7.4246 20.738 49.0411
5.27909 8.53072 26.7177
6.07879 13.7599 34.059
7.80878 22.961 56.1957
7.96561 18.3404 44.0738
9.02156 20.3092 52.0522
9.90131 18.584 30.7933
4.68995 16.5056 53.1059
6.48153 9.7968 30.5142
7.12366 11.5666 13.2922
5.73152 19.3074 43.338
6.48773 15.6195 33.4967
6.55501 18.8476 40.5657
4.24919 10.6341 32.872
8.18877 23.2369 49.7783
9.33914 27.9207 57.5305
5.80149 23.0164 76.2451
5.66685 9.46881 52.016
10.1857 14.7034 32.5617
9.5312 21.6871 53.8633
12.4872 33.7067 62.4523
7.00339 21.9552 58.447
6.51486 12.2716 24.4123
3.273 10.6865 37.2582
5.09216 9.01399 24.4866
5.44016 16.641 38.4254
4.99498 19.9361 70.7729
8.52548 13.1381 42.8923
10.3305 21.2662 53.2681
9.71365 14.7478 29.1883
6.86658 14.9923 19.6906
3.84893 13.8029 36.1695
6.89292 22.1708 57.1001
7.98733 18.6947 37.1979
3.89958 11.7017 35.8451
6.08469 12.516 30.1886
8.06165 28.4699 64.8089
4.76614 8.68159 26.4325
3.80957 12.9801 45.4077
5.99512 15.0459 49.1181
8.52989 17.4511 32.8215
2.50479 7.44503 38.3676
10.7875 30.5307 72.8784
6.58236 11.5771 62.029
18.4281 39.9156 58.3172
3.20548 9.49635 33.7332
8.10273 22.0419 43.5578
2.905 10.0803 56.1707
12.8839 27.3876 42.022
4.38737 11.3961 30.1211
4.39118 11.4944 41.1583
9.00678 22.8186 38.7137
4.45146 19.5575 53.4751
5.79655 13.0608 42.3231
9.02137 23.0837 38.9126
4.39359 19.0171 58.7446
6.88907 24.9244 74.8747
5.58058 16.1407 78.657
10.3435 17.239 51.4773
7.81272 12.8462 45.7951
10.4487 22.2573 45.4102
8.55854 16.5837 25.4101
5.24127 16.9297 42.9726
3.86851 8.5213 39.0057
11.4684 30.8958 72.3474
9.52072 25.0871 50.7444
5.36485 20.8319 68.4313
9.59819 19.0597 43.7107
6.12333 12.8538 26.0792
2.88114 9.65752 23.0845
2.57619 9.6952 26.6308
3.1809 11.5652 36.7628
5.19103 17.9303 67.222
7.40439 11.5246 23.5019
4.21797 13.413 41.872
5.56235 14.3956 42.9962
7.28466 18.2228 34.4305
4.47787 13.1884 33.9828
4.86664 15.3663 51.9406
9.60345 28.067 54.9127
3.46769 16.6597 62.8117
6.45607 14.8603 53.4637
6.20233 10.6275 36.853
4.90785 10.5143 28.7765
4.70686 8.1412 26.0326
5.49996 12.6447 30.1395
5.57152 13.977 30.3464
6.04142 22.3087 62.9099
8.87852 22.5568 42.37
3.20707 8.2235 20.8385
2.24439 9.24421 33.4657
3.6273 10.103 35.1741
6.05042 13.8394 37.1996
6.64254 20.5179 57.8695
7.282 17.8728 43.1683
3.98922 10.8482 38.3392
4.74303 8.67785 20.2684
4.80741 20.6754 52.7696
4.98117 12.6552 36.7735
4.60113 9.35632 29.9976
5.83074 15.2713 34.9292
4.55165 13.5232 32.3789
3.50034 17.6881 62.42
5.26663 9.69766 35.4601
4.8742 8.07676 22.2102
4.56975 15.4817 50.111
6.08933 12.5413 18.7479
1.645 5.87077 25.0374
3.22399 8.4514 25.2696
4.90585 12.7616 26.3162
3.18823 7.84545 22.837
3.17072 7.46936 19.6351
6.65556 28.6058 71.4985
4.54749 7.62967 19.12
2.11673 7.86956 28.1249
4.92539 14.1196 27.5727
2.58294 11.8696 41.4529
3.92352 12.6043 51.2979
5.92789 15.423 52.6826
6.85103 16.4516 39.9192
7.11164 28.3428 79.8396
7.0535 15.1177 34.7083
3.77555 12.0873 40.2645
4.01114 11.4928 45.0935
6.99883 14.6315 23.5574
2.25228 6.05536 17.9845
3.15927 8.42776 15.8238
2.43975 15.1383 55.5392
5.60074 10.9774 28.7743
4.31445 13.2508 37.002
2.65788 7.28829 46.3466
5.8064 11.6468 38.4203
8.27964 19.0691 18.3936
2.10044 20.4512 87.3795
7.6707 11.2336 13.9363
3.75054 20.4635 59.1713
5.30969 19.2038 65.2179
5.58572 11.6022 29.9224
3.86065 13.2888 46.7093
5.23259 12.9355 31.7905
5.08342 17.1131 48.0272
4.86191 14.5125 47.7836
5.9268 13.8993 32.017
3.27179 16.9591 77.1852
9.61586 20.1168 43.4984
4.9406 13.8213 30.2859
2.72876 8.04399 28.173
4.41657 17.1958 35.1465
2.83479 13.4981 55.4574
4.02167 9.02607 59.9753
10.2551 22.3471 29.3591
3.64026 21.6696 88.5429
8.15819 10.4746 15.4671
2.70393 14.5078 42.1108
3.07874 6.65027 30.8184
5.41855 21.2086 75.7106
7.1292 18.1085 52.3497
5.5659 11.0822 20.8384
1.7835 5.01655 20.409
4.23492 14.994 59.1453
8.1343 24.9669 57.7304
4.40186 14.399 55.0405
5.84825 18.0133 59.5057
6.65163 21.8374 81.77
7.58667 16.2323 43.2077
4.18468 8.77204 29.1443
5.11264 21.1481 62.7624
6.1275 15.3038 32.8952
2.7097 9.47976 32.5353
4.14279 18.8507 71.1391
7.52839 20.4974 49.9838
2.97524 7.65865 47.3997
5.62806 13.8774 44.4346
4.9061 5.78406 11.3863
3.30154 15.7878 48.2737
3.63569 13.2632 79.892
8.89952 18.7581 64.5443
10.7353 31.3835 53.7933
4.56407 16.4648 51.5842
7.61645 28.0822 54.9266
2.39505 9.78277 62.9431
7.18794 16.0916 26.8438
3.16647 12.9674 45.527
6.76801 26.1483 59.9565
2.70708 7.46925 43.504
5.17342 12.8558 38.312
4.96208 14.1911 39.0351
4.95028 19.798 52.7625
3.63533 11.101 60.1607
8.62335 23.7406 46.5829
2.77906 8.81953 30.3519
2.24361 10.1907 40.7863
4.16081 12.4597 36.2204
3.73698 12.2422 30.6535
1.88701 4.9846 22.1886
3.28673 13.711 43.9814
4.07416 14.8415 55.4438
4.47449 12.6068 40.7131
3.95603 11.7536 39.2384
4.58378 17.8736 79.5157
8.07966 20.1274 50.2396
4.63186 14.5437 26.1625
1.51064 5.25622 21.6934
2.48695 9.39043 41.8564
3.50577 13.6314 57.2385
5.13954 10.7279 44.607
4.72418 13.1909 34.6324
2.58352 5.98238 28.6455
3.59399 12.4186 42.3513
5.28701 16.5397 53.0016
5.16191 13.1908 31.9212
3.76914 12.798 48.4469
6.06632 23.0414 64.256
5.75107 16.6736 46.8026
4.19912 16.4179 67.0608
6.33677 13.3395 25.6667
1.7349 8.58655 54.1581
6.7423 22.0679 39.4501
2.99021 12.4764 46.7527
5.25185 16.4401 48.8865
4.24782 13.3196 35.9724
3.5793 18.0092 73.8403
5.85234 14.0899 51.0021
5.66246 17.015 50.7526
4.19843 10.8526 24.0866
2.17101 11.3971 41.7681
3.27078 7.17425 28.9412
3.60254 11.2895 27.1013
2.3262 10.7345 57.1764
5.97362 15.0645 33.6412
2.8501 12.0384 36.9455
2.54252 5.90323 19.6622
2.67912 15.4171 59.0139
5.63564 10.7139 19.3277
2.00396 12.7917 47.9682
3.77951 10.3451 40.5405
3.12051 5.10124 22.3574
2.94372 9.32738 26.363
2.49913 11.9912 43.1372
3.19999 8.36167 44.54
4.74277 17.6686 54.8767
3.66436 14.3938 68.1734
6.01499 16.6137 61.7834
7.25282 20.0759 40.3154
3.04369 11.9049 61.5209
5.27432 12.0042 53.6622
6.36442 17.4618 38.6946
5.37837 24.3112 74.7491
8.43091 35.4635 97.3243
5.59232 12.1192 26.0641
3.16262 21.0089 82.7138
5.71353 13.8058 32.0573
2.84124 13.0481 47.9897
3.12629 7.07214 30.4394
3.12744 8.12543 25.5243
1.86898 6.48658 33.2853
3.74442 14.1476 69.6961
7.53206 21.0166 63.3889
4.91553 14.1264 43.4305
2.65685 6.4649 64.4063
9.04248 30.4099 68.5929
4.66953 8.39859 17.6529
2.31228 16.4921 88.9654
6.96274 11.9266 39.3786
4.7992 13.6738 38.5401
3.78413 12.3769 30.9573
2.40768 6.32559 20.6406
2.26128 7.3308 34.5766
4.34698 16.9729 54.2333
4.078 12.2435 25.6183
2.19284 8.9028 18.933
2.05961 15.8975 74.3598
6.04904 16.4187 44.6879
2.76713 9.02245 35.9448
3.46915 15.8537 68.9708
4.491 10.2434 37.4847
3.40312 10.8681 45.5976
4.25092 12.408 27.2285
3.17934 15.3711 58.4889
4.32344 12.3324 62.5244
6.11617 17.005 27.9458
2.93098 17.4364 52.4445
3.56789 7.56898 26.3113
2.22083 11.4146 39.7127
2.95615 8.91623 30.4544
2.88759 10.4645 58.4816
5.82923 16.7946 33.1247
2.89083 7.38731 15.3011
1.54535 9.01298 37.2707
2.73843 7.9976 27
3.34701 18.6485 51.6517
3.44163 13.0148 50.8043
3.69469 12.145 29.5182
2.00546 8.76763 25.7809
1.12611 5.73747 50.6264
4.58117 15.1279 42.5452
3.86215 14.0276 47.0013
3.09216 10.458 41.4803
3.24832 7.46738 35.4179
3.60673 10.6082 32.1625
2.99765 9.74562 30.64
2.55532 7.9831 21.6937
1.78882 11.8207 36.3209
2.0118 8.4775 58.1841
5.98444 16.712 33.8594
1.92361 8.41888 35.0446
2.76823 7.84813 22.5779
1.3488 4.91622 24.2132
2.18317 6.88511 42.0191
4.04998 10.6903 41.7475
4.37791 14.4276 35.1346
2.8537 14.0377 59.1254
4.88425 10.7043 29.5546
2.53784 9.94299 26.7853
2.46692 15.5772 50.3674
3.27413 10.6854 65.8006
6.15809 20.7035 65.7198
4.86118 8.51233 20.3342
2.71957 13.5969 54.1695
4.16852 13.1414 30.286
2.23095 9.577 47.0107
4.19225 14.5841 36.7444
2.40591 12.1255 45.698
3.21448 16.8382 64.8699
4.03426 7.32014 35.2453
3.09589 9.49261 32.7325
2.18664 8.50971 27.3794
1.8575 4.6906 20.1852
1.96007 6.41969 27.4565
2.67341 9.40304 32.5516
2.67986 10.8682 41.7547
3.54856 15.1758 54.2245
3.17714 5.90145 28.7859
2.44014 9.02068 48.0467
3.50412 12.3987 47.628
3.95268 11.7795 52.303
4.43643 12.9938 40.0625
2.87845 9.50605 37.9892
3.78809 15.0605 49.2633
3.79749 14.3075 42.3442
2.65374 6.09779 38.2089
3.70841 13.1782 63.6547
5.90077 20.903 62.9219
5.08167 15.5999 34.176
2.98537 15.4008 41.4238
3.5262 22.4904 99.7852
6.7028 14.708 32.7123
2.2836 13.1076 50.595
3.51833 21.4291 94.9609
6.24708 12.5658 29.4943
2.25505 11.6829 60.3143
4.53044 17.6094 63.2997
4.45068 15.142 65.7897
4.62895 11.0108 46.1635
3.75345 8.82771 32.1673
2.77582 6.70628 34.5637
4.26691 17.4993 44.1025
3.51198 15.1567 63.5008
4.97302 21.0058 64.983
3.97561 10.2755 36.2735
2.25528 6.24007 34.6584
3.67239 16.3269 42.8852
2.77402 10.0362 35.5364
2.68688 9.09421 30.8907
2.89558 14.9742 64.7021
5.21782 23.5384 63.8972
4.26416 15.9789 60.3996
4.75971 17.6665 65.6986
4.43682 13.6169 41.0386
2.88891 8.96469 43.011
3.33076 12.5789 66.736
4.8925 15.8243 74.3617
5.64692 17.4878 35.2782
2.88832 11.6324 54.9242
3.49909 11.0595 44.2928
3.56423 10.3779 28.7622
2.34011 13.376 69.0545
5.89645 14.9534 40.2071
3.33385 19.287 58.0425
3.93669 11.6858 38.4222
2.93125 12.1216 47.4494
3.58767 13.8813 60.1785
4.87993 26.8672 80.2597
5.26892 14.293 43.9972
3.86814 23.4259 98.3278
5.25147 7.31676 43.7648
3.94815 20.9311 64.6537
4.13031 16.4478 60.5813
4.00319 7.65133 28.0344
2.20203 11.7582 47.2469
3.14203 9.10485 33.8517
2.86816 15.4435 71.7894
5.14805 17.3036 39.3225
2.32235 5.85203 32.6789
2.68966 9.94564 27.2017
2.32857 15.7311 61.7075
3.75565 16.4866 56.597
3.62195 10.8787 42.0934
3.33028 12.483 49.1848
2.58886 2.30009 42.2686
3.6571 11.1767 34.1184
2.86331 13.1747 30.0257
1.66089 4.32063 23.1259
2.04212 6.92392 50.1808
4.28505 16.0887 47.5502
3.10649 8.85785 36.1494
2.96197 16.9284 57.6053
2.89994 7.63818 91.0473
7.28659 20.1484 44.194
3.55147 15.904 44.4231
2.74755 8.77886 38.0793
2.66569 6.41014 16.7337
1.56189 10.5437 40.1753
2.21299 7.40092 32.7832
2.5122 13.8084 53.2227
4.08335 16.7981 44.5191
2.73571 14.5769 62.7815
4.55263 11.5836 48.375
2.92945 6.07767 17.0904
1.74881 10.5456 34.5631
2.31787 6.06648 30.9491
2.24218 5.08357 18.8944
2.31384 13.6273 37.5681
1.98117 8.603 49.374
3.48226 11.6565 35.0992
2.33665 5.217 26.8992
2.26699 7.88511 32.1427
3.23434 15.0715 55.0575
4.10742 19.0636 55.4501
3.5171 8.89404 40.0674
3.04914 12.7117 39.7739
2.59738 13.5301 71.7991
4.82838 12.1724 41.3269
3.04847 14.1113 32.3934
1.64875 10.073 63.311
4.13061 12.1431 32.1568
2.04138 7.90532 64.5764
4.71019 15.6989 28.4148
2.17808 11.9082 43.9349
3.27929 10.8874 44.0031
2.99178 6.32963 24.929
1.83381 9.07364 80.5299
6.22145 17.8467 45.4255
3.40269 12.4259 29.4812
1.72835 12.8725 40.2147
2.524 5.87439 26.437
1.88358 5.125 12.7572
1.26667 8.56033 37.1736
2.6335 11.2883 53.6809
3.43437 13.693 25.851
1.09928 5.49838 25.3183
1.99842 10.4194 70.6144
4.73916 15.3321 55.8326
3.61521 10.0118 20.5435
1.37802 7.16116 21.7882
0.995465 9.38577 80.6942
5.10484 9.33579 30.7862
2.48661 13.8176 26.3872
1.94851 10.9879 52.5411
3.2572 12.4717 40.8649
2.84456 9.57748 31.4531
2.29671 15.2941 48.9412
2.6834 5.21216 50.3282
4.0424 20.4917 49.9783
2.95637 14.5423 57.6564
3.71105 7.77259 36.0168
2.22628 10.3563 60.3386
4.18089 9.7543 30.6656
2.27655 12.3356 64.6667
4.06028 11.6372 33.695
2.2346 9.01749 38.2948
2.26956 11.8216 60.461
4.16545 8.63617 20.1179
1.6871 14.0063 65.0348
4.57093 14.5647 59.09
3.83954 13.7583 32.912
2.03567 7.0483 37.7998
2.51596 7.39718 35.717
2.67636 14.0654 51.6983
3.47648 11.7475 28.9895
1.98325 9.26493 26.8629
1.90981 9.47909 32.8493
2.00736 8.16449 31.1233
2.25538 5.12425 35.7203
2.1566 6.93719 31.3334
2.18462 8.00639 49.5329
3.52674 18.0615 32.8816
1.82866 5.76024 27.4014
1.66642 8.04591 31.2175
1.722 8.97643 70.0148
5.38356 17.351 25.68
1.55939 5.8665 45.072
3.00364 10.8202 41.3896
2.76249 9.82443 39.8943
3.32774 17.2824 38.5653
1.76482 5.72972 51.2671
3.68552 10.3556 30.1351
2.19144 7.10589 42.0029
2.966 13.1627 35.8859
2.48332 8.9662 29.8788
1.897 4.9394 27.3484
2.32351 11.03 50.4027
3.07194 15.2457 52.425
3.27967 9.41793 61.2462
3.71274 11.265 22.6084
1.95219 13.5068 55.5173
3.60191 9.57285 48.9358
3.29211 10.6772 35.976
2.41665 5.09566 29.9389
2.3762 9.16742 34.6966
2.15204 7.93532 23.9748
1.5145 8.11092 44.1305
3.134 11.8443 42.4975
2.86894 11.8097 30.5853
1.74085 5.09002 42.1741
2.9964 11.944 35.7979
2.23791 6.32687 32.3143
2.81574 16.9535 72.3184
4.3968 8.38379 25.0604
2.1002 10.5521 35.7253
2.87067 14.146 52.3019
2.91819 10.9871 63.4699
4.37549 9.30321 34.8069
2.62001 19.3414 46.2867
2.49114 10.6942 54.4494
3.55012 22.2842 62.3029
3.19061 6.99569 22.341
1.21661 7.92473 94.7024
6.49503 17.848 48.9187
3.24058 7.97388 22.3853
1.50316 7.90106 36.9515
2.44092 6.88449 25.3902
1.34616 7.61252 41.6087
3.014 12.344 49.5515
3.23884 8.6335 31.7346
2.4616 12.0746 40.0678
2.77045 14.5999 47.0831
2.94532 7.53932 18.9364
1.57008 8.23523 47.1066
2.73925 7.22025 20.4161
1.29009 7.53353 35.8255
2.08401 7.96024 30.9766
2.40578 6.25958 61.6306
4.59092 14.0749 37.8571
2.8515 15.6566 42.1885
3.20456 10.6299 46.5203
2.95528 12.9737 46.1119
3.27262 20.413 65.7154
3.34325 8.02043 29.3577
1.80142 6.22399 48.512
3.36186 4.83985 21.7344
1.26682 6.88129 29.9759
1.77936 8.42281 43.5465
2.72622 10.2318 39.1735
2.32471 6.95701 23.8817
1.6792 7.95943 33.6076
2.33055 11.4605 48.8539
3.28075 10.9687 23.9418
1.84121 9.30049 54.2819
3.28975 13.8434 50.4598
3.03143 7.69457 40.6871
2.60453 15.4361 53.3152
3.70814 14.7795 45.4621
2.75072 6.7063 21.1785
1.57665 8.3914 40.3732
2.50084 12.9018 46.5093
3.11065 14.8527 46.7994
2.70834 7.92261 55.1306
4.1274 17.0695 42.0051
2.25947 8.38342 68.1119
4.3609 8.22565 48.6593
3.18434 8.66169 19.2675
1.11689 8.74572 29.3934
2.37133 7.39858 39.0347
2.7437 15.391 37.1262
1.9651 7.62374 30.7421
2.12309 7.03487 36.4715
2.47298 5.0928 31.2258
2.35248 6.34767 23.3649
1.76293 11.7815 49.2446
2.78267 7.93802 28.5467
2.21288 15.0979 38.3584
2.29324 6.45851 22.9975
1.64041 12.6311 36.8671
2.22598 17.6865 54.8454
3.43179 11.046 55.9317
3.77211 9.31906 45.6372
2.92538 9.45883 26.7977
1.29155 5.26593 35.161
2.30287 8.25986 19.8701
1.49038 5.24111 44.4787
2.92813 12.4026 59.0463
3.66071 11.7933 56.9878
3.51851 9.65612 20.2248
1.58088 7.45587 17.6171
0.968051 5.52704 21.9915
1.34118 8.0202 35.9379
2.44404 11.0316 47.6614
3.09084 14.151 47.0495
2.77905 13.257 34.6297
2.06482 14.5819 64.1518
3.26981 6.08749 59.879
3.80007 10.8619 40.6529
2.51292 15.9748 69.5605
4.39681 14.2758 45.1935
2.9714 5.04959 49.4668
2.751 12.9793 44.0701
2.20313 11.3234 35.4594
2.03311 16.1029 57.6467
3.76344 8.20799 24.0932
1.89631 11.996 33.0019
2.14016 6.29899 41.9303
2.58168 9.26303 37.2624
2.54308 13.4238 32.968
2.14287 8.73897 26.9818
2.11169 6.65675 53.2143
3.34642 11.1693 24.3293
1.56176 13.9783 45.3805
3.04348 10.3244 22.6172
1.41389 6.41112 33.4676
2.27739 8.61994 68.7284
4.82116 19.0998 46.0927
3.0614 9.21861 42.0315
2.79411 11.4931 99.1609
6.1888 0 0