# pn-170911/RbIIR-53-AMC2-1280-1959.psd
# Power spectrum* (dif=0,1,2) (really just |FT|^2)
# NOTE: only the first half! (symmetric)
# weeks: 1280-1959
# 414 clock-days, 112 excluded
# PSD: 1441
1131.29 0.115984 0.0680236
27169.5 0.58178 0.137464
152926 3.23606 0.148312
17229.1 0.602375 0.171415
61416.7 4.81835 0.148418
5862.78 0.569864 0.145529
5282.68 0.793041 0.144086
3013.76 0.586306 0.14383
3757.89 1.05575 0.150977
1941.11 0.629799 0.147367
1858.25 0.778868 0.156888
1432.76 0.693901 0.137498
1408.71 0.842042 0.153761
1116.71 0.80036 0.154598
1083.43 0.905173 0.163277
925.394 0.944182 0.139027
1014.84 1.11356 0.148669
806.491 0.980927 0.137221
879.225 1.2514 0.143132
762.922 1.17916 0.152592
756.051 1.36685 0.150545
757.133 1.44188 0.149981
793.835 1.76925 0.15173
805.314 1.91445 0.143476
684.117 1.88353 0.157504
691.195 2.01095 0.159538
693.74 2.09196 0.164396
652.726 2.23653 0.159222
730.08 2.65453 0.162972
696.438 2.70992 0.173592
693.41 2.83972 0.16509
691.874 3.06605 0.1542
749.67 3.58115 0.184583
638.962 3.33962 0.170955
674.332 3.56469 0.172475
720.17 3.95211 0.180694
726.406 4.29045 0.179063
653.747 4.17422 0.185589
691.017 4.70152 0.188981
686.569 4.89979 0.179934
683.805 5.13295 0.218483
707.291 5.47049 0.192374
696.143 5.79415 0.195606
702.867 6.237 0.195726
655.688 5.90247 0.196805
663.9 6.33985 0.195117
629.927 6.10984 0.228323
666.743 6.76476 0.227297
731.93 7.94683 0.237433
610.47 6.89184 0.225125
590.885 6.85151 0.230616
645.817 7.77017 0.259995
631.156 7.9031 0.258932
615.141 8.01003 0.258039
619.817 8.56458 0.270249
596.559 8.50527 0.292393
590.741 8.65792 0.307404
630.952 9.71241 0.286138
628.086 9.77074 0.304693
551.381 8.89737 0.289729
610.216 10.3475 0.326103
544.595 9.51977 0.289225
608.89 10.6239 0.345086
558.572 10.2509 0.341124
571.944 11.0166 0.358219
566.449 11.2992 0.398485
566.421 11.6716 0.381449
495.284 10.6083 0.377544
490.506 10.571 0.403943
546.743 12.2372 0.441443
522.134 12.162 0.415856
479.354 11.1903 0.393596
502.1 12.0586 0.417611
463.943 11.5 0.436261
473.459 12.3767 0.512066
497.565 12.8596 0.470401
451.98 12.0756 0.467549
428.629 11.9444 0.478529
450.729 12.923 0.513723
440.535 12.8834 0.512592
370.503 11.1423 0.491914
405.344 12.4352 0.526872
400.242 12.4389 0.541423
444.731 14.0264 0.597752
400.57 13.0803 0.534108
411.825 13.8602 0.633822
361.81 12.5128 0.603737
360.001 12.9237 0.551815
345.615 12.4546 0.552286
381.942 14.1619 0.669868
356.305 13.4203 0.605709
369.247 14.293 0.716099
362.386 14.5475 0.753196
376.986 15.3729 0.765341
334.273 13.5007 0.691527
312.8 13.2601 0.731208
389.943 17.0156 0.879208
336.675 14.5777 0.782683
334.648 15.0922 0.822852
310.357 14.4651 0.856199
315.735 14.7578 0.78704
307.499 14.6058 0.87797
310.447 15.1771 0.867621
302.665 15.1511 0.867437
299.862 15.151 0.869963
256.409 13.6423 0.870817
291.439 15.1582 0.959516
256.89 13.4598 0.871765
296.606 16.0849 1.00348
292.846 16.5115 1.01633
306.291 17.025 1.0881
278.827 15.7543 1.01834
260.999 15.6645 1.03761
244.334 14.4865 1.00116
262.475 15.9403 1.1441
242.824 15.1236 1.03742
263.269 16.6224 1.16876
245.771 15.5993 1.11257
249.532 16.2398 1.20202
232.036 15.3962 1.15817
241.707 16.3761 1.22442
255.569 17.4207 1.29171
224.229 15.5614 1.24677
216.297 15.0012 1.19444
207.295 14.8989 1.1645
239.37 17.9132 1.46377
237.147 17.6726 1.47176
238.574 17.6781 1.37467
222.749 17.0705 1.44547
204.008 15.7184 1.37648
219.187 17.4675 1.50939
219.976 17.4441 1.48542
220.852 18.1945 1.60153
189.563 15.7977 1.48456
226.342 18.9403 1.66937
196.185 16.9269 1.57088
186.062 15.9576 1.51704
206.889 18.1739 1.68161
170.759 15.1782 1.52647
174.395 16.2255 1.55803
189.621 17.3913 1.72741
187.368 17.1176 1.73879
178.824 16.5329 1.60923
182.652 17.3649 1.78786
198.957 19.21 1.97194
180.872 17.59 1.87583
168.629 16.2078 1.7411
179.149 18.1639 1.94016
171.628 17.8523 2.01008
181.281 18.7096 2.01613
177.841 18.5908 2.04578
166.538 17.8855 2.05437
180.591 19.147 2.09037
155.965 17.2086 2.04214
156.395 16.8289 1.85812
150.273 16.5851 1.95196
169.878 19.1847 2.24345
160.372 18.5292 2.22449
150.995 17.6907 2.09363
139.127 16.8487 2.15597
147.652 17.5089 2.1568
168.574 20.3779 2.5756
141.929 16.8131 2.18576
157.371 19.6585 2.50174
154.112 19.1799 2.45439
141.216 17.8187 2.36239
148.624 19.1351 2.5741
154.219 20.0708 2.68082
149.038 19.5833 2.70761
131.94 17.3294 2.45266
131.241 17.5676 2.523
140.655 19.0476 2.70059
142.045 19.6005 2.82666
132.661 18.5482 2.64609
142.885 19.7991 2.95272
162.134 23.055 3.4255
137.659 19.8164 2.91284
130.011 18.9103 2.81846
119.943 17.6321 2.70999
131.906 19.635 2.97312
133.037 20.0474 3.07031
121.346 18.6324 2.93241
129.513 19.5442 3.08813
120.588 18.7499 2.96156
129.211 20.4611 3.2199
139.044 22.0622 3.68367
131.78 21.0756 3.53093
117.47 18.9416 3.20848
120.87 20.3761 3.44954
123.156 20.3465 3.45751
114.534 19.3113 3.33594
106.919 18.0346 3.08809
136.807 23.3917 3.93045
119.648 20.3736 3.55748
105.866 18.6549 3.36247
114.361 20.2219 3.57658
122.783 21.8874 3.96979
120.368 21.2335 3.79132
101.251 18.739 3.54439
108.306 19.824 3.70718
107.834 19.9103 3.7962
109.014 20.58 3.88527
106.738 20.0689 4.00493
101.784 19.1476 3.67548
117.475 22.2449 4.39903
105.887 20.2805 4.03314
106.04 20.8602 4.03454
108.25 21.412 4.30166
101.599 20.6978 4.24436
105.365 21.5311 4.54468
115.621 23.0327 4.71672
104.842 21.5725 4.5647
102.375 21.3481 4.43588
100.963 21.6652 4.6517
101.601 21.5939 4.57056
99.0512 21.1174 4.52855
110.265 23.7025 5.17923
104.846 22.468 4.91097
98.1995 21.7071 4.80281
113.674 25.2499 5.54869
109.247 24.6661 5.70864
93.013 20.7327 4.80178
114.559 25.8726 5.82399
91.8495 20.6492 4.85555
89.4165 20.9437 5.02701
82.1945 18.5808 4.43799
100.407 23.2338 5.55091
98.9806 23.2833 5.43104
100.688 24.5648 5.96745
92.8626 21.9394 5.22495
98.2613 24.2603 5.89533
93.3411 22.6917 5.68253
89.9469 22.33 5.55577
89.4413 22.7922 5.8526
89.6463 22.4927 5.65944
93.6841 23.8899 6.11347
87.6883 22.2043 5.78627
86.2128 22.4381 5.81311
93.4116 24.1616 6.40325
85.8596 22.8596 6.1737
95.7045 24.8816 6.67535
84.5054 22.8633 6.23265
87.3461 22.5179 6.02169
81.8349 22.4679 6.34956
90.5058 24.6153 6.7735
82.6434 22.8322 6.1448
84.9641 23.5218 6.63365
86.3518 24.1082 6.97964
92.7575 26.3108 7.51076
88.701 25.0943 7.10065
87.2259 25.4338 7.35849
80.1248 23.1633 6.76282
85.1722 25.3238 7.44225
82.9967 24.4386 7.21618
85.8364 25.1269 7.44112
79.5195 24.069 7.56322
79.4045 23.5631 7.04516
81.971 24.8793 7.60287
79.2223 23.8147 7.35033
79.2961 24.5084 7.54613
82.0652 25.7115 8.15193
75.628 23.3324 7.51601
81.5367 24.9837 7.86149
78.5171 25.2875 8.26171
82.4344 26.2215 8.35776
76.4976 25.1244 8.16925
82.0384 26.1636 8.64265
85.1046 27.1251 8.68323
75.7329 25.6684 8.70912
81.3573 27.1569 8.88638
83.4325 27.6451 9.32629
74.4088 24.5721 8.20123
70.6564 23.8002 8.15387
73.7853 24.8935 8.59245
74.2917 25.5121 8.81902
67.3027 22.9262 8.06037
78.405 27.2023 9.38852
72.691 25.8325 9.25817
71.1394 24.4172 8.58361
70.4777 24.8845 9.15211
70.6076 26.0843 9.66475
74.3632 26.6884 9.75977
67.7213 24.1926 8.78167
69.3887 24.5814 8.88072
74.771 28.1814 10.3994
68.8456 25.8935 9.99115
66.8196 24.6701 9.53602
66.984 25.8507 10.2224
89.9769 33.5278 12.219
61.9465 23.1867 8.88785
67.8959 25.6666 9.88104
65.0796 25.345 9.91547
68.5723 26.3515 10.2788
66.4405 26.4551 10.3252
63.6487 25.3953 10.3488
65.9242 25.1816 9.79613
65.3128 25.8887 10.4531
70.0439 27.6742 11.0465
68.342 28.022 11.6283
63.6238 25.701 10.7723
65.2247 26.0289 10.6015
62.5681 25.7387 10.848
65.9067 27.1794 11.3742
66.158 27.542 11.6926
62.8237 26.1896 11.0037
62.501 26.039 11.0698
63.896 27.1905 11.8784
64.6511 27.3752 11.7711
63.1932 27.1152 11.7524
57.2597 25.1002 10.9315
55.9933 24.4162 10.8596
62.446 27.4062 12.2875
64.038 28.5522 12.6456
60.8984 27.0774 12.3693
62.2321 26.6937 11.8151
62.1509 28.3701 12.8593
60.1681 26.3505 11.8433
53.8881 25.1881 11.8128
60.1506 26.8327 12.201
62.7983 29.4128 13.5369
55.9868 25.3513 11.8287
56.8603 26.4858 12.6499
57.3171 26.9203 12.707
60.8094 27.8465 13.3967
57.3876 26.6472 12.4844
55.4052 26.1948 12.5178
55.0683 26.2649 12.8711
56.9866 27.6735 13.5674
57.7104 27.8827 13.6996
52.7358 25.0543 12.3537
59.5335 29.3048 14.5279
61.2884 29.8826 14.5418
54.6718 27.7507 14.1851
54.5359 27.0178 13.4378
51.7234 25.3728 12.9239
53.5536 26.5793 13.5499
52.8861 27.0544 14.079
52.8866 27.1572 14.1293
53.3156 26.5394 13.5183
56.5912 29.3205 15.1913
53.519 28.9794 15.6066
54.5399 27.8171 14.5871
53.8579 27.4428 14.4958
50.3438 27.0793 14.417
53.311 28.5205 15.5723
56.084 29.9227 16.2163
50.5741 25.7247 13.643
54.4166 29.2645 15.5311
52.9485 29.5028 16.3446
56.1196 30.1552 16.5431
52.1767 29.0106 16.0929
51.7055 27.8007 15.4887
52.4683 29.0066 16.1796
50.1571 27.9263 15.7681
54.76 30.8245 16.9968
50.1871 29.2373 16.7899
48.799 27.5915 15.8225
49.4376 28.3037 16.2258
48.4953 28.2022 16.6678
50.8241 29.1412 16.8269
46.8268 27.0375 15.9348
43.4947 25.1962 15.0853
47.2697 27.6262 16.3384
46.6289 27.1261 16.1791
51.7062 30.2231 17.6926
46.8598 28.8689 17.6938
45.9712 27.2144 16.1869
44.0374 26.5361 16.0839
44.6922 26.6754 16.572
50.8085 30.5512 18.7462
42.2261 24.8616 15.2874
50.9683 31.087 18.665
46.6236 29.3602 18.637
45.2974 27.2851 16.9151
46.8366 29.1972 18.1687
43.136 26.9317 17.1761
43.884 27.0058 16.7507
43.7655 27.206 16.8017
43.6864 29.2177 19.6162
46.0118 29.0828 18.3842
39.9329 25.595 17.0377
42.0469 26.8215 17.52
45.8825 30.4888 19.9054
45.0433 29.5967 19.7831
49.8818 32.302 21.0246
47.4252 31.0629 20.7893
44.5382 28.9163 19.3674
45.7625 30.2374 20.129
46.2878 29.8923 19.7449
45.1115 30.0902 20.2104
44.3246 30.35 20.9757
45.6035 30.1502 20.5743
40.4423 26.9528 18.459
40.5513 28.8319 20.2236
42.3244 28.593 19.6126
41.0575 28.1949 19.6352
43.454 29.3966 20.2364
45.0385 31.7625 22.3936
43.8782 30.599 21.8134
41.3246 28.0574 19.5539
44.8589 31.7709 22.7592
39.077 27.6195 19.9954
40.7976 29.6953 21.9325
39.3897 27.5335 19.9081
44.6112 32.2865 23.899
40.6088 28.633 20.6663
44.0811 32.4874 24.279
39.174 27.5669 19.9209
38.2529 27.7461 20.6531
40.0889 28.1328 20.442
37.8198 28.5736 21.7935
40.8764 30.4599 22.4086
36.3991 27.0241 20.3809
43.0948 32.4505 24.3904
34.9758 26.8803 20.8557
39.9688 30.515 23.5766
39.9528 29.362 22.0481
37.5398 28.722 21.8169
36.7977 28.2928 22.4094
38.6521 29.3733 22.8697
38.7892 29.2167 22.3591
38.7577 30.5171 24.2589
37.2501 29.1741 23.1715
39.7494 30.1504 22.5818
35.3528 27.5374 22.072
36.3671 29.1919 23.6629
38.3516 30.9111 25.2705
36.0475 29.1552 23.9829
39.6061 30.6225 24.6207
39.605 31.0508 24.7234
36.2585 29.2746 23.8531
33.4415 26.8487 22.2295
32.2835 25.4782 20.8757
34.4694 27.8868 23.2521
36.5565 30.1109 24.7482
34.4931 28.1922 23.7289
37.1389 30.7315 25.3
37.239 31.1816 26.3935
35.788 29.4266 24.7274
35.4835 28.9452 24.2945
33.7293 29.2036 25.9437
37.0832 30.3188 25.0788
33.5874 29.6017 26.2032
37.8769 32.2091 27.6318
37.1283 32.1844 28.1394
36.2174 30.9242 27.0262
32.0027 27.1297 23.6673
34.5823 29.7775 26.0161
34.6743 29.952 26.3903
31.8214 27.9124 25.0296
31.3357 26.7282 24.0408
33.9204 30.4796 27.6322
32.6755 27.2511 23.6415
32.4313 29.2239 26.463
33.4231 29.9267 26.7617
31.4157 27.625 24.8683
32.258 30.0505 27.8755
33.2862 29.6916 26.839
29.8831 27.0432 25.3601
32.885 29.8452 27.3558
33.5894 30.3403 27.8431
33.9376 30.3836 28.3811
32.8818 30.3514 28.3754
33.0266 29.7502 27.8993
32.435 29.6611 27.2702
30.6888 28.5889 26.9971
30.5703 28.873 27.3278
32.1128 30.5699 29.4497
30.3016 28.505 27.812
28.6813 25.8468 24.5966
32.2369 30.2142 29.1407
32.3854 29.3865 28.0097
33.0721 31.3149 29.8738
33.13 32.3253 31.3896
30.1493 29.3344 29.8433
32.9068 30.462 28.4798
31.6019 30.4546 29.4854
33.2133 33.2637 32.264
31.2503 30.2982 30.4424
29.6315 28.7457 29.0681
36.0444 35.2191 33.6566
29.7638 29.5561 29.699
29.2232 29.3972 30.1088
32.2046 31.8792 31.5778
29.6454 30.004 31.3041
30.3879 29.4025 29.5551
30.6961 30.7472 31.0198
27.2096 26.7897 28.2016
29.4176 29.4049 29.3002
29.1939 29.8551 31.308
29.2374 29.299 30.2908
29.1649 29.7206 31.2852
28.3312 29.038 31.1056
31.1638 31.0671 31.6006
27.6741 28.8559 30.4064
30.0171 30.7088 32.0991
25.6192 27.0012 29.7683
32.7931 33.4112 34.4258
28.6116 29.715 31.6617
28.6004 29.8676 31.6932
28.7546 30.1535 31.8274
28.0747 29.3185 31.0743
27.8708 30.2317 32.5722
29.1256 31.4145 34.4785
28.2731 31.7814 36.5184
30.1883 30.9885 32.6939
27.1908 29.5583 32.456
29.775 33.3466 37.4061
28.481 30.4417 33.6604
27.3412 28.354 31.3025
25.2691 28.5186 32.2941
26.9354 29.042 32.2428
28.3297 31.3279 35.0389
26.9821 30.0935 34.5135
26.9091 28.941 32.6021
29.2832 31.5129 33.4964
26.4665 30.7995 36.5896
26.9387 29.8283 34.6098
27.0226 29.5254 32.9846
27.5464 30.3983 33.9918
27.7638 33.5098 39.6405
25.3152 28.5247 33.782
25.7269 28.641 33.849
26.43 29.3001 33.4602
26.8765 31.1819 35.8886
25.4 29.0672 34.126
23.8381 28.6337 34.6051
25.3309 28.7327 33.626
27.6009 32.3792 37.7039
24.4332 28.3591 33.6374
24.4872 28.3536 34.4979
25.5005 28.7237 32.8235
22.529 26.6271 32.3571
21.9705 26.0785 32.3228
25.8946 29.9912 35.9504
27.5721 33.1638 39.7116
25.3648 29.6308 35.8233
23.0796 27.5626 33.8359
23.9624 28.9782 35.7763
23.145 28.1555 35.1583
23.0152 27.1542 33.5368
25.1369 30.6012 37.6555
23.6596 27.8304 34.8877
24.5083 30.3029 36.9252
24.175 29.5852 36.8697
23.0002 28.5234 35.956
23.9476 30.1337 38.6339
23.7429 27.927 34.7445
22.0302 26.1956 33.1564
25.4861 32.4155 41.6182
26.0057 31.5728 37.9456
21.9022 28.1467 37.4026
23.0538 27.9501 34.7507
21.7796 27.5143 36.683
22.793 28.2136 36.3951
24.1428 29.9368 37.8896
23.6509 30.7487 40.731
22.7935 28.4642 36.984
24.9943 31.9706 41.3116
22.1484 28.1843 36.856
21.89 27.927 36.9544
23.8067 30.1738 37.464
23.3268 32.5901 43.7191
20.747 26.9807 37.2808
23.4597 30.289 40.9608
24.6756 31.2618 41.2763
22.229 28.7244 38.3212
20.451 27.0243 37.7126
22.4453 29.116 38.5243
21.8123 28.0007 36.8554
23.0366 31.8747 43.1068
21.9838 29.5039 41.4607
21.999 27.9753 37.9169
21.6201 29.2658 41.5316
21.7456 29.2027 39.1992
20.7004 27.5725 38.7582
22.0864 29.5739 39.5258
21.5678 30.141 42.8782
21.7703 28.268 37.8018
19.2595 27.1006 38.6387
21.4712 30.482 43.0457
22.6798 31.088 43.9356
23.8546 32.6632 44.5491
19.7167 27.9053 40.5448
20.9198 28.6144 41.0607
21.7953 29.2532 40.2275
19.8993 27.7039 39.3953
19.5215 26.8668 37.8738
20.252 28.4386 41.1808
21.392 29.6157 41.6926
20.6524 30.2355 45.6906
23.0773 31.2657 43.7684
20.617 29.2342 41.6715
19.9025 28.5194 41.8225
19.3168 26.7364 38.0734
19.6787 28.9885 43.9442
20.4599 28.4491 40.867
19.8223 28.9389 43.9385
20.9374 29.1889 42.1367
20.8391 30.0929 44.1822
21.2521 30.744 44.3796
18.8955 27.5146 42.7677
20.1705 27.9437 40.6309
20.2134 29.6309 43.38
18.9048 28.1078 41.8114
18.0037 27.2251 42.0738
19.2867 27.6599 40.6637
19.3177 29.0653 43.6704
18.7202 27.6369 40.9177
17.5941 26.4377 40.957
17.8779 27.2779 43.6403
20.2762 29.0906 43.7931
19.6728 29.433 43.189
17.8999 27.5245 41.6207
17.4247 27.0019 43.0345
18.663 27.569 41.8552
16.9185 26.324 42.0953
18.4313 27.2474 42.0672
18.0351 26.7891 41.7447
19.3572 30.2731 46.5339
18.1719 25.8931 39.1213
17.7622 28.4006 45.37
17.6368 26.4856 42.5054
19.0556 28.4735 42.1217
17.9934 29.8012 48.4181
18.808 29.0431 46.4807
18.4459 27.7178 43.0973
17.0987 27.9685 46.0073
18.6785 29.0188 45.357
17.0961 27.0432 45.0685
18.1696 28.3548 46.3542
19.1979 28.2915 42.6184
17.2178 28.9395 47.5621
18.0755 27.9283 44.6544
15.4357 24.2636 41.282
18.7029 28.9183 45.5256
18.1191 30.7687 51.2619
17.7624 28.3883 48.4318
19.0326 28.6209 45.2398
17.4327 27.333 44.3226
17.741 28.2942 45.0404
17.2071 28.8687 47.4378
16.325 27.2146 47.2122
16.6129 26.1159 42.7229
15.9241 25.7743 42.9383
15.1166 25.5258 44.4431
17.1868 28.1918 47.3841
16.3933 26.7166 45.6319
16.684 27.6469 46.5772
17.6211 29.3438 49.4763
16.6755 26.1086 43.1158
15.8471 26.4379 46.1726
15.6387 26.3649 47.839
18.3376 29.3737 47.3534
15.7948 25.9751 44.7064
15.4512 26.9445 49.6337
17.3491 26.8884 43.4608
16.5708 28.0261 48.8481
16.8033 28.0472 48.0026
15.9741 26.8235 45.7925
16.6754 27.6634 46.0141
15.1477 26.5349 48.2486
16.0151 27.3847 47.9449
15.7116 25.9457 45.4506
16.3073 27.6338 48.3929
16 27.1806 47.956
16.6396 27.1602 46.9454
14.6162 25.2652 45.1775
16.1842 28.1188 49.5846
17.1513 30.0265 52.7069
15.3286 26.6129 49.1525
17.155 30.1356 58.1331
20.5402 33.3988 53.4593
15.8176 27.9662 47.8332
14.8316 26.9451 49.0062
13.7444 25.0836 48.1789
15.4647 26.987 48.6383
14.8939 26.8427 50.5035
15.2315 26.3853 49.3312
16.0036 28.1331 51.9438
15.7919 26.207 46.8808
15.6759 27.2694 48.1015
15.4181 28.0411 49.7854
14.3395 25.5808 47.8291
14.2884 25.1433 47.1584
15.2865 27.7432 50.4333
15.5279 28.0902 50.6945
14.1047 25.9215 50.8665
15.4159 26.8493 48.5284
14.5084 26.0335 47.9634
14.4268 26.2793 50.6202
14.8353 25.4455 46.3625
13.6228 24.0344 42.8615
13.0502 24.6533 47.0211
14.4702 27.4967 49.7968
13.39 24.7143 48.5992
14.2128 26.128 49.3958
14.1842 25.7022 47.7434
14.2764 27.4537 53.4801
14.1667 25.1504 47.848
13.9993 25.3345 49.2055
14.7418 26.4353 49.3052
14.2641 27.8727 53.9721
14.529 26.7022 52.3903
14.5539 25.4342 47.981
13.727 26.0981 51.2842
13.5689 24.5846 46.3101
12.3184 23.8632 48.1904
12.958 23.8078 47.1617
14.1985 26.7204 49.3061
13.0772 24.7366 48.1198
13.1615 27.2047 56.893
14.411 25.6728 49.5021
12.5767 24.0095 49.2942
12.8859 23.6469 47.3422
13.9358 26.3067 50.4723
12.8965 24.5571 49.6211
13.529 24.9586 48.8846
13.9375 27.9593 56.0615
14.4166 27.0375 53.0243
13.2803 25.4782 50.8032
12.8441 24.7482 50.7018
14.3518 27.4242 53.8009
13.7434 26.6347 54.024
13.6863 26.2154 51.5834
13.4042 26.9481 55.091
13.6513 27.2314 54.3933
12.6507 24.8088 51.4498
12.8194 25.1431 52.4655
13.5342 24.1983 46.4518
12.3312 24.1679 49.7755
12.4595 23.8929 47.8725
12.0534 24.7579 51.7698
12.1331 24.009 51.0824
13.0867 24.0176 48.405
12.3985 24.5143 47.73
11.1644 23.3391 50.1168
11.9151 24.0036 51.7503
13.2607 24.5427 47.27
11.8713 24.6914 51.0341
11.8006 24.1602 50.9542
12.0474 24.6792 53.6814
13.3185 26.1464 51.9473
11.8303 24.5617 52.7839
12.5993 25.6711 54.8563
12.0872 23.5427 49.8482
12.2815 23.9823 49.6009
11.7359 24.6141 51.8232
11.4134 22.5439 49.7015
12.0418 24.2109 50.3088
12.5424 24.9191 52.1595
11.8227 24.2954 51.042
12.0337 25.2582 52.472
11.4339 23.9695 53.0196
11.3947 23.4716 52.3268
11.9395 23.8433 49.1212
10.8763 23.6071 52.9901
11.3634 22.7479 48.6454
10.9575 23.255 51.5202
11.3777 23.0323 49.3797
10.5047 21.5643 45.1559
10.6666 22.783 49.7078
11.0159 23.5194 49.1426
10.5304 23.5242 51.5113
10.5509 22.518 51.8972
11.4726 23.9678 50.601
9.52973 19.1236 43.9246
10.7996 23.2941 53.157
12.3885 25.3919 52.5413
9.92279 21.893 51.1251
11.0174 22.3992 47.5185
10.607 23.058 51.2476
10.9147 22.3161 47.3793
10.1355 22.3727 49.5739
11.381 24.9177 52.5508
9.88863 22.5614 55.4078
10.7683 22.1542 48.7052
9.87751 21.6235 48.2751
10.2083 21.3969 48.0899
10.6567 23.7025 54.1714
10.0726 21.4463 49.8038
10.1362 22.0331 50.6124
10.5452 22.5389 50.8048
10.995 24.735 57.2428
11.4942 24.0991 53.5151
10.8738 24.4532 54.9637
10.4161 23.3023 54.3675
10.6734 22.8637 52.0098
10.7133 23.0577 50.231
10.3843 24.5283 56.6134
10.5583 22.2174 51.379
10.5218 23.7406 52.1046
9.61625 23.4438 55.9048
10.1901 21.5071 49.6793
9.39528 20.696 50.535
9.9143 22.2089 52.2583
10.229 22.5534 53.9974
10.883 23.9465 54.2696
10.0448 22.7525 54.0529
11.1092 24.8834 55.6952
10.2635 23.1475 54.7766
9.9597 22.5334 55.2384
10.0829 21.6963 49.4571
10.2024 24.0034 57.5266
10.4154 22.4509 51.4638
9.67977 21.3617 50.0906
9.87533 22.6879 50.4348
8.86786 20.5733 53.4753
10.4931 21.8249 46.8654
8.30206 19.6899 49.4958
9.62809 21.8431 51.7383
9.21793 20.2957 47.8631
9.67311 23.331 54.4468
9.53917 22.1994 52.9478
9.41174 21.8179 54.3084
9.3982 21.1573 49.5421
8.89004 22.2592 56.9082
10.076 22.3863 52.3089
9.22557 21.6004 50.5462
9.2778 22.9361 59.6783
10.1404 21.7888 50.9561
9.61307 22.584 52.0879
8.76971 21.337 53.6428
9.58844 22.1758 53.2084
8.78299 19.737 48.1845
9.21645 23.2338 56.4881
8.90803 20.6263 53.2403
9.00142 21.392 56.6052
10.6482 24.8787 57.1409
8.96948 21.6822 55.9963
8.94789 19.8288 48.6002
8.71318 21.192 51.8081
9.19011 20.8004 51.5063
8.54477 20.6442 51.3148
8.09033 19.4122 52.0984
9.11971 19.7297 48.5012
9.15569 21.9527 52.2633
8.58312 20.4701 49.9058
8.19146 19.6865 50.187
8.93086 23.0271 59.9831
9.26918 21.4265 52.9627
9.36769 22.2685 55.0659
8.36572 20.0796 52.1125
8.78313 20.2522 51.0102
8.35524 19.3892 47.8523
8.25793 20.9927 54.7958
8.87566 21.1066 52.8245
8.32551 20.3266 50.9887
8.0066 19.2457 49.2663
8.39484 20.3263 51.6
8.53262 19.7819 49.1032
8.0293 20.6514 53.364
8.17061 20.0902 53.8984
8.58276 21.1295 53.3274
8.18534 20.414 55.1987
8.78015 19.9648 50.4733
8.6716 21.9536 55.7867
8.64692 20.2966 51.4113
8.70618 22.4443 55.6841
8.06065 21.0197 58.776
8.9039 20.7168 54.7157
8.56312 21.3877 54.41
8.48223 21.8528 57.1283
8.21394 20.2251 57.8645
9.86801 23.9411 57.3469
8.56675 21.104 55.3102
8.16999 20.9759 56.2073
8.43914 20.8611 54.0996
8.08787 19.5017 51.5722
8.05868 19.6385 51.8434
8.2161 20.6471 50.7374
7.56482 19.6332 50.9517
7.85079 20.3265 54.0262
8.0141 21.2082 54.7298
7.72012 19.8869 56.118
8.2243 20.3827 53.2758
8.05412 19.968 52.9163
7.96725 20.0723 53.445
7.99089 20.4047 54.5491
7.91747 20.109 51.8047
7.14173 18.9148 54.2709
8.18545 19.9928 53.5828
7.86065 19.6394 50.1775
7.25267 19.3634 50.5774
7.19165 19.9837 56.4189
8.04216 19.513 49.1629
7.21183 20.0661 57.5985
7.82542 19.5143 51.7883
7.64235 19.9412 55.4383
8.3238 21.1417 54.5727
7.266 18.694 52.1997
7.62194 19.5549 51.8553
7.24549 18.4446 48.7155
6.59004 16.7392 46.6731
7.26384 19.2357 52.6106
7.05111 19.1412 53.9624
7.40976 17.8786 48.6445
6.90257 18.2892 51.0221
7.14069 18.5061 53.0939
7.22958 18.6008 49.9604
7.66585 21.3758 58.6675
7.45954 19.5493 53.5947
7.51633 19.2178 53.345
7.20636 19.2937 52.7522
6.89875 18.1641 52.6559
7.34656 18.5315 49.0175
6.60612 18.2045 49.5067
6.73781 19.5057 57.1576
7.53693 18.862 54.3787
7.32627 17.9074 49.968
7.05364 18.4391 50.3019
6.71776 17.5978 48.1974
6.5717 19.6994 57.6358
7.24448 17.4571 49.0054
6.84897 18.1238 51.3847
7.14137 18.4153 53.0019
7.38236 18.9927 50.2736
6.43586 15.9872 45.2081
6.49439 18.9647 55.3537
7.30507 18.4747 47.1784
6.22253 18.2048 51.1773
6.31173 16.9934 53.0756
7.23535 19.1664 50.0537
6.17021 18.108 54.6027
7.13724 19.4077 54.0729
6.38972 17.9689 52.7849
6.30761 16.0843 46.5582
6.48303 17.7153 50.0084
6.66513 18.8027 53.8578
6.38339 16.4412 49.5802
6.6298 17.2669 47.5617
5.96044 16.8964 52.7934
6.83839 17.628 48.2148
6.49254 18.8456 53.9977
6.92992 19.0052 53.2931
6.41037 18.6707 56.5678
6.96975 18.5896 55.1744
7.09344 18.7485 53.5257
6.60909 17.6467 51.7626
6.73331 18.2044 50.183
6.02641 16.8977 51.9911
6.58176 17.5185 50.9808
6.32465 18.4501 51.7619
6.27831 17.7178 53.1675
6.69563 19.18 55.6646
6.78929 18.3481 52.8597
6.34928 17.6926 53.8506
6.61982 17.997 53.1582
6.862 19.4925 58.3724
6.75443 19.2909 58.4261
7.22931 18.9111 50.5265
6.16987 17.8465 54.3371
6.52668 17.5407 50.9498
6.31873 17.7611 55.2936
6.77999 18.1772 50.0619
6.04215 17.8584 55.0589
6.29979 17.853 56.2742
6.66144 18.5786 52.7947
6.36242 17.6114 54.0828
6.5036 17.9369 57.4452
6.92637 18.8549 51.5463
6.21049 18.5927 56.0327
6.6844 19.9278 60.5399
6.85541 19.4392 55.3896
5.91937 16.2733 50.524
6.00339 18.4275 55.8574
6.19359 17.08 51.4954
6.37634 17.7866 51.2386
5.97234 17.7801 53.0578
5.85267 16.6466 47.4058
5.52323 15.9424 50.6119
6.35295 18.6242 55.4255
6.21894 17.3187 52.3581
6.03879 16.9933 50.1965
5.63642 16.2406 49.4
5.68299 16.5774 51.5238
5.99724 17.8899 54.2096
5.65863 16.0021 54.3123
6.13873 17.6379 54.5012
6.52857 17.7642 52.7333
6.2636 18.1448 53.8481
6.03015 17.8953 56.0776
6.30814 18.4337 55.9684
6.27335 17.0095 50.8615
5.61511 16.208 48.708
5.63274 17.1758 53.2671
5.74825 16.279 47.9907
5.44252 16.6144 52.9514
5.64117 16.8682 51.9608
5.77721 16.9578 54.0938
5.76131 15.5751 50.8837
6.07044 17.9281 55.8032
6.09179 16.4448 49.8226
5.45515 16.3535 50.7494
5.75794 16.4771 48.5417
5.13423 16.5856 55.8753
6.08616 17.3219 53.7574
5.70911 15.9527 47.018
5.30484 16.6271 49.9571
5.30361 16.3253 54.5403
5.77445 16.4003 52.9861
5.77734 15.9772 50.2741
5.59276 16.9521 50.6531
5.47073 15.7273 50.278
5.42549 16.0689 49.3176
5.39217 16.8798 53.8073
5.5127 16.375 54.5043
5.92945 17.276 52.808
5.41545 15.8754 50.0676
5.37607 16.8911 57.3823
5.851 16.7803 51.2593
5.58522 17.5132 54.0641
5.4483 17.0853 54.7745
5.56852 15.7006 51.8026
5.61347 16.8491 52.1506
5.17293 14.7655 45.8892
4.85378 15.3887 48.9314
5.03825 15.6391 52.3439
5.49669 15.3881 50.9319
5.50431 16.843 50.6082
5.21935 15.9299 50.9522
5.23468 15.6307 53.5822
5.89227 17.7075 55.4552
5.54995 16.392 46.7666
4.74064 15.2687 53.1634
5.20858 14.8117 46.7763
4.93375 15.8329 50.2968
5.09571 16.288 50.8974
5.06223 15.5891 51.8616
5.195 16.3856 50.6462
5.09158 17.16 58.3847
5.46061 14.5645 51.303
5.6631 17.5771 53.3353
5.21363 15.9132 51.0861
4.96108 15.006 50.9651
5.11625 13.8966 43.4797
4.8089 16.088 52.9299
5.41924 17.1058 54.3408
5.21394 15.4971 49.5644
4.97439 14.4698 49.3639
5.10605 15.1804 48.2219
4.70217 13.9957 48.9693
5.07781 14.6669 49.9378
5.25465 15.5652 50.7521
5.3237 17.5049 55.8165
5.33052 16.2654 51.7256
5.03928 14.7049 49.1533
5.00753 16.073 53.5204
5.12247 15.1998 50.3136
5.11578 15.6905 52.2938
5.42088 17.1382 54.474
5.15283 15.3137 51.1896
5.1279 15.9392 51.4179
4.88687 15.8208 53.842
5.26407 16.6882 52.3414
4.98262 16.2009 61.3927
5.84955 16.0721 46.6245
4.49678 15.0005 49.5093
4.69992 13.8406 48.5564
4.95619 16.1136 54.2574
5.06836 15.7706 52.7264
5.2003 15.6424 48.4471
4.59429 15.0422 51.6933
4.90712 15.6578 56.0196
5.47285 15.6227 48.5229
4.66047 15.4217 47.5222
4.28048 13.879 48.2207
4.74767 14.9459 51.3612
4.72402 14.4285 49.5675
4.80521 17.0443 55.3344
4.64417 14.6524 55.4575
5.11481 14.6003 48.8952
5.03665 16.8033 55.4421
5.1045 16.9777 57.247
5.18478 15.389 48.9631
4.40616 13.7193 49.5579
4.75347 15.3833 52.9988
5.1118 15.5448 52.2289
4.99464 15.5576 48.8653
4.36961 14.2639 48.3296
4.37734 14.4073 51.5077
4.61224 14.5279 47.2451
4.33975 14.5427 52.8408
4.92214 15.1061 49.8775
4.62846 14.9158 50.4609
4.54062 14.7494 49.1634
4.42712 14.0814 54.8889
4.86971 14.8327 49.399
4.69248 14.718 48.3822
4.43767 14.8777 51.4217
4.59336 14.0861 50.4373
4.492 14.4939 49.4164
4.58424 14.3843 49.3565
4.49106 14.1249 46.1456
4.16596 14.3252 50.5363
4.40852 13.5512 48.933
4.60534 13.5338 47.757
4.45948 14.5958 49.4907
4.53284 14.6325 46.4281
4.12556 13.5295 47.7024
4.36364 14.0866 46.9
4.06758 12.9643 44.6053
3.94187 14.151 51.8157
4.5188 13.4855 45.4388
4.28641 14.8322 53.0413
4.67552 13.5846 49.2199
4.54951 14.1187 49.5141
4.6485 15.1289 49.3924
4.44812 15.1459 50.9546
4.36448 13.9331 50.306
4.3775 14.4186 49.1474
4.43016 14.0209 50.8954
4.546 14.3773 49.8973
4.62952 14.2649 47.9457
3.91406 13.4739 45.3533
3.93773 12.2788 47.1404
4.23162 14.6819 52.9974
4.76153 13.7565 44.8447
3.93924 14.0248 50.4805
4.43499 14.0131 46.4696
4.01489 13.4311 47.805
4.12878 13.1521 47.0834
4.07035 14.8909 55.2575
4.74279 13.9366 49.0796
4.3732 14.5622 47.9596
4.14169 13.409 47.8919
4.04964 14.2923 54.1454
4.38996 13.8742 50.4775
4.47002 15.1002 50.7944
4.45374 14.1293 48.8718
4.38755 13.7917 49.6029
4.17257 13.9197 50.2377
4.38246 14.3851 48.5155
4.02533 12.7167 44.8221
4.0078 14.0087 51.9383
4.35916 13.421 48.7379
4.23696 12.618 45.3015
4.18233 14.3962 49.3082
4.15034 14.5414 50.5107
4.12618 14.1896 51.4498
4.26199 13.5092 48.9957
4.16827 13.1182 49.7434
4.42649 14.212 49.0121
4.10383 14.3142 51.2268
4.45318 13.1421 46.6037
4.02097 14.157 52.0825
4.35148 13.5517 49.4012
4.24306 14.0814 48.8517
4.08273 13.7863 49.0437
4.15561 12.7466 48.246
4.17406 14.5117 51.4448
4.31304 15.438 58.7134
5.06979 16.6062 55.8808
4.68822 15.1948 50.0765
4.09177 13.9624 50.847
4.18576 13.4165 46.1503
3.81258 12.7244 48.1083
4.00984 13.0568 47.423
4.00488 12.7552 45.9867
3.86162 13.0262 48.6876
4.22553 14.2874 49.0706
4.19186 13.3596 47.6817
3.8657 12.5659 44.3351
3.51009 13.1352 49.7079
4.18037 11.973 45.0446
3.7257 12.4677 45.5517
3.77567 12.372 43.0302
3.63965 13.1152 46.1818
3.7414 12.7571 45.9698
3.75296 11.8975 44.3959
3.69635 12.9397 46.7005
3.77238 12.6776 47.3466
3.92602 14.4649 50.478
3.9385 12.7152 49.5532
4.06314 13.6578 47.444
3.85997 13.5777 49.782
3.82906 12.8941 49.4119
3.85984 12.6991 46.0766
3.67999 13.0748 47.574
3.90154 14.0763 53.0091
4.04197 13.4176 47.5709
3.93176 13.3082 46.874
3.88368 12.8961 45.5484
3.46594 11.8318 46.5877
3.79751 13.2158 49.9897
3.92266 12.6003 42.4797
3.38816 11.9226 43.5557
3.45626 11.8754 48.725
4.00074 12.5436 46.3756
3.68691 13.2391 48.9816
3.88261 13.0658 46.8601
3.7854 12.7678 48.6657
3.65231 11.5198 44.4686
3.62175 12.7513 48.7102
4.04589 13.2002 49.4314
4.01099 13.578 51.9944
4.2508 14.0519 46.3666
3.70609 13.4522 49.2056
3.82179 12.7897 48.9433
3.69588 13.101 50.6871
4.07489 12.6809 50.2595
4.18238 14.2963 48.3987
3.60605 11.8663 46.6556
3.78951 14.3293 51.561
3.96945 11.8849 43.1407
3.43695 12.1114 46.2297
3.73207 13.0555 47.2863
3.75534 14.3274 52.3263
3.88063 12.6096 46.5449
3.6917 12.3511 46.6064
3.56659 12.3317 52.3349
4.1886 12.9437 44.7014
3.66436 12.3479 42.4567
3.25927 11.8182 48.2618
3.55854 11.5103 46.0906
3.72889 12.6668 44.461
3.56642 13.4641 47.4163
3.79222 12.7468 47.2272
3.71969 11.7875 43.4227
3.31254 10.9482 42.3575
3.31764 12.1302 45.4883
3.41066 11.1545 46.709
3.68454 12.6368 46.2873
3.55966 12.6575 46.5845
3.5533 12.0664 46.4937
3.67984 12.8125 46.9642
3.46751 11.8761 45.0881
3.59464 12.3066 47.0336
3.55751 12.5021 44.3367
3.34589 11.3347 44.8606
3.64379 13.3382 49.0789
3.6401 13.2065 49.5261
3.71442 13.1081 48.5598
3.66214 13.0142 49.3208
3.60884 12.2661 45.931
3.59237 12.8051 51.3891
3.91103 13.4704 51.9902
3.91508 13.3367 48.958
3.60111 12.0505 45.124
3.45087 11.7858 44.8591
3.32832 11.971 48.1766
3.72427 12.4971 49.4752
3.76427 13.1233 44.3697
3.34611 11.0538 46.5861
3.68033 12.2956 46.1771
3.55865 12.3227 42.4395
3.28681 11.8445 47.2364
3.62592 13.5531 56.07
4.20148 14.4048 50.9225
3.88184 12.55 46.5502
3.39145 11.9737 45.5872
3.44705 12.2063 47.2545
3.6801 12.8861 47.2862
3.48984 12.5814 50.2253
3.76837 12.4497 48.9125
3.71991 12.9229 45.4417
3.37105 11.1309 45.957
3.55991 11.7199 46.9123
3.67706 12.9123 45.8678
3.19495 11.2885 48.3381
3.70238 12.6921 46.8469
3.58686 12.7025 46.1491
3.4354 11.9694 46.1672
3.50304 13.2025 52.1486
3.9046 12.3537 46.2116
3.4822 12.0416 44.8711
3.50444 12.1807 46.3176
3.40967 11.9189 48.1946
3.56711 12.4361 49.1598
3.63321 12.8619 47.3004
3.50634 12.6435 46.6157
3.33652 11.9999 47.756
3.44203 11.4908 45.2064
3.35232 11.9834 43.953
3.20865 11.3233 47.225
3.51527 11.7418 45.3253
3.31058 11.5212 43.125
3.16626 10.899 41.3814
3.18003 12.6431 49.2094
3.62477 11.871 46.4892
3.48251 12.1213 46.005
3.3794 12.3956 46.7077
3.48813 12.1591 45.8033
3.29164 12.4523 47.7528
3.46699 11.7644 46.9823
3.46974 11.5285 44.8296
3.37681 12.302 43.6938
3.17984 11.9583 47.5087
3.4829 11.8372 45.6157
3.32809 12.6116 48.5096
3.41742 11.5637 45.3057
3.2382 11.3558 45.266
3.48366 13.0048 46.4565
3.21728 11.437 47.352
3.43713 11.9403 46.2252
3.38893 11.2348 42.7535
3.22194 12.1211 48.0039
3.60233 12.2008 45.2734
3.26245 12.2135 49.7084
3.4561 11.6395 43.3862
3.16733 10.9899 46.0652
3.38814 12.041 44.2013
3.35818 12.6935 47.0848
3.43248 12.0041 48.8708
3.54731 11.4371 47.5591
3.5265 13.1513 48.3135
3.38283 10.7764 44.0546
3.23689 12.0476 47.7071
3.33665 12.1648 43.449
3.26877 11.2452 43.8696
3.21213 11.5995 44.1851
3.1517 11.9289 50.8681
3.64687 11.8346 45.0424
3.32972 12.3637 49.6241
3.43765 11.3778 44.4559
3.24786 11.5443 45.066
3.37213 12.7271 48.4297
3.52848 11.7345 43.8597
3.14642 11.3861 43.587
3.08858 10.5367 44.7308
3.25616 12.1449 48.2533
3.41161 11.7674 47.3029
3.35138 11.9703 47.4766
3.476 12.6342 45.5335
3.19598 11.722 48.7654
3.48433 12.3581 48.1917
3.48409 12.234 50.0966
3.52005 11.2302 43.605
3.15228 12.5346 52.3362
3.66007 11.9727 42.8237
3.12696 11.7514 45.5501
3.23471 11.8308 46.9577
3.50244 12.1023 45.492
3.37229 12.4533 47.7259
3.33668 11.114 45.5281
3.1908 12.9085 49.0008
3.4407 11.9928 45.1541
3.08616 11.0963 45.682
3.21939 11.4386 50.6909
3.43192 12.3767 48.1402
3.58652 12.186 46.5949
3.3485 12.4299 45.5058
3.18779 11.507 46.5338
3.29348 13.1889 60.1009
4.08876 12.6111 43.0668
3.0641 11.5762 46.1455
3.47752 12.4061 44.5767
3.15474 11.7185 46.2703
3.25124 11.7372 42.987
3.01566 12.2088 53.5734
3.93847 12.8633 46.0852
3.14025 12.3059 48.7706
3.36307 12.3512 50.1405
3.43915 12.2467 50.513
3.60349 12.8756 44.8001
3.15432 12.2076 47.0231
3.31949 12.8752 51.806
3.5792 11.1624 46.8891
3.32751 11.9617 46.7304
3.2396 11.6631 47.1774
3.37278 11.5229 45.1239
3.06313 11.36 44.2246
3.16606 11.4174 43.8288
3.04997 11.8411 47.2274
3.29349 11.3639 45.2253
3.12276 10.666 46.6074
3.34309 11.8018 47.8124
3.38601 11.689 42.7872
3.01717 11.6355 48.3379
3.43038 11.8239 48.1434
3.26553 12.789 44.8856
3.15444 10.7832 45.3069
3.11146 11.3529 45.6327
3.21452 11.4666 41.2247
2.84944 10.7086 45.8179
3.19101 12.1902 49.777
3.48387 12.0243 42.4202
3.02458 10.6882 41.0015
2.93122 11.2667 44.9752
3.08898 11.2379 43.282
3.041 10.7452 44.7957
3.18858 11.8863 48.0604
3.39799 12.1043 46.6049
3.22297 10.6023 40.9258
2.85264 11.1257 41.3546
2.83772 10.8599 45.7143
3.07109 11.0693 49.3176
3.31466 12.7833 44.8234
3.10201 11.3724 45.3622
3.15619 11.3686 45.0016
3.14086 11.6186 46.1428
3.30155 11.1056 47.441
3.37294 11.6543 50.4595
3.6224 12.1729 43.8345
3.08275 12.3383 47.8476
3.357 11.4299 45.9808
3.05436 11.7467 42.8037
3.01573 10.2152 42.366
3.05797 10.8807 43.8496
3.02379 10.8646 45.6069
3.2254 12.5051 48.0205
3.33698 11.3808 44.6256
3.06698 10.4265 45.3988
3.20416 11.7985 41.9724
2.93272 11.5659 46.481
3.14516 10.838 43.7244
3.11826 11.0206 45.7266
3.18214 12.2454 46.1486
3.17335 11.5824 46.7456
3.21323 11.8539 42.6853
2.99626 11.1583 46.2151
3.36437 11.4327 45.4465
3.14316 11.2407 47.4211
3.34089 11.9782 47.1922
3.4012 11.714 42.8661
2.88731 11.4533 48.8137
3.40497 11.5907 42.5112
3.16286 10.9134 45.6871
3.30304 10.6258 45.7132
3.23023 11.6578 44.6944
3.13229 10.8051 46.368
3.28153 12.0102 47.2502
3.42175 12.1724 49.3625
3.34648 12.1752 46.0251
3.19567 11.4739 50.435
3.70425 12.7059 47.0349
3.24289 12.3498 47.7987
3.2798 10.9858 42.2005
3.06484 11.0613 48.0317
3.29496 12.047 46.0816
3.16263 12.1505 46.9276
3.23992 11.6071 46.2877
3.23737 11.7374 49.1271
3.51145 11.8923 45.8478
3.23172 13.0979 49.4045
3.43324 11.0938 44.6534
3.18936 12.8748 50.3768
3.45846 12.3232 48.7027
3.33679 11.6208 47.3308
3.2775 12.2595 52.5551
3.61646 0 0