# pn-170911/RbIIR-56-RbIIA-1280-1959.psd
# Power spectrum* (dif=0,1,2) (really just |FT|^2)
# NOTE: only the first half! (symmetric)
# weeks: 1280-1959
# 3981 clock-days, 231 excluded
# PSD: 1441
10358.3 0.275846 0.0334235
559376 10.6996 0.0383019
1.89278e+06 37.097 0.0375596
320359 10.1595 0.0387408
298958 19.1166 0.0376505
97362.3 7.17704 0.0387299
70431.6 8.21131 0.0373036
43225.6 6.45135 0.0375574
36648.8 7.02492 0.0397202
25668 6.18117 0.0374822
21829.1 6.15617 0.0375589
17500.8 5.90848 0.0398492
14556.6 5.96357 0.0402957
12282.6 5.8318 0.0396701
10844.5 6.10789 0.0436523
9113.35 5.75772 0.0410526
8278.93 5.94888 0.0432536
7178.48 5.87094 0.0443718
6494.68 5.76182 0.044276
5505.64 5.50697 0.0453131
5247.47 5.88061 0.0480642
4702.74 5.83104 0.049868
4355.96 6.06137 0.0514826
3917.72 5.79161 0.0531151
3676.46 5.94637 0.0557492
3321.2 5.83232 0.0547866
3022.7 5.72264 0.0573257
2815.4 5.81297 0.0595427
2714.12 6.1356 0.0615798
2494.28 6.06071 0.063078
2415.55 6.10433 0.0630105
2227.51 6.11899 0.0673728
2112.31 6.0564 0.0684614
1943.7 6.16184 0.0721359
1832.17 5.99751 0.0744287
1797.22 6.30268 0.074239
1658.88 6.20383 0.0745992
1606.96 6.38009 0.0824571
1511.31 6.44523 0.0810835
1430.33 6.24767 0.0849339
1370.84 6.42625 0.0886112
1322.41 6.52426 0.0938721
1251.68 6.47943 0.0922105
1249.29 6.7295 0.0983552
1143.59 6.44015 0.09642
1119.46 6.64281 0.105438
1082.05 6.66521 0.107101
1032.25 6.77201 0.109225
982.806 6.76524 0.113443
945.471 6.8464 0.118517
912.558 6.96171 0.121033
905.617 6.98942 0.12429
861.872 6.91474 0.127398
833.555 7.01458 0.131973
818.214 7.22027 0.139079
792.422 7.4231 0.146988
778.731 7.46738 0.151579
741.852 7.47959 0.155874
714.172 7.26637 0.156851
712.499 7.75481 0.168962
679.12 7.61614 0.167042
675.405 7.73513 0.177933
654.46 7.80013 0.179437
624.126 7.74848 0.184997
624.745 8.0701 0.196423
599.58 7.894 0.196862
586.268 8.08514 0.202958
557.882 7.79372 0.200788
537.335 7.96389 0.209102
554.76 8.46968 0.229083
535.68 8.28891 0.236258
520.353 8.40341 0.23881
523.396 8.7607 0.250908
491.363 8.48886 0.247364
499.78 8.72462 0.265044
486.686 8.7799 0.273462
472.601 8.7014 0.277623
443.098 8.75957 0.282713
441.383 8.76948 0.290168
443.502 8.97821 0.30578
429.198 9.02281 0.310087
418.949 9.1157 0.324863
411.74 9.23312 0.333042
404.202 9.18286 0.336917
399.071 9.32794 0.347349
395.86 9.32691 0.355217
389.127 9.64942 0.376273
381.518 9.66571 0.382319
374.677 9.71967 0.392692
357.794 9.58037 0.399722
366.786 10.0127 0.424085
358.463 10.0879 0.436302
346.648 9.94271 0.439118
350.238 10.2377 0.461952
339.422 10.0187 0.460411
337.992 10.3158 0.480391
329.143 10.397 0.495962
331.094 10.641 0.513302
318.926 10.4556 0.514898
314.399 10.705 0.536905
302.996 10.4387 0.532127
313.104 11.0355 0.570475
294.066 10.6917 0.559063
300.394 10.9476 0.586475
289.043 10.6821 0.58504
283.798 10.6911 0.594522
280.812 10.8352 0.611571
273.571 10.8308 0.624853
276.325 11.082 0.647898
277.75 11.4694 0.67465
265.094 11.3272 0.688332
265.802 11.3938 0.704042
260.745 11.2441 0.70081
259.729 11.58 0.736325
255.031 11.7492 0.755907
252.877 11.8523 0.774513
244.853 11.7918 0.794379
253.528 12.0616 0.819845
248.551 12.2796 0.846608
252.046 12.5185 0.883994
232.263 11.9601 0.849449
244.266 12.5444 0.908596
245.749 12.9174 0.946119
229.112 12.2804 0.919515
231.348 12.5712 0.947127
227.5 12.7315 0.971221
225.861 12.557 0.973896
217.887 12.2582 0.978225
215.426 12.7567 1.02439
214.106 12.7872 1.04402
211.155 12.7792 1.05902
213.366 13.2722 1.10769
207.988 13.5409 1.14973
208.335 13.2477 1.14799
206.551 13.4175 1.16949
202.404 13.6145 1.21115
201.785 13.4336 1.20874
200.138 13.5856 1.2395
197.894 13.6946 1.27135
199.892 14.0377 1.31511
190.418 13.6324 1.30399
189.75 13.6601 1.32222
187.981 13.8576 1.34679
185.99 13.8412 1.37544
185.029 14.1672 1.42308
188.2 14.1357 1.44118
183.003 14.3125 1.47207
186.828 14.4233 1.51675
183.636 14.8601 1.56453
177.266 14.4136 1.54767
183.484 14.9301 1.61273
176.741 14.8755 1.63951
177.607 15.031 1.66526
174.849 15.4702 1.74972
171.093 15.1487 1.74369
168.884 15.0503 1.74373
168.498 15.1567 1.77559
167.833 15.5345 1.83823
167.201 15.5934 1.87158
165.637 15.8887 1.93441
166.734 15.9869 1.95651
165.501 15.8664 1.96575
159.855 15.7286 1.98234
162.567 16.0484 2.06455
157.234 15.9932 2.06863
158.41 16.1279 2.10021
158.303 16.3622 2.16197
158.134 16.6274 2.22311
155.526 16.6628 2.23933
152.841 16.4055 2.24971
152.208 16.7574 2.30236
152.612 16.6205 2.3232
152.05 17.086 2.40811
147.4 16.8201 2.4114
145.199 16.6385 2.39467
144.172 16.7739 2.46449
145.977 17.4335 2.56448
145.466 17.2547 2.57409
151.762 18.2145 2.7422
147.597 17.7855 2.72413
144.466 17.8444 2.75766
141.494 17.6563 2.74646
141.951 17.4652 2.76218
138.763 17.785 2.81885
139.967 18.1389 2.92618
137.504 17.7766 2.88585
135.737 18.0103 2.95227
134.095 18.1308 2.99519
133.533 18.3116 3.0909
133.84 18.2615 3.09025
132.739 18.4738 3.15759
131.366 18.2538 3.16329
130.206 18.2322 3.18091
131.514 18.5578 3.25967
131.492 19.1161 3.41417
128.64 18.7155 3.36627
125.584 18.4959 3.35161
127.778 19.2949 3.52737
128.511 19.4556 3.6145
125.91 19.1019 3.56783
124.561 19.2382 3.61902
124.752 19.6544 3.74939
123.703 19.3779 3.7376
121.81 19.4408 3.78843
125.272 19.7658 3.88689
123.107 19.912 3.91755
122.557 19.936 3.99079
119.78 20.2186 4.10991
120.173 20.3627 4.15047
120.656 20.4514 4.21934
117.251 19.9584 4.13388
116.2 20.2981 4.2882
115.788 20.0319 4.20657
117.249 20.6817 4.41688
113.324 20.2269 4.35551
115.015 20.6979 4.52672
115.025 20.8025 4.54795
110.823 20.422 4.53825
115.976 21.5208 4.8029
112.407 21.1971 4.78574
110.08 20.8039 4.71465
111.467 21.4926 4.95
112.081 21.3304 4.92443
111.728 21.8107 5.09353
108.225 21.1471 5.00157
110.022 21.6684 5.12852
106.297 21.1845 5.05841
107.703 21.9844 5.308
108.352 21.7343 5.3051
112.364 22.5704 5.51838
106.826 22.1832 5.49627
103.742 22.0419 5.51777
105.172 22.4011 5.65211
101.722 21.8089 5.54852
102.398 21.9476 5.65921
102.695 22.1092 5.72332
101.216 22.1758 5.74423
103.126 22.7036 5.97745
104.109 22.9558 6.08332
100.712 22.5074 5.99822
99.9078 22.6555 6.07648
100.314 22.6674 6.19025
100.909 22.7394 6.20219
101.794 23.1757 6.39469
96.0024 22.6102 6.32538
101.341 23.7724 6.66916
97.4343 22.8841 6.4274
98.1604 23.8743 6.84312
95.4569 23.2991 6.63233
99.0863 24.0609 6.95778
95.0658 23.4759 6.83958
91.855 22.6878 6.68674
94.0851 23.551 6.99152
93.2815 23.485 6.98788
92.4819 23.2952 6.99642
91.5476 23.8459 7.2532
93.0993 24.0947 7.33736
91.2775 23.9062 7.36165
88.9909 23.6504 7.32836
94.7902 25.0061 7.76514
89.9242 23.7308 7.47751
91.5993 24.4859 7.73376
88.326 23.9277 7.62967
86.7041 23.8179 7.68114
89.1271 24.3537 7.89568
88.8304 24.4959 7.95591
91.0469 24.9902 8.16909
88.8891 24.6547 8.15894
87.4053 24.8643 8.28777
85.1528 23.9951 8.04568
85.7907 24.8504 8.40933
86.1103 24.876 8.4783
85.9878 25.1694 8.66321
85.7076 25.2687 8.7032
82.9763 24.6135 8.58092
83.3778 25.0777 8.82714
82.9511 24.4633 8.57132
85.3622 25.6844 9.07649
82.7161 25.2177 9.05375
82.0976 25.4278 9.16685
83.669 25.766 9.29726
82.2266 25.8826 9.52845
83.09 26.2149 9.58066
79.8937 25.492 9.4734
78.814 25.5265 9.5867
80.2705 25.9147 9.69996
79.2126 25.3959 9.60468
78.6688 25.9544 9.89224
79.6159 26.3034 10.013
79.0583 26.12 10.1041
79.0146 26.1779 10.2354
77.8511 25.4614 9.97931
79.5554 26.7788 10.4922
79.6555 27.2006 10.8142
79.0092 27.1023 10.7761
76.8528 26.6853 10.6982
75.6609 26.1257 10.4627
74.7121 26.7681 10.9571
74.5635 26.1752 10.7338
75.1091 26.2597 10.7542
75.166 26.6497 11.0462
73.9365 26.4636 10.9724
74.6749 26.9508 11.3446
73.1432 26.5222 11.1938
73.6255 26.8547 11.3492
73.8073 27.1708 11.5987
72.8961 27.4963 11.8542
74.0775 27.2964 11.9336
72.2769 27.0968 11.8289
71.6396 27.0109 11.8667
69.8646 26.2168 11.5726
71.4921 26.8382 11.8134
70.7253 27.2367 12.1332
71.671 27.7502 12.4776
72.1248 27.8483 12.4804
70.1417 27.8954 12.8285
68.4161 27.2531 12.516
70.1848 27.6854 12.729
69.8382 27.8862 13.0138
70.7478 28.1975 13.0713
69.2628 28.3658 13.3309
68.1115 28.1956 13.3127
67.7965 27.5415 12.951
69.8261 28.8373 13.8032
66.7675 27.9045 13.3971
66.329 28.102 13.6204
68.7034 28.6427 13.9335
67.3384 28.3101 13.8622
66.1521 28.0738 13.8706
66.3201 28.241 13.8921
66.2554 28.0347 13.8464
66.7071 28.7686 14.4778
63.9548 28.2414 14.1306
64.8306 28.5024 14.3967
64.764 28.4274 14.4242
64.5275 28.3814 14.5918
62.6437 28.1599 14.4219
63.5637 29.026 14.9524
63.1766 28.9503 15.0435
64.3014 29.3265 15.3887
63.6668 29.0291 15.3506
62.4631 28.6766 15.1766
61.5005 28.4363 15.1042
63.4162 29.5943 15.8239
62.2153 29.3201 15.6905
61.115 28.9887 15.7126
60.2848 28.8767 15.7478
60.025 28.4027 15.5888
59.5533 28.7227 15.9685
60.8765 29.128 16.0349
61.9852 29.8247 16.5986
61.2127 29.9214 16.704
61.9692 30.4013 16.9972
61.1485 30.0816 16.9903
59.9856 29.5808 16.6544
58.5527 29.5368 16.9429
58.2619 29.52 16.9968
58.2069 30.0106 17.467
57.7042 29.2794 17.0502
59.4663 30.0277 17.507
58.1561 29.6207 17.2282
57.2743 29.7824 17.6893
59.2617 30.6205 18.0798
56.7633 29.53 17.6993
56.7138 30.0271 18.0412
56.5597 29.836 17.8685
57.6791 30.7002 18.4426
56.2966 30.2863 18.3738
56.826 30.3049 18.6144
56.3456 30.0112 18.4609
57.7828 30.9918 19.0131
56.821 30.7057 19.1244
56.5925 31.2741 19.5373
56.4531 30.9777 19.1914
53.5417 30.1747 19.2579
54.732 30.2761 19.2639
54.7681 30.682 19.4856
55.1476 30.4187 19.5074
52.6568 30.1825 19.5021
53.9392 30.1604 19.5557
55.4492 30.6801 19.7499
52.4391 29.4198 19.1393
54.9035 31.7504 20.7515
53.7211 31.2531 20.6971
52.1223 30.3983 20.1997
53.7277 30.9731 20.4522
51.8379 30.865 20.6736
53.2793 31.6519 21.1653
52.2772 31.1046 21.1744
52.6551 31.0384 20.8729
50.6309 30.6399 21.0407
52.0266 31.6963 21.7082
52.1863 31.3814 21.6125
51.1015 31.3848 21.928
51.4517 31.137 21.5722
50.4585 31.0906 21.6208
50.8563 31.1185 21.8216
50.0506 31.0306 21.92
49.8539 31.1989 22.1873
50.9464 31.5824 22.581
49.9978 30.8665 22.1112
49.7881 31.1501 22.2857
49.2199 31.1526 22.425
49.9502 31.8707 23.163
48.9672 31.559 23.1186
49.8998 31.715 23.1639
48.8619 31.6911 23.1053
47.9875 30.9034 23.0937
49.0709 31.9137 23.6976
48.1332 31.5758 23.5561
47.4857 31.4006 23.4815
48.7934 31.8081 23.7904
48.6704 32.3505 24.639
48.9664 32.4106 24.5547
46.9041 31.2914 23.9813
48.1332 32.4724 24.9409
47.5739 32.1359 24.6381
47.8601 32.3228 24.8399
46.9278 31.5328 24.4185
46.8232 32.3386 25.3985
45.2842 31.1413 24.3483
44.4725 30.2875 23.7075
47.5233 33.1078 26.0438
45.8648 32.1081 25.4141
45.784 31.8437 25.6616
45.5523 31.8773 25.3786
44.8244 32.1009 25.4628
43.8695 31.4198 25.511
43.6634 30.9159 25.0078
44.0477 31.6079 25.6572
43.1845 31.7374 26.0833
45.4694 32.4335 26.5396
44.7208 32.3349 26.864
44.1185 31.6188 26.2065
43.3824 31.6343 26.3505
44.9046 32.8391 27.1503
43.0211 31.3778 26.6987
43.7565 31.5407 26.5157
44.7283 33.2002 27.9365
43.1351 32.2259 27.307
42.4569 31.9722 27.5486
42.5325 32.2076 27.4983
42.8421 32.5961 28.038
42.1597 31.6489 27.3447
42.9523 33.1679 28.8433
42.6377 32.2898 28.063
41.8816 32.3341 28.2972
42.1412 31.8671 27.9824
41.0208 31.5338 27.6202
40.8987 32.053 28.5492
41.8924 32.8019 29.1763
39.8108 30.6676 27.5302
41.2406 32.654 29.3576
40.9705 32.5319 29.1689
40.1961 31.8687 29.1413
40.3159 32.0362 29.1161
40.4326 31.7537 28.6449
39.8676 32.6404 29.8585
40.2597 33.0252 30.6834
40.4839 32.4583 29.7475
40.4547 32.8766 30.3051
38.0409 31.0145 28.9562
39.1085 32.1982 30.1105
39.5516 32.248 29.9156
38.8219 32.1389 30.6528
39.682 32.3964 30.5299
39.2078 32.8032 31.0889
38.1739 31.6947 30.143
37.6463 32.1302 30.5791
38.311 32.1096 30.8709
38.1983 31.9962 30.7796
37.9436 31.9698 30.826
37.1855 31.8233 31.1957
38.279 32.5885 31.6121
37.6566 32.0668 30.927
35.7923 31.4275 31.718
37.4043 32.0161 31.3181
38.3477 33.4035 32.8049
36.6723 31.7114 31.6154
36.9564 32.3008 32.3697
36.342 31.9271 31.7629
36.3435 32.1272 32.3642
36.6771 32.7207 33.0686
36.9009 31.8505 32.0964
35.4609 32.008 32.474
35.1102 31.3196 32.1472
36.0986 32.4951 33.0995
35.7519 31.8028 32.4607
35.5338 32.4337 33.5821
35.6859 32.4691 33.856
35.9348 32.3665 33.5834
34.6767 31.3012 32.1846
34.5469 32.0738 33.9868
35.2198 32.2184 33.6693
34.8891 31.7917 33.2464
34.0866 32.0343 34.0995
34.4666 32.1836 34.2914
34.8302 32.5812 34.7418
34.0319 31.8473 34.3803
33.9235 32.0781 34.3236
34.2492 32.4173 34.8398
33.9891 32.2647 34.8596
33.7022 31.4895 34.2059
33.2804 31.7936 34.6208
33.6434 32.1256 35.3639
32.8318 31.5167 34.9524
34.758 32.9101 35.4305
34.2799 32.9238 36.1981
33.6899 32.517 36.0738
33.6174 32.7217 36.1421
33.4278 32.3517 35.7604
32.4894 32.1196 35.8039
32.9636 32.5598 36.4454
32.8596 32.6689 36.6669
32.5297 32.7826 37.5145
32.9793 32.4566 36.6908
31.7537 31.6925 36.1885
32.3471 32.503 37.2471
32.2064 32.4268 36.8453
30.9295 30.6924 35.5517
30.791 31.337 36.6083
31.902 31.7437 36.7584
31.8578 33.1701 38.2592
31.0727 32.1393 37.8966
31.7562 31.9546 37.4911
31.7082 32.4294 37.9344
31.2387 32.516 38.4555
31.1017 32.2977 38.2231
30.8293 32.0012 37.7918
30.5348 32.0498 38.2031
30.9451 31.91 37.8714
29.8751 31.374 37.6765
30.2044 32.0012 38.5704
30.319 31.9203 38.5542
30.6283 33.1645 40.2915
30.115 32.5193 39.3626
29.3215 31.7563 38.7633
30.315 32.3082 39.5319
29.2782 31.5119 38.9067
29.5408 31.6638 38.7606
29.2927 31.791 39.8389
30.1487 32.3452 39.4249
28.3516 30.9924 38.931
29.6024 32.5114 40.263
28.9029 31.6434 39.5775
27.9462 31.0491 39.0588
28.1585 31.4806 40.3639
28.8439 31.6247 40.0657
29.3375 31.9729 39.9007
27.9081 30.9443 39.271
28.6151 31.7487 40.0371
27.9475 31.0207 39.7424
27.5461 31.6271 40.6752
28.1884 31.8704 41.1872
28.2343 31.8181 41.1392
28.2077 31.4765 40.5943
26.9072 30.5043 40.2643
28.4592 32.4178 42.1083
27.8543 31.2364 40.6223
27.6304 31.8971 42.0711
27.3998 31.1326 40.7819
27.275 31.7619 41.7434
27.2711 31.9142 42.4235
27.362 32.0285 42.936
27.3316 31.8266 42.2892
26.9991 31.2207 41.63
27.1626 32.128 43.1684
27.5851 31.9469 42.5954
26.8932 32.4809 43.9918
26.5988 31.3042 42.8227
26.7305 31.6577 42.8317
26.7968 31.569 42.4818
26.6635 31.382 42.924
26.4263 31.3527 42.5881
26.3407 32.0091 43.9747
26.5643 31.8523 44.1927
25.9185 31.0911 43.3608
26.3698 31.2578 42.8727
25.9894 31.7072 44.5216
25.5687 31.0613 43.2337
26.2847 32.7584 45.5092
25.0324 31.167 44.2627
26.1652 31.715 44.3
25.2055 31.3967 43.9164
24.923 31.2149 44.9132
25.5157 31.3069 44.0173
24.7531 30.4763 43.4513
24.7454 30.7349 43.843
25.3812 31.3119 44.9354
25.1209 31.2628 45.0832
24.924 31.5579 45.6242
24.8672 30.4489 43.5208
24.902 31.5336 45.8722
24.8581 31.0305 44.7598
23.4892 30.1616 44.7569
24.268 30.2752 43.9818
24.1193 30.6301 45.1166
24.0087 30.7387 45.8157
24.7175 31.3333 45.1302
23.4417 29.7015 43.7577
23.2503 30.2746 45.4929
24.0076 30.7846 45.8763
24.1468 31.477 46.6462
23.3446 30.0483 44.7788
23.4333 30.6078 46.0235
23.6151 30.7261 46.0865
23.2269 30.6111 46.9035
23.5916 30.6918 45.668
23.1948 30.7772 47.174
23.2826 31.1753 47.8861
23.5264 30.3697 46.191
23.0318 30.3097 45.4472
22.8267 30.4254 47.0721
23.193 30.9573 47.6617
23.7363 31.5756 48.5875
23.1334 30.8992 47.468
22.7748 30.6186 47.865
22.9354 30.37 46.7276
22.4966 30.719 47.8906
22.4184 30.3518 47.6501
22.1478 30.0003 46.5292
21.8027 29.8173 47.1046
22.2073 30.296 48.0826
22.1391 30.0745 46.9493
22.0712 30.9048 49.1507
22.4048 30.4572 48.2882
21.5618 29.8204 47.5977
21.8317 30.1476 48.3917
21.8688 30.0275 47.7113
21.8709 30.6432 49.1042
21.4771 30.2835 48.5999
20.8272 29.469 47.8311
21.2213 29.8361 48.7637
21.9924 30.8583 49.4222
21.3915 30.5232 49.5708
20.8373 29.3096 48.5629
21.2382 30.3106 49.4066
21.2463 29.586 48.2089
20.935 30.1995 50.3549
21.051 30.4457 50.2461
21.1589 30.3903 49.9084
21.1423 30.2898 49.7299
20.6336 29.6871 49.4659
20.4668 28.8444 48.5974
20.7049 30.4397 50.8578
20.705 30.0418 49.9938
20.041 28.4921 48.6677
21.2632 30.7561 50.1968
19.8127 29.2404 49.7328
20.0573 29.8229 50.9601
20.3114 29.2768 49.6558
19.9559 29.5116 50.3108
20.5019 30.2491 51.8705
20.7491 30.55 51.8678
20.8065 30.3741 51.1955
19.8688 29.8502 51.1168
19.4289 29.3086 51.5463
20.2701 30.1749 52.0314
20.0468 29.7891 51.9287
19.7579 29.2175 50.374
19.7339 29.7924 51.7457
19.5099 30.0269 52.9639
20.2513 30.3566 52.5382
19.9071 29.9976 51.7577
19.5466 29.8017 52.6194
19.3274 29.288 51.8029
19.6969 30.12 52.4208
19.5065 29.716 52.5863
19.3916 29.6725 51.9483
18.973 29.4946 52.9357
19.2999 28.9833 51.6587
18.8188 28.8448 51.6561
18.7334 29.0519 52.8128
18.8178 28.9331 51.519
18.6473 28.7794 51.7959
18.9655 29.0549 51.8332
18.4712 28.9549 52.5393
18.6288 28.624 52.3072
18.4667 28.8324 52.1058
18.7 29.2981 53.4594
18.3819 28.6641 52.5443
18.5742 28.5851 51.5521
18.1743 29.0202 53.2733
18.5304 29.2233 53.0735
18.1911 29.3856 54.4024
17.9086 28.3162 52.4391
17.7044 27.9772 51.8859
17.5401 28.2646 53.4097
18.088 28.6887 52.4557
17.4717 27.9075 52.7784
17.9108 27.9429 51.465
17.7099 28.9803 55.3752
18.1931 28.6266 53.2977
17.625 28.5971 54.6544
17.8918 29.5629 56.2733
18.2677 29.3003 54.5965
17.8817 29.1831 55.2814
17.4327 27.9974 52.7756
17.1894 28.6375 54.7865
17.9428 29.35 55.9936
16.8663 27.6886 53.3759
17.6299 28.3821 54.1509
16.9682 28.5375 55.1052
17.2394 28.2939 54.0493
17.022 28.4261 54.7336
17.2267 28.659 55.0171
17.1047 29.0332 56.8915
17.2091 28.1546 54.9408
17.2704 28.9206 56.2669
16.8876 27.9121 54.974
17.0454 28.0816 54.1124
17.0261 28.7088 56.525
16.6806 28.0641 54.5263
16.2974 28.2788 56.3037
16.5999 27.6489 54.8865
16.8442 28.5008 56.325
16.736 28.4617 55.0003
15.9471 27.7125 56.6344
16.9336 28.0526 55.6011
16.7271 28.8642 56.482
16.0273 27.573 55.9537
16.3547 27.5757 54.8399
16.3764 28.4434 57.5433
16.2335 27.7854 55.4497
16.2251 28.555 57.4919
16.1251 27.5177 55.2346
15.7512 27.7341 57.1819
16.362 27.9719 56.9064
15.9049 27.4152 56.2541
16.2377 28.083 56.5027
15.8037 27.5754 56.5881
15.7149 27.3719 55.7126
15.8694 28.2524 57.7926
15.5967 26.9129 55.7128
15.512 27.3423 56.8044
15.9464 27.8016 56.7754
16.0539 28.4241 59.1636
15.8557 28.2054 58.2612
16.034 28.1579 58.0118
15.3702 26.9359 56.4017
15.4116 27.0866 56.3898
15.2989 27.2471 57.1943
15.1148 26.4246 55.3806
15.2229 27.425 57.7492
15.1904 27.6025 58.1484
15.4322 27.9554 58.0953
15.2481 27.1285 57.1973
15.3201 27.5379 57.5086
14.3825 25.9887 56.6811
15.0264 27.2009 57.4219
14.9932 27.6836 59.4123
15.0928 26.9975 57.5638
14.9481 27.3233 58.3027
14.5818 26.2678 57.1567
14.8107 26.8521 57.6359
14.7493 27.4215 58.1224
14.5306 26.9674 59.017
14.6072 26.3469 57.3997
14.5901 26.72 57.3121
14.3416 26.457 57.8806
14.6204 26.9657 58.7257
14.5982 27.1688 58.662
14.1678 26.4462 57.7396
14.0358 26.1404 56.7573
14.1701 26.7975 59.8609
14.9228 27.6149 60.4625
14.7888 26.7157 57.8738
14.0314 26.6324 59.5804
14.2252 26.8657 59.4799
14.674 27.1191 59.0091
14.2739 27.073 59.494
13.9982 26.4864 59.0953
13.5316 25.186 56.7663
13.9183 26.8127 60.1702
13.7474 26.1465 58.2976
13.9561 26.4516 58.8799
14.2001 27.1263 60.3553
13.9485 26.989 61.2619
14.2316 27.0932 60.6191
13.5827 25.7875 58.7703
13.9585 26.7279 60.9675
13.7579 26.0225 58.3069
13.716 26.9886 61.2511
13.7773 26.196 60.5772
14.0954 26.8154 60.4574
13.6606 26.0518 61.0384
13.8858 26.8171 60.5266
13.6784 26.3809 61.0398
13.7576 26.3678 58.9992
13.2763 25.8923 59.5813
13.2693 25.8248 58.8918
13.1676 25.7103 59.8951
13.545 26.6861 61.5084
13.3231 26.0358 59.7651
12.9616 25.2805 58.9071
13.4391 26.2683 61.7211
13.5374 26.4558 61.7461
13.5563 26.4594 60.8854
13.3297 26.2194 61.2363
13.0246 25.4512 59.672
13.2879 26.3093 61.6974
13.3362 26.3355 61.4504
12.7958 25.6542 61.3953
13.3038 26.2267 61.5679
13.1542 26.2268 61.207
13.0783 25.8353 60.516
12.4783 25.3929 62.0224
12.7799 25.5475 60.5593
12.5883 25.2633 61.072
12.7414 25.9046 62.0675
12.6941 25.083 60.3175
12.7264 25.4323 60.444
12.4993 25.8845 62.0475
12.7364 25.9025 62.3834
12.7163 25.8099 62.7181
12.8653 25.8459 61.1201
12.4122 25.067 61.0653
12.3926 25.777 61.6135
12.7826 25.6628 61.3315
12.6158 26.0583 63.5066
12.0827 24.7032 61.1166
12.4566 25.7026 62.7052
12.75 25.5443 61.6262
12.3809 26.072 64.5098
12.3325 25.1945 61.2137
12.2276 24.9226 60.9458
12.0456 25.1702 61.657
12.3008 25.0588 61.0103
11.9596 24.7556 61.828
12.0304 24.6313 61.0436
12.0755 24.7705 61.1045
11.9012 25.1486 62.0958
12.1968 25.3503 63.1982
11.9122 24.972 62.4204
12.165 25.0477 62.4595
12.0098 24.5937 60.7536
11.8138 25.5144 63.6504
12.0561 25.0869 62.6006
11.9189 24.5976 60.7268
11.4831 24.4041 62.3944
11.8834 24.5506 61.6262
11.7099 24.4556 61.1435
11.5497 25.0894 63.6994
11.8673 24.7951 61.9536
11.4399 23.9853 61.0468
11.7196 24.9091 62.2916
11.5085 24.8537 64.6565
11.9198 25.0171 62.7078
11.4373 25.0461 65.1676
11.7608 24.8025 63.8099
11.6685 24.8317 63.6036
11.7371 24.5792 62.6119
11.388 24.981 64.4958
11.6754 24.5202 62.6183
11.3337 24.2744 63.6867
11.5782 24.8561 62.5241
11.2684 24.614 62.4889
11.1449 24.8323 64.9692
11.6383 24.947 64.5295
11.3163 24.4269 63.6446
11.2154 24.4653 63.1673
11.0393 23.8957 62.7209
11.4535 25.2265 65.5479
11.2476 24.1685 63.9757
11.3428 24.7573 65.1756
11.4604 24.9928 65.0259
11.4457 25.0694 66.4999
11.5571 25.434 66.1779
11.2938 24.7665 64.4523
11.1644 24.6427 64.6795
11.2291 24.9676 66.1844
11.2109 25.2102 65.8127
11.0171 24.793 66.1025
11.1798 24.6926 65.8782
11.2352 24.453 63.9441
10.8826 24.3834 64.9207
10.6619 23.5143 62.6471
10.9481 24.13 63.4838
10.4279 23.7659 64.472
10.7764 23.8862 64.4652
10.7607 24.036 64.5254
10.9785 24.4793 65.3257
10.8747 24.3946 65.8863
10.7212 23.977 64.9185
10.6533 23.4318 63.6642
10.9223 24.0657 65.1454
10.5036 23.8717 65.6696
10.6439 23.3797 63.2085
10.4342 24.1301 65.5519
10.4542 23.9286 64.9751
10.5155 23.418 62.9242
10.2704 23.6831 65.6049
10.4151 23.5878 63.9045
10.2996 23.617 66.0314
10.7878 24.2678 65.4901
10.1306 22.7875 62.9552
10.3207 23.4805 64.926
10.4217 23.7087 65.7004
10.5469 23.7801 64.7248
10.2325 23.5123 64.977
10.2543 23.8472 66.2815
10.3477 23.2572 64.8028
10.2744 23.5999 64.8406
10.1412 23.349 66.2001
10.6379 24.0419 66.2273
10.2579 23.8259 66.0019
10.2387 23.2637 64.3846
10.134 23.6898 66.8355
10.2785 23.5013 65.94
10.2767 23.6045 65.1587
10.0171 23.3812 65.4205
9.91561 23.4412 66.1835
10.1052 22.7326 63.9305
9.88332 22.6733 63.9562
9.99759 23.2476 64.0376
9.85893 23.0886 65.6624
9.64362 22.4879 63.6378
9.90118 23.1451 65.4058
9.83344 22.8544 63.7646
9.71265 22.7139 64.9115
9.84036 23.0221 65.8366
9.8047 22.9099 65.2516
9.66075 22.814 65.3046
9.67971 22.8146 65.5919
9.70794 23.0261 66.7361
9.86026 22.555 64.2239
9.6263 22.8046 65.5119
9.57963 23.0328 66.0753
9.57391 22.2353 63.1913
9.58105 22.3398 63.1213
9.51602 22.917 66.1587
9.67522 22.7243 66.64
9.67277 23.1803 66.4531
9.68553 23.064 65.6179
9.51103 22.8846 67.0717
9.67199 22.6123 64.9176
9.41259 22.5963 64.8541
9.43495 23.2094 67.6494
9.33347 22.5302 66.6163
9.59869 22.9248 67.3644
9.59257 23.1421 66.6013
9.22502 22.3533 67.5373
9.66206 22.6492 64.5623
9.28059 22.7549 66.6047
9.31191 22.3346 66.282
9.42096 22.8614 67.5835
9.45211 23.2285 67.9689
9.52162 23.2671 68.9308
9.50674 22.8015 66.794
9.28456 22.3592 66.7438
9.31454 22.1999 64.61
8.72628 21.8387 65.2238
8.94723 22.0801 66.3561
9.27975 22.3673 66.8548
9.31298 22.4336 65.5461
8.89613 21.9108 64.4354
8.85523 21.7159 65.7023
8.9536 21.9723 66.6025
9.03351 21.9649 65.6534
8.98376 22.0773 65.5484
9.04318 22.1354 66.561
9.0366 21.8623 66.8724
9.20864 22.4791 68.4448
9.20669 22.1126 65.7676
9.03008 22.7017 66.9581
8.64863 21.2428 66.4195
9.06898 22.1635 66.1935
8.88189 21.9062 66.4824
9.07948 22.5118 66.8771
8.78852 22.2353 66.9894
8.80169 21.9381 65.6022
8.65224 21.2753 65.0271
8.64504 21.2281 64.9853
8.58792 22.0149 67.4397
8.76749 22.6392 67.8481
8.80001 21.4948 65.6424
8.64469 21.6154 67.564
9.03641 22.7303 68.1579
8.66693 21.8083 67.8498
8.85542 21.9681 67.3118
8.7454 21.7312 66.2256
8.50937 21.7227 66.3935
8.61518 21.585 66.7751
8.56154 21.6518 66.1663
8.40884 20.8937 64.8104
8.4931 20.8467 64.7685
8.35658 20.8005 65.47
8.45516 21.5459 66.368
8.51532 21.4869 65.6382
8.51879 21.4129 67.0691
8.44764 21.6288 67.3418
8.47964 21.4776 65.4792
8.40443 21.3336 66.2428
8.37655 21.5624 66.8925
8.34078 21.1578 66.6297
8.38416 21.1331 66.6418
8.48094 21.6432 67.3105
8.22816 21.0875 65.6688
8.21406 21.1118 68.0495
8.64146 21.485 66.2468
8.39397 21.3901 65.4848
8.1414 20.6963 65.6281
8.28256 20.9991 67.1942
8.42312 21.3538 66.913
8.2524 21.6003 67.6867
8.25272 21.1107 66.7378
8.05562 21.1249 67.8052
8.37079 21.6546 69.3564
8.4108 21.2419 67.4908
8.31434 21.4323 66.838
8.20464 21.5209 67.461
7.94406 20.665 67.7031
8.2288 20.5127 65.9384
8.06124 20.6436 66.1902
8.12943 21.435 68.7251
8.30004 21.0446 66.8496
7.96892 21.1715 67.9202
8.04365 20.5552 66.329
7.91739 20.7476 66.4936
8.09675 20.7177 65.9808
7.91432 21.0148 67.6606
7.99432 21.0657 68.0479
8.02926 21.2497 67.7501
7.92964 20.3266 66.5238
7.91704 20.7666 66.4223
7.84503 20.6742 67.8257
7.95922 20.1556 65.1075
7.84716 20.536 66.6441
7.85809 20.678 66.3728
7.91516 20.6033 67.6081
8.05051 20.6749 66.4309
7.79172 20.5546 68.2185
8.08419 21.1753 68.4787
7.97782 21.2276 68.3699
7.79955 20.3442 65.9942
7.7394 20.6799 67.4695
7.66782 20.5426 67.5644
7.67157 20.1085 67.4205
7.85084 21.0449 67.13
7.59628 19.9613 66.179
7.6974 20.3391 66.5717
7.70584 19.9302 66.96
7.77552 20.145 65.1547
7.5083 20.1717 66.2332
7.68547 20.64 68.6777
7.79637 20.5185 67.1374
7.5774 20.6009 67.9087
7.70699 20.3546 67.0409
7.64902 20.4928 69.4781
7.77194 19.8807 67.1953
7.77512 20.8293 68.1704
7.74684 20.7365 67.218
7.57646 20.5983 68.186
7.60415 20.0781 64.7832
7.34791 19.9508 68.331
7.77902 20.6284 68.7877
7.67205 20.5763 69.3887
7.65431 20.1945 68.179
7.74746 20.5666 67.82
7.46645 19.9639 65.1683
7.34774 20.4578 67.8643
7.35787 19.868 67.2482
7.62478 20.7816 68.0538
7.33424 19.8144 67.9765
7.5443 20.062 66.1611
7.27843 20.3351 69.3882
7.35315 20.352 68.7428
7.4084 19.3092 66.2345
7.50388 20.461 68.5888
7.47744 20.4387 68.8443
7.67912 20.7903 68.7741
7.31607 19.8767 68.4274
7.4105 20.5294 69.9765
7.56224 20.2436 69.0386
7.3883 20.0726 68.2473
7.40213 20.0365 68.2681
7.26024 19.4359 67.4118
7.41875 20.1666 67.8219
7.18297 19.9222 67.4396
7.16683 19.9781 68.4285
7.32735 20.017 67.91
7.21272 19.8776 67.1049
7.12063 19.5958 66.5026
7.16879 19.6442 67.1543
7.22849 19.5188 67.3811
7.14627 19.8895 67.1018
7.05483 19.5564 67.6711
7.26993 19.6275 67.9112
7.13293 19.8376 68.8403
7.22401 19.8322 69.6899
7.52464 20.366 67.8704
7.08359 19.8044 68.6485
7.08246 19.7427 67.5571
6.97617 19.5613 68.2281
7.21625 20.0156 67.5048
6.98811 19.5086 68.9692
7.22245 19.9423 68.7757
7.17328 19.6654 69.1664
7.20647 19.5775 66.8459
7.09441 20.0636 68.5907
7.05915 19.2327 68.029
7.08768 19.4328 67.0141
7.05302 19.6339 67.5983
6.8543 19.8218 69.5227
7.23124 20.0703 69.8435
7.06243 19.2817 67.8255
7.05414 19.3427 66.815
6.80712 19.707 69.9086
7.09252 20.0126 67.7514
6.84562 19.3365 68.1901
7.00287 19.3705 68.0202
6.84299 19.6596 69.0474
6.93773 18.9922 67.5106
6.87618 19.8608 68.4486
7.00061 19.5432 68.8003
6.89513 19.4615 68.8873
7.02939 19.7146 69.7426
7.03018 19.4187 67.3901
6.91937 19.082 68.5742
7.08054 19.5461 66.9298
6.67307 19.2178 69.0421
6.84922 18.7678 66.1724
6.85131 19.101 67.7376
6.81054 19.3112 66.6648
6.61359 18.8347 68.0422
6.92625 19.6076 70.0149
6.92141 19.4266 68.3474
6.74354 19.3721 68.1194
6.75629 18.9588 67.9515
6.83102 19.4692 69.4508
6.90382 19.6485 70.2207
6.91393 19.6278 69.2626
6.85085 19.058 67.4393
6.71652 19.304 68.4195
6.7275 18.7762 67.9601
6.76296 18.5992 67.7009
6.78614 19.6801 69.2138
6.80373 19.5618 69.5737
6.75895 19.4987 71.0201
6.89169 19.1049 67.5484
6.62223 18.9172 67.4862
6.77076 18.84 69.3516
6.837 20.0959 71.9748
6.88407 19.739 69.6507
6.69126 19.5392 70.887
6.91673 19.6914 70.8876
6.88243 19.2472 67.605
6.68558 19.3267 68.2693
6.54203 18.7461 68.5753
6.64898 19.0579 70.3143
6.97291 19.703 70.5422
6.69205 19.546 69.6316
6.65785 19.8937 72.5744
6.84348 19.3238 71.3116
6.83173 19.4761 70.7006
6.71584 19.2746 68.9484
6.67486 18.5102 67.4508
6.594 19.089 68.2051
6.57114 19.1907 71.234
6.71809 19.0425 68.3862
6.55423 19.0365 68.0792
6.57488 18.9699 68.6528
6.51122 19.1026 69.7059
6.65432 19.236 68.8301
6.53741 18.7026 68.0802
6.41177 18.9454 70.0635
6.54089 18.7491 69.3977
6.61087 18.8388 67.2756
6.38841 18.5713 69.1304
6.43059 19.0902 69.3766
6.56616 18.538 68.0958
6.48103 18.7695 67.0728
6.34371 18.4473 68.4198
6.46087 18.8351 70.555
6.65899 18.8642 68.9803
6.53008 18.3756 67.2256
6.35434 18.399 67.8451
6.30921 18.4368 67.6552
6.3773 18.6544 68.7115
6.41059 18.9478 70.5282
6.5892 18.6363 65.759
6.16973 18.2871 67.1593
6.34918 18.3822 69.189
6.44761 18.6117 68.9129
6.45267 18.4995 68.7366
6.35973 18.3974 67.3827
6.27221 18.9213 70.4323
6.44891 18.9147 69.8478
6.39608 18.9361 68.6431
6.20592 17.9716 69.0765
6.35965 18.5682 69.0535
6.34672 18.8958 70.0626
6.41033 18.7177 68.7481
6.3588 18.5709 68.1709
6.22631 18.5518 68.8364
6.32831 18.8403 69.1875
6.31402 18.3173 67.1058
6.0778 17.7441 68.4713
6.36769 18.3405 68.2255
6.22371 18.4466 67.7836
6.12484 17.9482 68.5104
6.32623 18.6451 68.2061
6.25048 18.2989 69.3863
6.39836 18.4649 67.878
6.28738 18.2204 67.3292
6.20706 18.3025 68.503
6.15426 18.1049 67.2501
6.23718 18.1058 68.2248
6.13874 18.1762 67.4465
6.12216 18.1892 68.9488
6.17795 18.1211 68.6156
6.10613 18.0432 67.2606
6.08751 18.0044 66.8491
6.00177 17.6302 68.5591
6.06529 17.9229 64.9195
5.89203 17.6299 66.6949
6.00488 18.319 68.4716
6.08953 18.2614 67.8071
6.06311 18.0846 70.236
6.39659 18.2758 67.2352
6.06989 18.1837 69.0104
6.11812 18.39 70.2453
6.17948 17.9042 67.3093
6.08361 17.9881 67.6964
6.05422 17.9764 69.8332
6.11132 17.6177 64.5583
5.8665 17.7875 66.5912
5.99375 17.9562 68.0885
6.09322 17.5901 65.8641
5.82232 17.5024 67.9345
5.93054 17.7589 66.6651
6.03374 17.6535 66.861
5.95252 18.1123 67.9574
6.01731 17.3658 67.314
5.8971 18.2039 67.5044
5.96889 17.8813 68.9202
6.14506 17.7609 67.4366
5.94422 17.7117 67.8075
6.04588 17.8355 68.1033
6.09644 17.853 69.2156
6.0543 18.081 68.0061
6.00651 18.2317 69.264
6.06863 18.209 68.4798
6.04812 17.6936 68.0948
5.97479 17.9632 69.1668
6.11466 17.8125 67.7175
5.91783 17.6869 67.984
5.96819 17.6655 67.9758
5.89888 17.829 67.6613
5.92301 17.9372 68.3009
5.94817 17.669 65.946
5.76193 17.3176 67.5022
5.87355 17.8061 67.2314
5.85281 17.9956 67.9426
5.86882 17.7943 69.1672
5.9273 17.8742 69.0524
6.00588 17.7343 67.4516
5.80525 17.6501 68.3032
5.8319 17.7928 67.4858
5.79597 17.7479 69.5501
5.99505 17.6738 67.7293
5.87258 17.5614 66.3709
5.73067 17.6001 67.5605
5.82804 17.894 68.3524
5.93392 17.7956 70.1746
5.94726 17.5465 67.3086
5.90321 17.1637 67.7515
5.84969 17.803 68.5002
5.97661 17.6433 66.7864
5.67966 17.5292 67.9588
5.95994 17.2267 67.9683
5.88132 17.6583 66.9934
5.8496 17.2135 67.3928
5.84966 17.2434 66.8731
5.79804 17.678 67.5017
5.85172 17.2187 66.1339
5.73708 16.9831 67.2057
5.76223 17.7332 66.5363
5.71689 17.063 66.49
5.75916 17.5338 66.1714
5.60855 16.9409 68.0431
5.90704 17.6597 67.1179
5.84055 17.4157 67.3969
5.68956 17.4502 67.6472
5.72066 17.5867 68.6783
5.73806 17.688 67.6043
5.64377 17.0523 67.3216
5.76098 17.585 69.2826
5.97119 17.3374 67.4979
5.78907 17.3931 69.322
5.8124 17.8618 67.9846
5.71962 17.1156 67.1954
5.76567 17.5034 67.8648
5.82024 17.1952 67.6447
5.85174 17.5187 66.1722
5.65823 16.805 66.9941
5.78854 17.8344 68.1969
5.68978 16.9293 67.6845
5.69275 17.5896 67.4037
5.58265 17.403 68.4567
5.80082 17.5849 66.855
5.6849 17.5288 69.0094
5.82012 17.6909 68.8972
5.70778 17.0919 66.1391
5.64317 16.8769 66.4612
5.67123 17.0718 66.3957
5.67044 17.2234 68.8724
5.79612 17.3249 66.4621
5.57698 17.1161 68.9782
5.78628 17.1012 67.0909
5.69104 17.5002 67.7552
5.71319 17.325 67.2305
5.63774 17.2113 67.7522
5.70997 17.4983 67.4548
5.68189 17.0384 66.4392
5.63366 17.066 67.3127
5.52879 17.4826 68.6853
5.73904 17.1262 69.0692
5.79299 17.9134 68.3155
5.68926 16.9604 67.8093
5.74483 17.3462 66.4417
5.5215 17.0975 66.9042
5.64278 16.8976 67.2424
5.62873 17.2582 66.7812
5.67355 17.8384 70.2077
5.87727 17.4313 68.2699
5.67691 17.5073 69.6171
5.73538 17.3398 69.1238
5.78774 17.5171 68.3161
5.63051 16.9154 67.5882
5.69312 17.3037 67.1645
5.69544 17.1234 67.7874
5.68783 17.6837 70.0341
5.8058 17.2708 67.813
5.62659 17.4909 67.6955
5.56278 17.1996 69.875
5.80752 17.4239 67.2591
5.62518 17.2302 67.9073
5.59063 17.5403 67.2494
5.518 16.7127 67.0901
5.55675 17.1303 68.8139
5.6891 17.3508 68.5318
5.75822 17.378 68.5293
5.72992 16.9791 66.7829
5.52069 17.1129 68.2725
5.59402 17.0084 66.6667
5.64774 17.4626 67.7805
5.47154 17.0477 68.7779
5.87907 17.4265 69.0404
5.72099 17.4059 68.9529
5.68715 16.6411 67.1745
5.54739 16.9665 68.1395
5.54842 17.399 67.4911
5.59361 17.2535 67.8156
5.59239 16.8699 64.718
5.35825 17.2179 69.1252
5.71758 17.591 68.505
5.68299 17.2027 68.5706
5.65897 17.1826 68.4446
5.65844 17.4896 67.654
5.62031 16.975 69.2998
5.71568 17.0852 67.9048
5.57607 17.2215 67.1489
5.45499 16.7467 68.3572
5.54731 17.2297 68.0053
5.5365 16.9468 69.7237
5.76211 17.5614 67.558
5.5525 17.0348 68.1772
5.624 17.1782 69.184
5.70642 17.7807 68.657
5.52833 16.8047 67.5911
5.53194 17.2742 67.8864
5.5079 17.2725 69.1104
5.58654 16.9208 67.4526
5.5966 17.1052 66.9061
5.46906 16.0899 67.025
5.51015 17.1621 66.4519
5.41429 16.8377 66.723
5.34346 16.6632 67.3372
5.41598 17.4861 68.2582
5.56928 17.229 68.4136
5.48185 17.0802 68.1798
5.45902 16.8922 68.4858
5.46545 17.447 68.7411
5.55367 17.197 68.534
5.60707 17.2633 70.2185
5.75283 17.56 68.2976
5.53671 17.2317 68.4765
5.52634 17.5689 68.5305
5.57091 17.1967 69.7708
5.69301 17.2067 68.4487
5.51024 17.0469 67.2132
5.49107 17.1471 68.3578
5.54699 17.2356 66.8335
5.44716 16.8581 68.0977
5.44346 16.7755 68.3531
5.59918 17.3098 67.7119
5.48768 17.0922 67.3034
5.4795 17.0169 68.2297
5.46831 16.9167 68.5912
5.56859 17.3926 68.0362
5.41212 16.7375 67.1945
5.50746 17.2324 66.9392
5.52262 16.8036 65.9538
5.33879 16.9587 69.9062
5.62981 16.9323 68.791
5.64977 16.7828 67.7285
5.49744 17.2154 67.8344
5.61132 16.9642 68.6592
5.53095 16.9185 67.2448
5.44773 17.3501 68.2605
5.49339 17.2249 65.8628
5.36489 16.7289 67.9232
5.43073 17.1096 68.2828
5.5318 17.2358 69.7772
5.62473 17.2328 69.2838
5.55964 17.1642 67.845
5.46534 17.0921 69.2285
5.59483 17.0257 65.8249
5.40391 16.7547 69.4292
5.55503 17.4633 67.4717
5.4052 16.8862 68.5445
5.58459 16.9705 68.2011
5.53569 17.5847 68.6719
5.55657 17.0351 69.7291
5.634 17.2953 68.6061
5.56749 16.9283 67.9447
5.49514 17.9336 69.304
5.57035 17.1514 68.771
5.60784 16.6522 68.6066
5.64408 17.2528 69.2714
5.55246 17.3814 67.8566
5.39665 17.4277 69.3813
5.6278 17.2203 71.0835
5.81619 18.1825 70.5695
5.67358 17.7808 70.0658
5.62011 17.295 70.7919
5.60708 17.8867 71.427
5.73429 18.3136 74.3895
5.99274 17.3888 66.4483
5.5013 0 0