# pn-170911/RbIIR-46-RbIIA-1280-1959.psd
# Power spectrum* (dif=0,1,2) (really just |FT|^2)
# NOTE: only the first half! (symmetric)
# weeks: 1280-1959
# 4059 clock-days, 161 excluded
# PSD: 1441
6504.69 0.213787 0.0304049
558992 10.8372 0.0290889
2.0576e+06 39.5237 0.0300605
317546 10.1644 0.0302992
202062 11.7448 0.0316307
97951.7 7.28275 0.0315564
67151 7.71193 0.0304169
43856.4 6.58493 0.0314935
35274.8 6.67108 0.0307909
26191.9 6.27414 0.0325917
21806.6 6.13534 0.0322729
17371.8 5.92548 0.0332523
14495.8 5.8887 0.0330216
12184.9 5.81599 0.0360834
10706.7 6.03813 0.0355533
9104.48 5.74855 0.0364765
8188.01 5.81743 0.0368921
7174.08 5.85553 0.0389898
6512.51 5.87235 0.0388909
5590.17 5.66049 0.0390207
5294.44 6.03652 0.041141
4691.81 5.85409 0.0412887
4386.98 6.07499 0.044179
3953.2 5.83249 0.0456477
3686.47 5.9391 0.0467138
3404.36 5.9074 0.0485163
3124.32 5.92977 0.0486437
2924.1 6.05199 0.0513989
2793.01 6.40411 0.0540407
2607.32 6.48657 0.0560685
2472.74 6.38255 0.0582229
2366.16 6.65292 0.0582064
2207.79 6.67713 0.0612172
2042.29 6.65441 0.0656484
1951.58 6.61911 0.0675266
1909.84 6.88184 0.0715912
1798.03 7.20326 0.0734439
1754.55 7.3369 0.0792994
1652.38 7.29905 0.0804049
1580.52 7.39221 0.0839901
1501.48 7.4529 0.087291
1486.11 7.79678 0.0909311
1410.04 7.96056 0.0970749
1394.13 8.11067 0.104072
1292.84 7.89099 0.103269
1228.02 7.95881 0.106167
1264.02 8.37537 0.115431
1204.71 8.62193 0.12306
1198.87 8.92291 0.127949
1147.65 8.99079 0.132229
1081.38 8.86818 0.137842
1083.12 9.37859 0.145295
1049.99 9.70876 0.156204
1054.85 9.83603 0.159434
1027.98 9.99623 0.167887
974.704 10.1032 0.176475
964.945 10.3112 0.184487
921.805 10.1734 0.189306
888.834 10.2421 0.191629
882.296 10.5117 0.202447
867.015 10.7239 0.213522
861.685 11.2197 0.225593
845.345 11.3562 0.233852
823.512 11.4266 0.246454
792.806 11.2554 0.247484
771.32 11.3265 0.25628
766.164 11.6409 0.271359
763.751 12.0544 0.280304
751.546 12.6607 0.310049
722.592 12.3051 0.310311
712.816 12.3451 0.323734
704.41 12.674 0.334434
710.269 13.5007 0.362818
670.206 12.9051 0.356546
671.049 13.1509 0.369364
662.55 13.3939 0.386933
662.305 13.854 0.407466
632.714 13.8504 0.418732
620.595 13.7885 0.422752
604.822 13.7322 0.43946
604.772 14.0298 0.45727
584.997 13.9469 0.461638
577.119 14.5118 0.491605
564.37 14.4763 0.501336
546.751 14.4072 0.510455
555.759 14.8731 0.538176
534.828 14.8328 0.553405
526.273 14.9555 0.561606
530.58 15.2469 0.591131
519.855 15.6652 0.620101
505.419 15.4427 0.619969
521.831 16.1214 0.659479
492.055 15.4325 0.650046
481.761 15.535 0.665295
474.463 15.6414 0.680098
475.21 15.9419 0.706291
571.569 20.9957 0.941482
462.603 16.3164 0.752974
445.236 16.1631 0.764344
430.344 15.9213 0.770844
425.797 16.1772 0.800142
433.226 16.782 0.844131
453.689 18.1126 0.926661
417.579 17.0819 0.887387
400.232 16.4523 0.869415
402.305 16.866 0.901341
406.407 17.2788 0.945562
383.284 16.7644 0.933799
378.726 17.0168 0.97176
382.935 17.4407 1.00739
383.773 17.7835 1.04112
368.953 17.5281 1.04701
365.537 17.6995 1.06673
370.913 18.4903 1.14901
366.662 18.4259 1.15375
353.244 17.9984 1.14991
340.353 17.7904 1.16223
330.079 17.4637 1.15373
342.706 18.4842 1.24292
334.936 18.337 1.25413
331.827 18.6915 1.30415
320.199 18.1574 1.28853
317.764 18.1404 1.30034
310.136 18.4581 1.35029
321.905 18.872 1.40136
318.748 19.3439 1.45636
314.053 19.2593 1.47332
301.746 18.8139 1.45594
302.287 19.2185 1.51412
292.511 18.9981 1.51975
285.786 18.7469 1.52493
290.542 19.677 1.62457
286.189 19.7819 1.65191
277.822 19.3329 1.64969
275.679 19.3087 1.6542
277.155 19.6094 1.71572
271.017 19.5217 1.73087
275.291 20.2784 1.82668
272.654 20.3591 1.84774
259.531 19.6084 1.80909
262.916 20.1007 1.87712
253.575 19.9875 1.91173
250.334 19.8519 1.90734
259.096 20.8167 2.03
246.461 20.1784 2.00563
239.06 19.7529 1.981
238.45 19.9642 2.03494
243.476 20.535 2.1145
232.872 20.0128 2.08734
237.752 20.8792 2.20724
244.074 21.7971 2.32804
235.45 21.2709 2.30975
224.143 20.6006 2.26711
222.661 20.5128 2.28267
221.835 20.7313 2.34236
220.038 20.8909 2.41074
222.153 21.0995 2.4313
216.277 21.2505 2.48027
215.974 21.046 2.50101
206.599 20.9317 2.52028
207.28 21.0051 2.55295
210.412 21.6678 2.67888
201.604 21.1639 2.64078
212.292 22.0906 2.79246
203.05 21.7051 2.76499
205.772 21.6093 2.77376
195.805 21.3469 2.80556
203.868 22.5715 2.98364
189.585 21.4959 2.87605
195.078 22.2105 3.01527
186.482 21.4999 2.94596
189.07 22.0253 3.03295
188.542 22.5936 3.16991
183.203 21.7927 3.08742
184.618 21.9952 3.15314
187.617 22.8366 3.28982
178.752 21.9499 3.21253
178.661 22.065 3.2812
178.076 22.2742 3.32025
179.632 22.64 3.43159
172.743 22.1068 3.37482
169.925 22.1355 3.46545
170.081 22.1943 3.45717
166.739 22.4655 3.57919
169.277 22.9401 3.64561
168.138 22.7213 3.6934
166.27 22.7548 3.67619
163.735 22.7789 3.77723
164.867 23.0273 3.8241
163.92 22.8089 3.82107
154.913 22.0663 3.77428
161.205 23.9094 4.19813
237.475 36.6015 6.22579
153.147 22.5087 3.93559
150.245 22.0923 3.94808
147.348 22.551 4.04345
153.728 23.6016 4.26702
149.118 23.0815 4.18635
147.9 23.182 4.29965
145.216 22.8262 4.2404
146.208 23.2393 4.38438
142.525 23.0796 4.38643
150.238 23.8203 4.53215
140.23 22.9143 4.49617
147.532 24.1487 4.70376
138.776 23.161 4.56918
137.51 23.2884 4.64481
135.269 23.042 4.63215
141.513 24.1951 4.91367
136.346 24.1022 4.97059
136.412 24.0425 4.93511
132.176 23.6925 4.96586
129.283 23.3532 4.91361
129.577 23.295 4.94673
126.389 23.2014 4.96995
128.303 23.7817 5.17878
128.222 24.104 5.26586
129.75 24.0913 5.28221
127.148 24.5111 5.48058
124.789 24.027 5.40585
122.694 23.8059 5.40349
124.382 23.6124 5.36863
125.144 24.6064 5.67224
120.068 23.6436 5.48984
118.05 23.5744 5.50789
118.99 23.7268 5.6205
119.536 24.2564 5.79465
115.971 23.9633 5.79653
115.925 24.6904 6.0634
122.263 25.6035 6.21623
113.929 24.0012 5.91937
114.515 24.0792 5.97675
112.84 23.8602 5.97881
110.738 24.3395 6.25019
117.797 25.4307 6.39418
110.121 24.5616 6.39703
113.857 25.2257 6.50725
104.396 23.5541 6.20663
107.051 23.683 6.2378
106.637 24.5497 6.59791
106.641 24.5367 6.52671
105.59 24.2096 6.51331
105.853 24.5098 6.72606
104.361 24.4213 6.74768
104.519 24.6796 6.85877
106.079 25.7373 7.21876
109.084 26.0219 7.30391
103.024 24.8183 7.01862
104.027 25.3949 7.27755
101.451 25.0507 7.2073
95.9694 24.3772 7.12695
99.3548 24.5782 7.24986
100.518 25.6173 7.53902
100.664 25.0556 7.41849
94.989 24.514 7.343
97.3767 25.0793 7.58103
97.4734 25.2451 7.63941
96.4974 25.8531 7.98426
96.7057 25.5997 7.87762
93.9285 24.9133 7.81803
94.1262 25.3772 7.97054
93.7924 25.6029 8.0863
89.9272 24.5592 7.82763
94.4359 26.2139 8.42624
95.1657 26.1572 8.38853
90.041 24.8596 8.15423
89.6674 25.3849 8.23655
87.0735 24.9689 8.34375
88.699 25.3847 8.45647
88.5743 25.8211 8.68783
93.0622 26.9986 9.07732
86.2728 25.0173 8.46495
86.5196 25.8167 8.865
84.7083 25.1089 8.70698
87.1093 26.2106 9.0337
84.1215 25.4834 8.96007
83.1394 25.7201 9.10759
82.7769 25.2528 8.94065
82.4596 25.3152 9.02717
82.398 25.3068 9.12805
82.7308 25.829 9.30954
82.5276 26.3861 9.69809
82.7205 25.8363 9.4543
80.1785 25.4217 9.38032
79.1699 25.5445 9.56491
79.61 25.5892 9.56872
76.216 24.6232 9.40662
78.3463 26.4182 10.4695
140.433 47.4236 17.23
77.9958 25.9529 10.0957
75.3912 25.1306 9.85516
76.2719 25.373 9.90152
74.8767 25.0926 9.87628
76.1362 26.0006 10.2834
74.7328 25.7112 10.2812
75.1413 25.9455 10.366
74.7944 25.6733 10.3331
72.8839 25.903 10.5076
74.874 26.2459 10.6761
74.3754 26.429 10.944
73.2235 25.9915 10.7207
71.8491 25.9675 10.8356
71.8242 26.1656 10.9851
70.4054 25.8857 10.8675
69.2797 25.0812 10.638
70.7113 25.8011 11.0029
72.7278 26.943 11.5642
68.6134 25.5277 11.0103
68.1096 25.5918 11.1498
69.0716 25.7033 11.2959
68.9095 26.199 11.5595
67.4838 25.6647 11.4791
68.4818 26.4006 11.6854
66.3965 25.7626 11.5699
67.8059 26.3086 11.7958
66.4411 25.8412 11.7397
65.9044 25.6309 11.7658
64.6451 25.7305 11.7503
64.7148 25.674 12.0366
65.0078 26.1297 12.1619
62.9518 25.4735 11.9445
62.1623 25.5721 12.046
64.1649 26.1526 12.4063
63.1233 25.8946 12.324
61.5369 25.36 12.1021
62.9688 26.1372 12.6118
62.3008 25.6528 12.4581
61.473 25.8727 12.6971
61.8801 26.5056 13.0105
60.3993 25.8308 12.8112
61.7071 26.4477 13.1624
60.6121 26.231 13.1768
59.8711 26.026 12.9872
59.6947 26.0179 13.1554
59.972 25.9467 13.1921
59.6089 26.2568 13.374
60.2166 27.133 13.9095
58.9306 26.5418 13.7798
58.3625 26.3847 13.7124
57.5086 25.9211 13.4851
58.647 26.4604 13.9075
57.3343 26.0315 13.8193
57.861 26.574 14.1449
57.5792 26.1951 13.9695
56.4832 26.3855 14.2212
56.5248 26.0031 13.9808
54.6246 25.962 14.1584
56.4987 26.6225 14.4419
54.7299 25.8867 14.2107
52.776 25.6485 14.2987
55.8981 26.5178 14.692
53.16 25.6501 14.4159
53.7567 26.0031 14.5161
51.888 25.5418 14.5052
54.8175 26.7335 15.218
53.3997 26.0375 14.9215
53.3758 26.4669 15.2348
53.3596 26.5769 15.2883
51.6935 25.8664 15.1061
52.7782 26.2489 15.1968
53.0266 26.5099 15.4916
51.222 26.1684 15.384
49.3305 25.6994 15.3617
51.8744 26.2161 15.7368
51.2633 26.2906 15.6616
51.4245 26.9266 16.2498
51.1938 26.1859 15.8593
50.4214 26.3737 16.014
50.8108 26.266 15.9463
50.1956 26.4059 16.1418
49.2214 26.4658 16.3766
49.7279 26.468 16.4221
49.0805 26.4108 16.4361
47.5494 25.7628 16.2941
47.4693 25.3671 15.9688
47.7643 25.9787 16.4891
48.8678 26.7981 16.9135
47.1523 25.9078 16.619
47.872 26.2486 16.7457
46.9748 26.31 17.057
46.2891 25.8163 16.9956
46.4942 26.0471 17.0968
47.9235 26.9895 17.8445
46.6536 26.9798 19.213
82.0646 48.3057 29.5367
46.1673 26.5368 17.8597
45.2601 26.2766 17.6456
46.0809 26.6601 17.8895
44.5564 26.1405 17.6579
44.8905 25.9402 17.7861
45.8343 27.0562 18.4329
44.2398 26.0059 17.7943
44.2512 26.1087 17.8087
43.3502 26.033 18.0548
44.3901 26.4056 18.3178
43.5185 26.2196 18.4246
43.1299 26.249 18.4874
43.8659 26.1385 18.4082
43.2821 26.6347 18.9629
42.4896 25.5128 18.1205
42.1261 26.2601 18.9054
43.4868 26.5952 18.971
42.8732 26.3631 19.0774
41.5209 25.6287 18.5922
40.8375 26.0029 19.0063
42.2303 26.2935 19.1428
42.037 26.8418 19.713
41.0277 26.2857 19.5915
41.2117 26.1222 19.3742
41.1304 26.4988 19.9076
40.1453 25.5519 18.9748
40.7306 26.3165 19.9702
40.7684 26.1793 19.5375
39.7688 26.0694 19.8532
41.2192 26.6001 20.1193
38.6723 25.421 19.5054
39.5132 26.4106 20.2489
39.3657 26.6685 20.7889
39.5877 26.4702 20.6917
38.7215 25.4604 19.815
38.5464 26.358 20.5563
39.1422 26.2747 20.5839
38.776 26.3661 20.8643
38.8747 26.18 20.6453
38.5323 26.2051 20.878
38.6053 26.5514 21.2512
37.3663 26.2069 21.064
37.524 26.3911 21.3889
38.1685 26.6624 21.7159
38.5051 26.7459 21.6974
37.0982 25.992 21.3006
37.0124 25.9749 21.4573
36.7644 25.755 21.0632
36.8323 26.2098 21.7476
37.8629 26.9441 22.3216
36.4004 25.8956 21.6756
36.1546 26.3285 22.0792
36.7761 26.8182 22.4845
36.1426 26.2955 22.3482
35.0859 25.1351 21.3248
36.682 26.7673 22.8216
35.2511 26.0347 22.3712
35.3297 26.2631 22.7048
35.2134 26.5 22.9802
35.2409 26.4533 22.9666
34.5407 25.8586 22.3628
34.6639 26.1232 22.7058
34.1038 25.555 22.329
33.9024 26.1269 23.2311
34.3829 25.5999 22.6151
34.2856 26.1277 23.2797
34.1253 26.1301 23.2718
33.7846 26.086 23.6623
34.0609 26.3214 23.6142
32.7628 25.2479 22.9907
33.7393 26.2287 23.9392
33.196 25.9063 23.4488
33.6529 26.5578 24.1082
32.5374 25.6402 23.5564
32.4628 25.8208 23.9199
32.4637 25.6029 23.8574
32.317 25.8663 24.0335
31.5057 25.0256 23.5926
33.0932 26.2418 24.3675
31.996 25.6454 24.0365
32.0656 26.3678 25.0739
32.1093 25.6334 24.1991
32.0642 26.2289 24.9643
30.7427 25.6329 24.5322
31.1368 25.5511 24.5851
31.7398 26.2622 24.9665
30.5269 25.7581 25.2275
31.0053 25.9014 25.2313
31.1291 25.8018 25.1195
30.882 25.9385 25.3027
30.9268 25.948 25.5596
30.6501 25.6327 25.1977
30.7884 26.4101 26.1406
30.4574 26.1641 26.5201
30.1614 26.823 30.0347
54.4965 48.6425 42.7329
29.1994 26.2468 27.313
29.8028 25.7636 26.2101
30.1779 25.9508 26.3944
29.2 25.2114 25.9375
29.9538 26.0351 26.5386
29.4941 26.0574 26.5864
29.3367 25.9655 26.7673
29.4299 25.8162 26.3532
28.9564 25.8121 26.5177
28.9392 25.7752 26.8
29.0888 26.0874 27.1771
28.288 25.353 26.8299
29.1454 25.9687 27.2087
28.9456 25.9501 27.3153
28.7912 25.9425 27.5599
29.2344 26.1792 27.4909
28.2853 26.0708 27.7563
27.9125 25.6695 27.5921
27.4194 24.63 26.5653
28.2055 26.2213 28.2525
28.0935 26.0971 28.1788
27.3344 25.2834 27.5356
27.729 25.8971 28.2507
27.3198 25.521 27.9824
27.1847 25.4469 27.6313
26.883 25.5233 28.162
26.7913 25.599 28.1636
26.3778 25.1057 27.6813
26.2658 25.4284 28.705
26.5458 25.2083 27.798
26.5192 25.8031 29.0393
27.0881 26.0244 29.3828
26.8123 25.1492 27.9984
25.6848 25.5338 28.9657
26.6066 25.8863 29.5866
26.7445 25.9027 29.2676
25.4331 24.9677 28.2315
25.1577 24.917 28.6353
25.0807 24.7516 28.5492
25.4717 25.2681 29.3041
26.5263 26.3137 30.4681
26.079 25.9877 29.7879
25.1647 24.947 29.3775
25.2297 25.1404 29.8027
25.4248 25.5821 30.1482
24.7804 24.9235 29.4159
24.5665 25.702 30.732
24.5691 25.0483 29.9288
25.389 25.8627 30.5297
25.1223 25.278 29.8005
24.6203 25.0675 30.0482
24.2396 24.6946 29.7966
24.8474 25.4823 30.2873
24.209 25.2248 30.9092
24.5572 25.4387 30.6578
23.8541 25.1434 30.7844
24.0668 25.0232 30.3719
23.8389 25.3309 31.2097
24.1431 25.1705 31.3472
23.5527 24.6831 30.6743
24.0418 25.2444 31.2606
24.2486 25.7162 31.6069
23.7081 25.2709 31.5041
23.7271 25.3883 31.6246
22.8581 24.3249 30.2513
22.9318 24.9113 31.4661
23.5191 25.3138 31.9147
23.1827 25.0444 31.145
22.2465 24.9769 31.7442
22.2787 24.5842 31.6424
22.8181 25.3676 32.6355
22.5445 24.5467 32.0065
23.0595 25.657 32.9758
22.9795 25.1184 31.9265
21.6399 24.1122 31.7717
22.3779 24.6814 32.12
22.6141 25.1452 32.9673
23.1108 25.6142 33.4102
23.3428 26.2749 34.1308
22.9641 25.6537 33.6739
22.2042 25.1498 33.5542
22.5734 24.9647 32.7439
22.3013 25.6794 34.255
22.1327 25.0405 33.4735
22.1704 25.0206 32.86
21.2625 24.8732 33.98
21.6864 25.3025 33.9627
21.0452 24.5309 33.4879
21.6708 24.8633 33.609
21.7441 25.0352 33.7632
21.1512 24.8304 34.1175
22.0549 25.5546 34.7846
21.7116 25.4674 35.0555
21.3511 25.1294 35.4476
21.2206 26.7172 44.4518
39.0638 46.7771 54.0069
21.0937 25.3496 35.5413
20.94 25.2678 35.3084
20.1212 24.6302 35.2281
21.1213 25.3493 35.2501
20.5829 24.6921 34.8649
20.231 24.1681 34.4028
20.7302 24.7509 34.4486
19.9008 23.9715 34.0542
20.4998 25.0139 35.6322
21.1464 25.2866 35.8662
19.9593 24.1942 34.6592
20.8174 24.9525 35.4038
20.1146 24.8401 35.6165
19.902 24.0054 34.8544
19.6338 23.9033 34.4599
19.8904 24.6083 35.7875
19.6883 24.4104 35.746
19.7403 24.6859 36.1304
19.8221 24.3529 35.3113
19.607 24.6842 36.4134
20.0854 24.7357 36.1405
19.2071 23.6622 34.942
19.4702 24.7928 36.8317
19.5112 24.4072 36.3236
19.5305 24.6246 36.6077
19.0145 24.4883 36.7797
19.6067 23.9661 35.6674
19.837 25.6027 38.2142
19.2259 24.9183 37.6025
19.1786 24.5703 37.0216
19.0327 24.2945 36.7684
18.7516 23.7762 35.9516
18.5067 23.9425 37.0209
18.7175 24.191 36.5227
18.5657 23.8449 36.274
18.5624 24.5202 37.8881
18.45 24.0039 37.0502
18.1827 23.5079 36.6087
19.0521 24.7831 37.7537
18.7383 24.5161 37.8006
18.5456 24.6296 39.2769
19.1462 25.0786 38.4409
18.1854 24.0236 38.0208
18.7761 24.6294 38.0967
17.8949 23.8659 37.2458
17.9237 23.9298 37.5962
17.7844 23.4971 37.412
18.4485 24.3911 37.9559
17.613 23.7113 37.3553
17.4107 24.0728 38.7038
17.8466 23.6653 37.2774
17.2087 23.7822 38.5511
17.6909 24.1784 39.1919
17.7157 23.7213 38.3467
17.4303 23.6165 37.5972
17.549 23.9172 38.3642
17.1186 23.7298 38.7721
17.3834 24.3392 39.741
17.8793 24.5201 39.4115
16.7394 23.6631 39.2777
17.6712 24.1962 39.6825
16.8342 23.4405 38.6
16.9789 23.6463 38.8806
16.771 23.2195 38.4233
16.8426 23.4667 38.1717
16.3221 23.0275 38.564
16.4019 23.2895 39.3158
16.8399 23.868 39.2455
16.281 23.4651 39.6278
16.8255 23.7547 40.0793
16.3234 23.2743 39.6687
17.0338 23.9231 39.4139
16.339 23.4162 40.1207
16.3047 23.4082 39.7735
16.2464 23.1662 38.7693
16.0068 23.0963 39.9094
16.7528 23.8199 40.3221
16.1085 23.1779 40.0694
16.0112 23.3386 40.0715
16.002 23.2647 39.9503
16.1228 23.438 40.2323
16.2201 23.377 40.1095
15.4433 22.6472 39.4774
15.784 23.2303 40.8695
15.6017 23.4125 40.8556
15.7712 23.1113 40.9109
15.5824 22.7069 40.2156
16.1669 23.5734 40.6076
15.616 23.3483 41.0754
15.7016 23.1136 41.1428
15.5107 23.3976 41.7967
15.8439 24.1372 42.4175
15.5039 23.7816 42.7868
15.1108 22.7369 41.7168
15.2872 24.8091 56.97
28.8436 43.048 60.2312
15.1472 23.851 43.5954
15.297 23.3628 42.4857
15.2502 23.467 42.641
15.2333 22.8096 40.8584
14.7453 22.923 41.7481
14.8957 22.7463 41.6034
14.8872 22.8658 41.2213
14.8494 22.8907 42.0093
14.7706 22.7797 42.0156
14.8714 22.9198 41.9062
14.7586 23.2274 42.6929
14.6256 22.8785 41.8902
14.3525 22.1452 41.2563
14.4164 22.2019 40.8983
14.5438 22.8198 42.8864
14.8565 22.7604 41.6907
14.4548 22.9058 43.2228
14.3822 22.9383 43.5598
14.5935 22.7681 42.5588
14.8069 23.384 43.683
14.6862 22.5272 42.4445
14.3347 22.6939 42.2136
14.3069 22.9521 44.413
14.5288 22.9371 42.6726
14.2631 22.6578 43.0444
14.2402 22.5979 42.9056
14.2522 22.887 43.9079
14.1385 22.5178 42.9549
14.2137 23.5991 47.2776
14.9189 23.384 43.6994
14.1341 22.3646 43.0094
14.1006 23.0171 44.6296
14.0979 22.5627 42.9158
13.7208 22.3006 43.5259
13.6901 22.509 43.9835
13.8981 22.4825 43.645
13.4502 22.0646 43.3603
13.3823 21.8422 42.6611
13.725 22.636 44.8831
13.6902 21.937 42.8217
13.5722 22.8463 45.1402
13.738 21.8778 43.0279
13.211 21.5984 42.793
13.4507 22.166 43.8455
13.2009 21.5683 43.0114
13.1931 21.7369 43.3518
13.3401 22.0554 45.1833
14.0236 23.3818 44.5755
12.8467 21.4652 43.3752
12.9894 21.4077 43.5639
13.1178 22.0383 44.4949
13.0935 22.2376 44.9553
13.173 21.916 43.9832
13.0278 22.3467 44.6333
13.1129 22.0591 44.8253
12.5461 21.0411 43.142
12.7059 21.5852 43.4475
12.838 21.8455 43.8173
12.5992 21.9211 45.1425
12.9653 21.6668 43.9852
12.6051 21.7656 45.0288
12.352 21.3758 44.8095
12.7217 21.6024 44.5834
12.5859 21.9023 45.1397
12.4724 21.5558 44.6736
12.3615 21.7348 45.032
12.2568 21.0766 44.7229
12.3253 21.2295 43.8694
12.1942 21.7709 45.1862
12.0362 20.8437 44.2738
12.2224 21.3908 44.8648
12.351 21.6513 45.2323
12.2785 21.3588 44.5031
11.8777 20.9486 44.6801
12.2533 21.3101 44.6349
11.7739 20.9581 45.1604
12.1274 21.2543 44.767
11.8149 20.8183 44.1542
11.8771 21.0415 45.4548
12.004 21.1899 45.016
11.7239 20.6175 44.8324
11.9807 21.2544 45.227
11.7997 20.6768 44.9902
11.9712 21.0984 45.5601
11.781 21.3344 45.9039
12.0024 21.871 47.3148
11.881 21.1854 45.3643
11.7372 21.389 46.9641
11.748 21.4432 46.5694
11.5374 20.357 44.8058
11.4186 20.9145 44.702
11.116 20.5904 46.4469
11.1683 20.5199 45.6238
11.5674 21.4107 48.1966
11.3052 23.0329 68.6419
21.6015 39.0252 64.247
11.5133 21.2097 47.4192
11.4638 21.0302 46.094
11.3381 21.1184 46.9815
11.3723 21.0793 47.2683
11.4172 21.0494 47.2623
11.0274 20.5426 46.0883
11.0704 20.3305 45.9487
11.372 20.6858 45.9631
10.9513 20.199 45.7626
11.1366 20.6292 45.7514
10.5874 19.9794 44.9849
10.7391 20.0135 46.0631
10.8661 20.4679 46.5169
10.9502 20.5359 47.1072
11.2799 21.0496 47.3398
10.9927 20.5821 46.2034
10.8377 20.3459 47.6841
11.2894 20.7146 46.677
10.6795 20.3697 46.8365
10.7646 20.1284 45.7403
10.6168 20.4353 47.076
10.827 20.3262 46.2963
10.5541 19.8655 45.656
10.7123 20.7892 48.061
10.7273 20.395 47.0841
10.4757 19.8196 46.7563
10.6789 20.6168 47.8399
10.6032 20.2202 46.1455
10.319 20.246 48.572
10.8924 20.1882 46.5399
10.2737 20.0837 47.5985
10.5524 20.3964 47.5591
10.5223 20.311 48.1692
10.392 20.1409 47.6234
10.2714 19.6692 46.7248
10.4477 20.2869 47.8032
10.5159 19.7523 46.0701
10.0399 19.7554 47.5582
10.2455 19.562 46.877
10.4342 20.1372 47.7785
10.3657 20.0277 47.8314
10.2129 19.9889 47.2443
9.94656 19.4665 47.8771
10.4174 20.4105 47.9995
10.1224 20.0896 48.2462
10.3326 20.4711 48.8427
9.81004 19.3426 47.3705
10.2073 19.9331 48.018
9.99983 19.6428 47.2801
10.054 19.9629 48.2929
10.1344 19.8409 47.9876
9.76232 19.3803 46.9088
9.77 19.2911 46.3923
9.78159 19.7743 48.7789
9.80183 19.858 48.8095
10.1904 19.9519 48.1767
9.66738 19.2358 47.5983
9.92317 20.2282 49.3865
9.81666 19.321 47.4687
9.64948 19.4507 48.0416
9.54807 18.9524 46.8202
9.61261 19.4964 48.0184
9.52027 19.373 48.9294
9.95389 20.0081 49.3984
9.91941 20.0049 49.4703
9.47096 19.4194 47.7202
9.52295 19.4005 48.4796
9.50589 19.846 49.8116
9.76951 19.4459 48.326
9.53337 19.5898 49.4194
9.59303 19.4258 48.7815
9.43884 19.5617 49.6958
9.53273 19.2749 48.1329
9.40847 19.3677 48.5941
9.3471 19.3474 48.052
9.09312 19.4622 49.1225
9.17018 19.1887 48.9867
9.3427 18.8737 48.1738
9.45006 20.0644 50.9897
9.31024 18.9081 48.8642
9.27998 19.2842 48.8866
9.25251 19.1529 49.5087
9.27638 19.4002 49.9548
9.26512 19.2761 48.8258
9.09284 19.1747 49.6566
9.2166 19.3792 49.746
9.22416 19.4952 49.9816
9.02687 18.9163 48.613
8.89694 19.4174 51.3454
9.28481 19.3251 51.5872
9.51423 19.0299 49.3358
9.10235 19.1138 49.1744
9.02907 19.606 52.0448
9.24481 20.0125 53.4897
9.27622 22.469 82.1615
17.1189 34.7822 64.2966
9.16497 20.3465 53.3052
9.17316 20.1681 52.4709
8.98108 19.2145 51.1798
9.23084 19.9064 51.732
8.99613 19.488 51.2156
8.83726 19.0046 50.2477
8.80799 18.703 49.6004
8.57488 18.8822 51.2918
9.05765 19.1598 50.9812
8.88503 18.7658 49.8253
8.96429 19.4166 51.1921
8.946 19.267 50.3451
8.53317 18.6802 50.6038
8.58893 18.8739 51.7387
8.8694 18.7223 49.2348
8.59716 19.0041 51.4725
8.84205 18.8148 50.6227
8.63965 18.7939 50.0883
8.57514 18.3151 49.1604
8.52427 18.599 50.6359
8.61809 18.1468 49.2653
8.49905 18.7252 50.2554
8.45678 18.4799 49.4411
8.22649 18.188 50.9263
8.57438 18.7917 51.5117
8.74897 19.244 51.8341
8.49201 18.516 49.7448
8.15008 18.2876 50.1041
8.27384 18.478 50.6708
8.35261 18.3811 50.341
8.32917 18.3469 50.7229
8.20911 18.2287 49.2298
7.97598 17.92 49.7801
8.17972 18.3666 51.2646
8.31044 18.4607 50.1737
8.04337 18.0104 50.77
8.34324 18.0671 49.922
8.10826 18.4227 51.2719
8.44005 18.6317 50.6833
8.20915 18.2011 50.3589
8.04319 17.7789 49.824
7.93029 17.7407 49.6308
8.11955 17.7798 50.4853
8.23631 18.108 49.3587
7.91598 18.1539 51.1844
8.13407 18.2779 50.2787
7.92144 18.2713 51.8619
8.06181 18.2242 50.6853
7.89433 17.8485 50.7815
7.90038 18.0606 50.6185
8.07449 18.187 50.5238
7.86938 18.1042 51.795
7.92225 18.1595 51.2796
7.97973 18.0696 51.4131
7.96993 17.8406 50.892
7.80399 17.655 50.265
7.80291 17.8553 51.2593
7.91656 17.6963 49.5912
7.8312 17.9898 51.4528
7.79256 17.9938 50.9342
7.68556 17.1752 50.627
7.76763 17.7339 51.2811
7.75596 17.7502 50.0145
7.60063 17.4603 50.0063
7.55679 17.5489 51.0775
7.64785 17.9055 52.1299
7.79802 18.2913 52.3662
7.59887 18.0474 53.1639
7.8651 17.8748 51.723
7.79477 18.0982 52.0401
7.71101 17.8081 51.9343
7.70839 17.8402 52.1739
7.62478 17.7889 52.3441
7.5389 17.3529 51.0567
7.6394 17.8257 51.734
7.66056 17.959 51.5599
7.55678 17.71 51.9246
7.61157 17.6473 50.5541
7.37592 17.4792 51.8399
7.58864 17.7169 52.1421
7.67863 17.6561 52.5567
7.61002 17.5579 51.0457
7.39457 17.5107 51.9999
7.58532 18.1708 52.4205
7.42718 17.6577 52.9244
7.60005 17.7257 52.5136
7.43629 17.8099 52.8108
7.3801 17.4679 51.1099
7.24598 16.9946 51.2186
7.26526 17.1167 51.1268
7.35644 17.9926 54.0801
7.37515 17.6338 52.8992
7.38275 17.8641 53.5989
7.47091 18.7868 57.1822
7.52692 20.6711 91.5612
13.7723 30.9264 61.2534
7.09121 17.732 53.3658
7.28588 18.1299 54.9278
7.50964 17.2455 51.0588
7.1725 17.3063 51.5451
7.24401 17.6561 53.1378
7.1462 16.8097 51.5007
7.28294 17.4824 52.2096
7.1324 17.019 51.5083
7.1291 17.8247 54.3481
7.31891 17.6054 52.9918
7.1184 17.4869 53.8343
7.29756 17.4768 52.6723
7.05195 17.2959 53.588
7.25383 17.8653 52.5936
6.97135 17.0537 51.4411
7.05278 16.9785 52.6571
7.19694 17.3075 52.5283
6.97129 17.3562 53.7366
7.17277 17.3673 53.9023
7.17943 17.0051 51.8379
7.01048 16.8062 51.5397
6.97472 16.989 52.3058
6.92976 16.9847 53.3135
7.1952 17.3291 54.0758
7.25718 17.8736 53.9101
6.99137 16.7196 52.8397
7.11023 17.2058 52.1621
6.94441 17.2102 52.6142
6.90217 17.402 53.3428
6.74056 16.7364 53.4755
6.98519 16.7714 51.9035
6.90927 17.4311 54.5034
6.9592 17.1702 53.6026
6.85051 16.9231 52.8776
6.74833 17.0799 54.1385
7.0049 17.5935 54.7045
6.968 16.9786 53.268
6.83555 16.8118 53.971
6.93595 16.9827 51.9204
6.66148 16.9306 52.9152
6.7634 16.8938 53.3632
6.88544 17.0952 53.4199
6.73951 16.4079 52.1732
6.77421 16.9053 53.235
6.7534 16.9372 54.358
6.80525 16.8934 52.3948
6.5583 16.1246 52.1249
6.70594 16.7883 53.2042
6.69935 17.0498 53.6418
6.83499 17.1336 54.2063
6.70402 16.6504 53.8051
6.84036 17.0126 53.9268
6.77902 17.0992 53.3883
6.57141 16.5527 52.9744
6.71465 16.9175 54.8421
6.6813 16.5994 52.9321
6.61385 16.639 54.0675
6.65909 17.0256 53.4573
6.52115 16.6941 55.0256
6.73272 17.0538 54.671
6.67445 16.9588 54.3138
6.65359 16.6802 52.9717
6.47508 16.544 54.2731
6.63836 16.5744 53.6898
6.52744 16.8964 54.6585
6.61993 16.9255 53.7366
6.46233 16.3705 53.0321
6.57073 16.7107 54.6515
6.63442 16.9701 54.9006
6.53876 16.4721 53.3106
6.41321 16.7566 53.6866
6.29804 16.2485 54.8083
6.62857 16.797 54.1237
6.53029 16.3894 53.1884
6.48565 16.9282 55.4935
6.4611 16.1544 52.382
6.38698 16.4258 53.709
6.33106 16.4449 54.2092
6.28959 16.4725 53.6422
6.26318 16.5461 54.4875
6.44301 16.4261 54.5037
6.3378 16.0237 52.6339
6.38367 16.6993 53.7985
6.23662 16.5292 54.3149
6.25546 16.3355 54.109
6.21018 16.6021 55.1497
6.36211 16.2245 54.6028
6.3254 16.6623 54.1455
6.17927 16.1516 55.2972
6.42278 16.5907 54.4059
6.45083 16.4494 53.639
6.29415 16.7597 54.3937
6.0789 16.1666 54.2561
6.2612 17.075 58.0445
6.49565 20.9839 104.968
11.9045 28.3232 61.3162
6.19454 17.3989 56.0468
6.15897 16.2405 53.9535
6.05335 16.3722 54.4172
6.00645 16.3481 54.1292
6.07297 16.061 56.1802
6.37782 16.6887 54.5376
6.20931 16.3912 55.652
6.22566 16.3307 53.6046
6.03148 16.3672 55.7297
6.08213 15.7239 53.0397
6.03023 15.9792 53.2508
6.09057 16.3971 55.6348
6.23758 16.1599 55.0622
6.16217 16.3737 54.975
6.18302 16.2058 54.6074
6.0667 16.2637 55.667
6.13338 16.4112 56.2082
6.11318 15.9817 53.7166
6.00053 15.9676 54.2897
5.92413 15.6869 54.4759
6.0474 16.3792 54.3675
5.91409 15.5731 53.6513
5.93287 15.8804 55.4325
6.06617 16.5146 55.1405
5.91855 16.2332 56.749
5.98921 16.1861 54.3298
5.9784 15.9991 55.6205
6.13223 16.0936 54.7479
6.00869 16.1351 55.7269
5.92379 15.9542 54.5627
5.9625 15.9903 54.4968
5.9207 16.1552 54.0509
5.98276 16.3476 57.7165
6.25182 16.0937 55.6661
5.98042 16.0544 54.9274
5.88145 16.0724 55.4547
5.88246 16.1128 54.8024
5.9402 15.9265 55.6833
5.91179 15.9864 55.4828
5.90036 15.9107 54.1663
5.93695 15.9093 54.4939
5.87765 15.6291 54.9404
6.01277 16.2126 55.3465
5.84846 15.6079 53.8276
5.70854 15.5096 54.4543
5.78919 16.0433 56.386
5.91247 15.7525 54.8773
5.92005 16.132 54.8467
5.90269 15.761 56.1234
5.93362 15.6988 54.7365
5.81644 16.0136 55.6951
5.76748 15.5636 52.964
5.63703 15.5502 54.3751
5.70007 15.9546 55.9774
5.70949 16.1965 56.5467
5.78986 15.201 54.4638
5.79207 15.9932 55.9425
5.84417 16.2567 57.9569
5.84188 15.8737 55.3924
5.79525 15.6073 55.1919
5.71335 15.8429 56.2273
5.8097 15.7193 55.0932
5.6269 15.2113 54.2951
5.68104 15.9985 56.6876
5.82629 15.8356 54.262
5.5748 15.5358 55.6471
5.62035 15.6252 54.7632
5.66738 15.3532 54.2497
5.68886 15.7316 55.7849
5.60716 15.9063 57.2661
5.77909 16.2601 58.1371
5.8965 15.7692 55.5098
5.63119 15.5585 55.773
5.7548 15.8682 55.4132
5.57885 15.5262 55.3341
5.65259 15.2094 54.0012
5.55592 15.7795 56.4595
5.66607 15.5242 55.5974
5.66918 15.5196 55.1151
5.50995 15.0524 54.0741
5.54828 15.6109 56.7332
5.61837 15.792 56.8383
5.67181 15.7223 55.997
5.62021 15.3204 53.6447
5.53146 15.7025 57.5677
5.74073 16.0125 57.8724
5.54764 15.799 57.123
5.58869 15.7575 56.5172
5.64348 15.4596 55.784
5.61116 15.5944 56.1234
5.67842 16.2415 57.702
5.57908 15.9745 58.1474
5.75156 16.3047 57.875
5.8137 16.8191 60.3436
5.76115 21.0036 113.017
10.4568 26.3593 62.482
5.79084 17.0066 60.2134
5.82362 16.1488 58.0993
5.6902 15.9111 57.3173
5.57934 15.7974 56.6706
5.60494 15.9156 57.0631
5.45624 15.5452 57.6217
5.59928 15.902 56.24
5.49229 15.6603 55.7145
5.44925 15.8806 58.3776
5.55208 15.8247 56.9445
5.44577 14.7879 54.6787
5.39609 15.961 57.3795
5.62753 15.7566 58.193
5.63819 15.8291 56.6455
5.52493 15.2404 55.219
5.40406 15.4708 57.236
5.46869 15.2873 55.5289
5.39467 15.352 56.9386
5.4804 15.0203 56.2119
5.49991 15.5938 56.377
5.40569 15.3301 57.0311
5.42606 15.4376 56.2694
5.45609 15.3362 56.1455
5.3773 15.2248 56.2049
5.37735 15.1712 54.7374
5.21979 14.7346 56.3772
5.44039 16.049 57.4769
5.48038 15.2573 55.9935
5.33758 15.3617 56.1865
5.31031 15.1258 56.635
5.37129 15.2106 56.2462
5.37395 15.0637 55.5843
5.32901 15.3395 56.2328
5.24003 15.2949 56.9057
5.37421 15.3544 55.9683
5.34328 15.1039 56.1287
5.26436 14.9403 56.5899
5.34724 15.7512 57.7393
5.38365 15.27 56.692
5.35548 15.2289 56.43
5.30135 15.3971 57.2324
5.30528 15.1305 55.1348
5.17131 14.8275 55.2255
5.19526 14.9195 56.4094
5.39375 14.8654 55.3528
5.27724 15.2616 56.668
5.29913 15.4086 55.557
5.24284 15.0557 57.0327
5.35461 15.1529 55.5754
5.16573 15.2103 57.9898
5.24142 14.7186 56.2061
5.34337 14.7393 54.3473
5.16548 14.8604 56.1036
5.20269 15.1447 56.0051
5.20632 14.8159 56.1683
5.14614 15.0502 56.4559
5.2083 15.2312 57.1391
5.256 14.8371 54.6936
5.06009 14.7711 57.5244
5.3602 15.0555 55.2863
5.19382 14.5732 56.3388
5.21076 15.1309 55.3677
5.14934 15.5475 58.4525
5.32592 15.1622 56.0764
5.09685 14.8166 55.6307
5.10949 14.6754 56.2117
5.23767 14.6466 54.0881
5.02602 14.7465 56.7748
5.2445 15.0311 55.5519
5.02435 14.928 56.1099
5.08795 14.6032 56.272
5.14835 15.0582 57.4407
5.2784 15.3071 57.6835
5.30353 15.1033 56.6391
5.16596 15.097 56.0489
5.00439 14.5646 54.947
4.99088 15.0052 57.226
5.08146 14.4022 54.7876
5.06312 14.8095 56.3597
5.06948 14.6202 55.1126
5.07525 14.9803 56.3903
5.06765 15.0469 55.9168
5.04722 14.7509 55.9469
5.07197 14.6058 56.3947
5.00132 14.4298 56.0075
5.0889 14.7818 54.5737
4.96838 14.4072 56.7006
5.19115 14.7254 56.2665
5.09036 14.9588 56.0259
4.93379 14.7798 55.735
5.0683 14.8669 56.0234
4.98822 14.7455 57.7421
5.18053 14.6651 54.5117
5.04017 15.2484 56.882
4.96923 19.7041 117.618
9.45078 23.8865 58.2874
5.07847 15.5403 57.5523
5.1575 15.0157 55.0948
4.97513 14.7056 55.8846
4.95219 14.6245 55.2743
5.01075 14.328 55.5595
5.08296 14.6864 55.7136
4.97313 14.839 55.7888
4.94002 14.2886 55.4933
4.96778 14.7329 56.3888
4.94357 14.5101 55.0286
4.84912 14.5904 58.8298
5.30742 15.4793 56.4712
4.9211 14.0625 54.9454
4.90628 14.9386 56.6309
4.98633 14.7813 57.3991
5.04895 14.5435 55.0972
4.85172 14.1998 55.2239
4.99514 14.7232 56.0453
4.87578 14.2634 57.28
5.02987 14.4163 55.2613
4.89386 14.5036 55.8521
4.93283 14.7928 57.117
4.98279 14.6291 56.8057
5.02282 14.5308 55.4751
4.85248 14.7128 55.8983
4.93082 14.471 55.6859
4.89151 14.6735 57.5666
5.01379 14.2457 56.0864
4.92977 14.5495 55.0285
4.81136 14.4244 56.0096
4.85225 14.5643 56.0964
4.79542 14.2736 55.8625
4.91908 14.6627 55.8387
4.89347 14.582 58.0235
5.02765 14.4217 56.6701
4.9672 14.7529 56.4953
4.76761 14.5234 56.5535
4.86901 14.7138 56.8885
4.93976 14.0594 54.9809
4.80385 14.6427 56.4078
4.91626 14.554 56.1581
4.80267 14.5922 56.9173
4.92874 14.4977 55.7106
4.89874 14.6551 57.7178
5.01534 14.4711 56.6437
4.89177 14.4687 55.4754
4.90289 14.5538 56.611
4.84703 14.127 55.0039
4.74656 14.0786 56.2139
4.84297 14.5693 56.6425
4.81815 14.0657 54.7738
4.76794 14.3924 55.6633
4.84663 14.5068 56.2454
4.88696 14.3123 55.0962
4.77952 14.3193 56.4245
4.86298 14.3975 56.4716
4.89672 14.6557 57.1917
4.85682 14.411 56.8211
4.92957 14.3917 55.7752
4.81164 14.6089 56.9385
4.84516 14.6063 56.989
4.8382 14.2931 56.5721
4.89506 14.5717 57.9712
4.92317 14.8192 57.269
4.82406 14.3722 55.6022
4.77071 14.37 56.3092
4.87105 14.3446 55.802
4.67661 14.1924 55.7006
4.76516 14.2358 55.4692
4.7259 13.9927 56.1989
4.86161 14.7049 56.6717
4.76489 14.5111 54.8533
4.62845 14.2544 56.1033
4.83414 14.165 56.7578
4.80634 14.5747 57.8675
4.87766 14.6331 59.0018
4.99408 14.6264 56.9275
4.82008 14.6221 56.7974
4.74176 14.3417 58.0258
4.90477 14.6076 58.3006
4.95844 14.6426 57.2628
4.91547 14.6578 57.8353
4.88523 14.6515 57.1278
4.84924 14.7973 57.9137
4.84599 14.2725 56.1705
4.70704 14.7213 56.3398
4.71498 14.001 55.6888
4.75771 14.3287 56.1108
4.6864 14.2617 57.4024
4.79248 14.585 57.0251
4.78425 14.1061 55.4346
4.71796 14.168 56.2527
4.812 14.7221 56.4259
4.73016 15.113 58.2833
4.9296 19.8892 118.007
8.64397 21.7935 58.6758
4.83052 15.3749 56.2891
4.82386 14.952 58.6459
4.82508 14.8864 57.8649
4.85421 14.3082 56.0726
4.75292 14.6132 58.3896
4.90384 14.435 56.6496
4.74241 14.161 56.1784
4.73981 14.2538 56.6925
4.76975 14.4876 57.716
4.8193 14.2649 56.8546
4.74569 14.09 55.9723
4.80956 14.5654 57.2769
4.74952 14.8227 57.4684
4.77784 13.7869 54.915
4.68048 14.2173 56.8199
4.74708 14.7581 56.414
4.68097 14.0858 57.5505
4.7991 14.3564 55.9959
4.70109 14.0861 54.6209
4.63967 13.9858 57.4408
4.65376 14.1975 56.4274
4.80453 14.1762 56.255
4.68104 14.1149 55.8881
4.73851 13.9324 56.2962
4.71261 14.0635 54.9743
4.62748 14.0538 56.4428
4.67023 14.3685 58.2312
4.89601 14.6774 58.4597
4.73235 14.5331 56.7483
4.72841 14.2624 55.9759
4.65514 14.1564 56.7638
4.75688 14.3134 56.8769
4.73052 14.7167 57.1575
4.63565 14.5487 58.2005
4.78538 14.7976 58.1596
4.81876 14.0089 57.5761
4.82233 14.696 58.044
4.74248 14.23 56.4393
4.71519 14.3124 57.3536
4.76353 14.1765 55.7319
4.69705 14.0305 55.4458
4.6091 13.8523 56.3786
4.69432 14.2195 56.3025
4.69629 14.4549 56.8334
4.68149 14.3912 56.8224
4.69095 14.2922 58.5286
4.81182 14.4191 58.3766
4.83402 14.5236 57.2043
4.7395 14.7144 57.8028
4.7218 14.4045 57.2478
4.75167 14.293 57.5208
4.76701 14.2681 55.3811
4.5697 14.3287 57.2314
4.74502 14.2557 56.2366
4.61767 14.2022 56.8537
4.71475 14.111 56.9692
4.668 14.252 56.0213
4.58971 14.3728 56.9833
4.70063 14.2439 56.0754
4.60051 13.8432 57.5219
4.70484 14.1658 57.0744
4.79433 14.1519 56.2349
4.62347 14.3565 57.3338
4.77519 14.114 55.3068
4.69517 13.8742 56.6784
4.67119 14.523 59.2537
4.78506 14.527 55.0433
4.625 13.7466 55.5259
4.59943 13.7228 55.8518
4.61486 14.5677 58.1603
4.72906 14.665 58.3324
4.84498 14.4517 57.3767
4.71946 14.4191 57.9254
4.79294 14.2961 57.1727
4.75358 14.4524 57.7427
4.71482 14.6447 57.7943
4.73534 14.4393 58.8298
4.8854 14.4358 57.7493
4.74324 14.5511 57.9262
4.68635 14.7949 59.7711
4.90637 14.3573 56.2525
4.63504 14.3619 57.1855
4.77635 14.367 56.6405
4.70966 14.8092 59.4257
4.76697 14.492 57.4122
4.7341 14.0734 56.5347
4.63528 14.7558 58.9619
4.87417 14.5626 58.0908
4.78487 14.3715 57.3113
4.75779 14.7457 57.5014
4.74528 14.556 58.8795
4.82226 15.1071 59.2556
4.78061 14.6819 59.3843
4.8877 16.0592 60.0113
4.98931 21.712 127.72
9.07742 0 0