# pn-170911/RbIIR-56-USNO-1280-1959.psd
# Power spectrum* (dif=0,1,2) (really just |FT|^2)
# NOTE: only the first half! (symmetric)
# weeks: 1280-1959
# 11 clock-days, 0 excluded
# PSD: 1441
2073.56 0.0435821 0.0140842
31151.4 0.184182 0.0195753
211016 4.81982 0.0165136
14596.6 0.57627 0.0184128
55932.8 3.96369 0.0226357
3525.1 0.298957 0.0196829
3482.41 0.58828 0.0138871
1940.09 0.323643 0.0159086
2909.82 0.804335 0.0228373
1851.28 0.763826 0.0267995
1782.85 0.699879 0.0192944
1008.32 0.416226 0.0147529
954.714 0.499306 0.0173558
617.437 0.512369 0.0196
533.735 0.499044 0.0226659
552.394 0.52436 0.0144439
692.562 0.763153 0.0200159
156.588 0.169891 0.0239292
376.955 0.551064 0.0191655
340.365 0.503333 0.0166326
276.646 0.59001 0.0148965
300.626 0.750073 0.0218152
625.032 1.22088 0.0234403
290.165 0.929997 0.01687
279.31 0.603642 0.0196987
216.577 0.836063 0.0224657
401.139 0.825778 0.0251524
141.055 0.640733 0.0218097
97.5182 0.230206 0.0147862
384.22 1.34728 0.0222958
183.746 0.542674 0.0168942
251.515 1.36858 0.0151831
168.256 0.970612 0.0175422
109.326 0.534877 0.0204388
201.322 0.920493 0.032631
69.797 0.545258 0.0277035
196.6 1.33324 0.0275039
165.954 0.932753 0.0152869
170.391 0.954267 0.0164196
92.7682 0.742286 0.0308682
180.249 1.53454 0.0287684
201.837 1.38857 0.0240801
189.866 1.70757 0.0483542
284.608 2.13287 0.0350267
147.215 1.27528 0.0200842
225.376 2.10006 0.0501402
255.454 2.31501 0.0479389
249.497 2.18595 0.0376791
120.793 1.33672 0.0479982
213.702 2.35426 0.0447676
354.817 3.62435 0.0223556
289.932 3.02595 0.0475777
222.853 2.63189 0.0398582
112.05 1.41331 0.032909
102.183 1.70743 0.0301523
141.096 1.58403 0.0317906
132.267 1.79332 0.0372829
92.4527 1.27521 0.0239241
170.57 2.42098 0.0547349
212.257 3.61759 0.0648292
185.453 3.13235 0.0685531
101.675 1.95201 0.0426113
126.797 2.38691 0.0666617
181.382 3.12533 0.0718148
228.711 4.83794 0.103667
156.839 2.30465 0.0683126
141.036 3.00707 0.0731508
192.841 3.86077 0.0936446
161.478 3.23108 0.0667464
164.026 3.87978 0.0925104
127.922 2.89699 0.0790858
128.352 3.5244 0.106404
119.685 2.6078 0.0848286
49.1901 1.94601 0.0829978
157.736 3.89387 0.110984
222.512 5.58301 0.147135
200.924 5.97868 0.22116
132.867 3.4039 0.113053
71.2428 2.02533 0.0787981
98.7936 2.91664 0.0970167
183.704 6.03178 0.142746
136.719 4.47619 0.132762
142.981 4.93568 0.16014
108.356 3.47161 0.148573
73.4143 2.36676 0.0864394
93.0872 3.41091 0.129562
128.229 5.02913 0.267876
101.116 3.43121 0.145164
87.2175 3.65679 0.162949
85.5626 3.38451 0.155561
105.205 3.81565 0.174152
89.3008 3.75427 0.224422
171.388 6.95844 0.280939
93.5974 4.18445 0.165685
107.274 3.48536 0.128036
151.873 6.02878 0.296255
143.967 5.82777 0.321102
77.9805 3.92166 0.155634
121.863 5.81267 0.277602
113.521 4.80044 0.258316
169.559 8.11867 0.410434
173.199 8.83711 0.478517
141.935 6.21531 0.261122
111.084 6.49235 0.355919
154.718 7.41582 0.320562
118.928 5.72327 0.315483
93.8008 4.54956 0.254222
64.0444 3.40881 0.211523
166.502 9.91405 0.669521
60.1271 3.8553 0.242777
102.524 5.9319 0.325523
107.161 5.82157 0.328244
112.884 6.68655 0.428841
127.157 7.30016 0.434413
95.1948 4.79887 0.350026
74.4552 5.64428 0.412979
56.8243 3.26495 0.242205
223.708 12.9625 0.814085
115.255 7.07539 0.42837
110.397 7.21555 0.570133
44.5949 2.69396 0.182809
121.365 7.86685 0.501796
96.6679 6.61349 0.578623
95.1062 6.84741 0.523395
78.918 5.84454 0.448795
67.5329 4.67694 0.392475
128.251 9.86957 0.772841
80.884 6.18751 0.493914
134.622 10.2512 0.737618
62.3572 6.0958 0.62559
124.547 9.75355 0.858642
80.9348 5.7313 0.505534
117.756 8.46866 0.753664
88.4243 7.3879 0.547345
135.197 10.4002 0.775884
108.433 9.72834 0.911381
90.9334 7.41884 0.685593
61.9271 5.38328 0.453868
113.028 9.86604 0.962077
84.4638 6.7538 0.672475
81.0465 6.69823 0.582361
41.2784 4.44981 0.449827
62.6095 5.56709 0.541638
47.5629 5.24095 0.546841
125.841 10.5522 1.08412
85.2909 9.19904 0.964579
92.2704 8.36871 0.852364
73.6198 7.70431 0.798508
65.0252 6.56625 0.624832
90.9097 9.02915 0.898205
104.524 10.9913 1.17803
136.486 13.99 1.46178
61.386 5.93951 0.738924
35.1675 3.7705 0.387717
47.8543 5.33466 0.61707
61.2653 6.34455 0.711053
69.0479 7.91697 0.905117
136.419 15.5399 1.83583
49.2434 5.05123 0.519135
130.844 14.8167 1.71932
74.1056 8.17602 1.01642
129.607 15.0802 1.80244
70.891 9.56467 1.32792
65.8055 8.44328 1.06099
87.0757 13.7524 2.17201
108.171 11.8984 1.38027
115.005 14.1511 1.86713
63.2833 8.40776 1.08187
125.943 16.5396 2.15525
94.2925 13.0196 1.85996
55.5924 7.80253 1.10937
70.8642 10.1294 1.48254
100.727 13.4696 1.85007
63.4927 8.81519 1.34108
63.9948 8.829 1.29029
53.6186 6.92492 1.04976
74.343 11.1634 1.56175
61.7992 9.10192 1.24936
44.9798 7.40356 1.09117
42.7732 6.80326 1.13765
86.2346 14.6276 2.38748
88.9076 12.0628 1.609
71.7281 12.1101 2.04846
64.0157 9.06451 1.43087
112.877 18.6084 3.08044
63.5552 12.2373 2.19143
47.5163 8.58921 1.56241
67.1284 9.06409 1.31866
73.9911 12.1852 2.10802
86.891 15.2675 2.60841
104.98 17.2797 2.89301
49.931 8.1692 1.43616
69.2846 12.5739 2.21788
68.9598 10.6335 1.64133
87.0132 17.4802 3.1401
47.8934 8.67649 1.6872
51.0552 9.13851 1.64263
97.8828 17.3528 2.9432
86.0736 16.7124 3.29356
90.8825 16.2473 3.10587
87.1404 16.8715 3.23934
89.0814 16.6133 3.00407
73.1903 13.9872 2.7409
67.9119 11.9472 2.17198
73.7396 14.5884 3.0248
72.6506 14.7573 2.83372
60.4527 11.9166 2.49895
69.3627 12.5922 2.30914
90.9441 16.1267 3.21316
70.4302 16.4367 3.62832
73.3774 14.0923 2.72587
97.9921 21.3425 4.67183
59.3874 10.7874 2.26099
43.6411 9.49471 2.20792
51.8705 11.9631 2.78538
73.4252 13.7381 2.88744
71.2282 15.281 3.04114
58.8706 13.3795 2.84687
46.9731 10.4218 2.62423
124.557 28.3108 6.18702
94.1179 19.766 4.34138
79.7402 17.207 3.52301
65.9845 16.4091 4.05819
61.0238 12.3372 2.67815
121.823 27.3614 5.83814
84.1618 22.175 5.65584
43.1169 9.81713 2.27671
63.1992 15.3759 3.93354
61.5183 13.405 3.0058
46.6826 11.9886 3.21671
58.9114 14.5148 3.79015
93.0253 22.5634 6.04215
92.1098 22.576 5.52621
118.705 27.75 6.74635
96.5885 24.7521 6.30595
58.7153 17.5168 5.48783
86.222 22.3809 5.46486
27.4695 9.15178 3.12415
66.5843 14.8525 3.86641
101.452 27.7892 7.28198
39.6669 11.585 3.4123
49.4883 12.1654 3.43202
53.3362 12.5972 3.12681
58.1945 16.605 4.43034
98.9374 27.3602 7.3102
60.1122 16.0442 4.45735
68.5079 20.7032 6.39862
44.7983 13.0701 3.70927
54.6189 13.0961 3.17145
40.838 12.0973 3.37996
71.4212 20.6358 6.08547
44.3006 11.6419 3.51792
64.7591 17.8366 4.7179
62.7475 20.2997 6.30486
36.2615 12.1456 4.34049
47.8065 12.6009 3.73629
76.8947 24.6857 7.62705
72.555 19.5829 5.63456
51.1792 15.8548 4.69698
33.8398 11.2795 3.54117
42.1734 13.6611 4.5856
45.7836 14.2954 4.43757
36.5136 12.9311 4.83641
56.0515 17.517 5.78347
91.7324 29.0123 9.21972
69.5903 21.1098 6.83343
39.5089 13.294 4.6126
59.8743 19.008 6.70731
71.5751 22.9472 7.36554
33.4476 11.5354 3.84506
29.4909 7.74184 2.41269
48.3152 15.8456 5.40463
59.8337 20.0623 6.54989
43.4095 13.1084 4.08888
65.9714 24.4759 8.40897
58.4108 20.4861 7.03502
39.1257 13.2696 5.08927
54.2078 21.397 8.07674
70.3912 22.612 7.8986
55.7657 19.6689 7.23818
43.9311 14.9463 5.38606
39.0781 14.9246 5.71571
24.8373 9.24442 3.66446
29.5108 11.7084 5.30233
57.2029 19.8663 7.59394
71.5494 26.6378 9.51386
68.4195 25.7391 10.1423
75.8845 27.0018 8.93174
58.5642 22.3371 8.68447
76.7864 25.3011 8.06353
35.9796 15.1341 5.60639
42.3203 16.8445 6.73249
79.7332 30.9037 12.2646
45.0715 16.7469 6.50115
27.8131 11.8444 4.9045
64.2561 26.4354 9.90637
24.4525 8.42865 3.71209
39.0829 14.3654 5.41421
47.2805 22.4522 10.2137
45.6916 16.1934 6.40138
18.893 10.3315 5.69354
69.1094 26.8575 10.9772
40.8047 15.7583 6.18547
37.4097 16.1047 6.56738
42.9127 17.539 7.38124
60.7647 26.8133 11.1016
37.1243 16.4106 7.47616
24.9458 9.10435 4.16778
34.9461 14.2937 6.12637
24.9673 11.8115 5.26151
40.3255 15.5522 6.99993
20.2678 8.90291 4.09968
48.2293 17.0121 6.18257
57.6865 26.317 12.3585
65.3455 32.9266 16.9553
55.2894 21.86 8.71
58.6514 25.8183 11.0306
39.3584 19.8369 10.2222
28.6334 11.7908 5.73889
68.9706 30.1465 12.7841
29.5324 15.147 7.34584
32.1218 16.941 8.8363
23.5481 12.0894 5.96306
75.7932 32.637 14.21
34.5772 17.0439 8.75145
30.5441 14.8701 6.52577
34.5428 17.2899 8.29228
22.0439 10.2646 5.55413
50.8321 23.3666 11.677
67.1199 32.4994 15.9094
40.8822 20.7356 10.338
48.6259 20.3235 8.65369
40.3964 21.7364 12.1226
43.1853 20.2786 10.3642
43.1951 23.0601 11.0367
32.6786 16.2883 8.67415
29.2414 14.9298 7.75857
23.3528 11.9214 6.46076
53.0154 28.1644 14.1164
36.3885 18.6807 9.94447
32.1019 17.84 10.4577
56.6788 30.566 16.3598
49.1137 23.9885 12.3182
18.1275 9.61776 6.14006
46.5348 24.3214 12.0294
51.9409 27.1713 14.8919
70.629 40.3117 20.7928
28.2935 20.3724 13.6192
34.9834 17.4859 9.45411
51.389 27.871 15.1301
37.3801 18.5449 9.55126
30.7217 16.083 8.5856
22.2229 11.7205 6.49979
40.6899 25.3938 14.7312
52.842 28.6495 15.5442
37.7445 24.3013 14.7721
44.6087 24.6768 13.9014
35.8726 18.2176 9.89729
23.9918 15.636 10.1651
24.8801 13.7501 8.3339
41.7675 21.8937 12.4519
28.1945 20.2266 12.3244
39.5669 25.4317 17.5941
65.0383 32.5208 16.4366
34.1607 20.1331 12.304
38.164 21.122 11.4337
32.729 22.258 14.4182
20.8335 12.4631 8.11785
45.7961 29.8589 17.7606
34.6983 17.6792 9.62133
32.3741 21.7511 13.6226
27.8881 17.7032 11.854
37.4165 23.8763 14.8835
63.4282 37.8815 22.2022
29.046 17.7133 12.217
40.494 25.4922 17.1657
36.0117 20.1469 11.766
28.2461 16.7926 9.45095
33.3252 23.7184 15.827
43.8671 26.7424 16.4187
22.6828 12.1259 7.83023
32.3604 18.4774 11.2814
43.947 28.3421 18.0524
46.9449 30.1951 19.7685
18.5083 12.2549 8.3077
30.6096 25.3889 18.9777
38.5769 24.4903 15.3738
21.9394 15.2052 12.0605
42.1233 28.3737 19.4155
32.7187 19.2064 13.0742
41.3452 24.0773 13.9592
31.3212 21.9102 16.6957
34.4559 21.3823 13.7691
32.3691 23.2291 17.9869
58.691 34.1543 19.784
35.7772 25.4697 17.2624
30.5912 28.4655 23.712
39.0528 23.289 15.0197
51.0773 35.6414 24.9699
29.0496 22.4955 17.3527
32.1748 21.3057 14.8427
15.4085 7.49199 5.24088
30.3316 21.5525 15.1521
29.144 21.699 15.6973
25.2695 16.9885 11.9462
31.9873 23.8072 17.3835
36.0423 28.3296 21.3081
32.621 26.6191 20.3461
25.4564 17.6869 14.7647
27.0244 19.8795 14.1236
21.6325 16.816 13.9601
29.7528 23.0838 17.4317
28.6864 21.1097 17.3495
30.4311 19.9715 13.3299
26.3864 20.2274 17.0892
23.4044 15.9145 11.5349
39.1869 32.5221 25.2515
23.9696 18.4931 15.2191
15.213 10.6087 9.54908
43.9397 32.369 22.3778
27.2378 21.8416 18.3349
32.7941 25.3026 18.5941
32.9205 23.3026 16.8462
27.0117 24.6698 21.1279
25.8481 24.6874 23.0556
21.6918 15.5602 15.0117
30.0888 19.7467 13.9279
29.1954 21.0995 14.3404
31.1388 25.9205 17.1339
16.4059 18.8276 17.6098
22.9588 25.4096 25.7536
26.8074 15.367 9.80996
21.6365 19.7019 17.3464
34.7116 27.4551 19.3851
37.2605 36.302 30.7457
29.386 26.3434 23.5071
18.3777 12.7025 10.1629
23.403 19.7393 17.2277
24.1771 17.6265 14.6829
25.909 19.0325 13.8949
28.7967 29.697 27.7403
26.463 18.0863 14.109
17.7701 18.1463 21.3361
55.3088 39.6301 25.6361
25.3169 27.1782 28.5662
25.3921 20.4507 15.7622
18.8217 13.4778 11.514
26.6863 26.0889 24.3743
23.5398 19.6665 16.8909
27.0363 22.6758 17.5934
19.5475 19.4002 19.5935
18.7094 20.4115 22.3864
30.2596 23.6188 19.7116
26.9816 23.2349 21.095
20.079 15.441 14.4773
36.0354 29.6991 23.262
13.833 14.0296 12.5819
11.5756 14.37 17.4751
14.5524 10.0741 10.9775
28.0682 24.4847 21.7617
20.2506 16.914 17.2645
55.1087 48.3266 41.8395
42.8028 35.1758 27.7907
27.4728 25.6881 23.8001
17.1546 19.5181 23.5463
33.4606 24.4423 18.7607
27.7484 25.3497 22.3675
24.2214 25.8576 25.1251
35.0636 36.1678 35.0548
16.8302 16.7476 16.2407
19.1615 21.2926 24.9431
23.5797 20.2969 18.7871
22.7108 23.6081 28.407
32.967 26.8561 22.2169
26.1428 24.9466 24.7736
24.5189 23.0224 21.6074
41.1742 46.1288 43.7826
33.0782 29.0422 26.8504
17.2511 18.3842 19.1261
32.9197 32.7684 29.0455
16.8864 19.406 21.4635
28.6976 28.5767 27.876
22.4685 25.9697 26.462
16.3037 21.0552 26.1021
24.0157 21.5831 22.9158
17.9191 19.8306 23.6647
31.5306 30.237 29.8546
24.9052 23.4802 23.8083
20.285 17.6136 17.3474
36.319 33.6089 29.5057
20.6298 28.6935 34.7632
21.3321 16.9264 15.9579
27.633 28.9807 29.5543
28.5319 29.6541 30.68
33.4752 32.0815 28.7738
18.2603 24.7346 30.9554
18.3606 16.2251 17.152
21.9972 22.9866 25.7263
17.9846 18.2543 18.8464
20.1513 21.5702 24.1085
20.5164 18.2324 13.7519
11.5405 14.4741 18.9597
14.5445 16.9664 19.025
19.1844 22.5313 25.6455
22.3633 21.3791 19.7028
24.616 31.0404 34.5976
12.6906 11.3419 11.2225
14.4813 21.6443 27.4296
20.3157 18.0147 17.99
12.9795 14.9896 18.9166
29.6226 30.8536 28.8924
24.8462 30.4161 33.9129
12.6541 13.1994 16.7775
14.8882 17.4271 22.9372
29.9134 27.3265 24.7173
13.7964 16.8775 21.5733
19.4562 21.4984 24.4099
15.5515 13.5379 13.6849
11.3249 11.5317 12.9975
11.0947 12.1412 14.0623
14.5333 16.9665 23.1909
24.1273 23.6937 23.2513
17.7855 25.3123 33.2958
16.8442 18.3732 22.4933
22.0196 28.3393 35.5239
21.763 23.2236 27.658
20.9571 26.9048 37.0409
22.6291 20.1699 22.8842
34.7935 37.7239 40.771
25.8756 26.454 24.3034
13.3665 19.6231 28.3856
11.0356 11.4803 14.81
16.4936 18.1977 19.6457
14.6154 19.1117 25.6842
19.8333 17.6688 15.4424
11.1037 17.386 23.2263
15.3248 21.5574 28.1913
11.0476 8.80257 10.8983
37.0189 42.5037 38.9909
17.8501 30.4622 40.3482
13.4012 22.3472 37.7481
19.8079 19.7251 24.3179
26.4906 35.08 44.3333
21.5564 26.4792 34.5263
17.707 16.0533 15.7804
17.1751 25.306 31.7366
11.3092 15.5839 20.2772
11.8138 17.2238 27.9525
16.4353 19.4295 25.1409
18.1452 18.6648 22.1223
9.82169 10.6843 15.0595
23.8617 36.3109 47.7204
22.3849 26.2289 36.2559
16.9022 15.6972 20.9633
22.8847 26.5465 29.7013
12.1979 9.59446 9.66878
17.2674 23.1686 30.2564
17.558 24.0741 25.7865
10.877 15.5741 22.303
14.4965 21.3004 27.7031
8.36068 14.1037 24.2483
15.7898 24.3311 41.9591
37.5259 40.4495 37.1327
18.9343 31.5395 47.3563
25.7561 34.2941 46.8089
18.6958 21.0857 30.2621
16.1648 18.6984 20.8075
13.1341 19.9115 32.6108
19.6163 22.1389 28.8247
14.6047 18.0211 25.6821
18.5344 25.3677 33.698
13.8436 15.4869 20.7285
16.4824 24.3706 36.0494
18.8843 21.5325 27.1164
19.4723 26.4629 35.5481
20.4987 25.9676 34.943
11.3867 12.8253 22.3359
14.7823 15.5597 18.1222
19.0993 26.2332 32.0663
14.3982 19.9129 26.3368
10.2702 15.4949 20.8848
15.2804 23.1971 32.979
17.6671 27.8896 41.357
14.7303 17.4507 24.0874
19.5197 26.2804 35.0157
17.2391 32.3016 51.8563
20.1147 26.8343 37.7655
14.5951 18.0087 24.8852
10.2996 15.0762 23.7281
15.1088 23.0352 34.0973
17.7842 26.8436 41.3851
13.4546 14.5835 20.1739
20.9045 29.9956 36.3896
20.5009 28.9695 38.8311
9.21032 13.8413 22.0308
8.44779 12.212 18.3161
13.5379 21.6448 29.6634
14.0214 22.3729 31.0709
7.40468 12.4863 22.3448
14.0438 23.7498 37.6137
11.5499 16.1469 30.4852
22.8437 39.25 55.3557
14.6847 22.3281 36.6885
19.0723 26.7995 38.1422
12.7225 16.5811 24.0572
10.6868 18.7642 32.8436
16.1483 21.9334 29.9304
14.0711 19.6015 28.2816
17.3273 21.0628 23.4057
6.33767 9.35701 17.4576
18.0548 29.706 48.7478
18.9939 24.6429 30.4264
15.2871 28.0088 46.7146
12.2955 16.5058 31.9904
17.88 20.6577 27.5987
18.4289 24.2295 26.8209
10.296 17.4266 25.1737
6.72049 12.5282 22.5792
10.9802 16.1926 25.0314
10.3988 15.5899 22.4083
8.26894 15.1884 28.785
12.8176 23.6008 41.0504
18.3741 28.3225 49.4875
17.7283 20.8019 27.2604
11.4224 19.1856 26.1782
11.9481 20.2128 32.3366
12.1032 22.2427 40.5237
13.1572 25.1211 53.8061
22.7192 22.8794 22.7441
10.4867 18.3672 30.7622
18.9887 29.7014 34.351
11.889 26.4142 47.3021
12.6743 15.7753 20.1838
6.77179 12.5323 26.9887
15.3144 22.1777 27.1888
7.91933 15.7935 27.1647
7.14561 14.9188 31.465
10.6992 18.4974 31.963
13.7279 25.5482 40.7611
9.69181 13.5132 26.9118
15.6808 24.8932 35.469
12.7798 29.0498 55.3466
13.6318 15.0727 16.7095
11.3699 22.3415 34.8796
8.94028 16.3072 30.6328
15.9554 27.5592 46.2258
14.9931 24.7402 41.8761
8.02995 13.0364 30.3907
18.4803 27.5662 34.8579
9.48639 18.5992 32.9844
11.5598 18.491 28.6869
5.78801 9.83653 19.0788
9.2478 18.188 40.7264
12.0572 16.6987 31.1495
14.806 20.4574 28.2843
8.88192 18.2688 39.7094
10.0253 12.3234 21.3773
15.7287 27.8877 51.5295
18.6564 28.0902 41.8045
20.1883 39.5739 67.383
12.3762 18.9664 30.625
8.26696 15.412 36.45
14.1684 21.3828 28.6531
10.3467 21.869 43.7501
12.5468 22.7384 44.5644
13.652 16.6152 24.7887
14.589 24.8765 40.6784
17.7713 29.2082 41.7922
8.11687 14.9773 30.037
9.49854 14.6843 19.7741
9.6353 22.8858 41.8384
6.61173 13.7155 31.0044
12.8806 21.9871 38.8612
6.95679 14.9178 33.2445
8.5438 14.8055 30.8894
14.9657 22.8169 35.3777
12.5383 26.366 42.3299
6.70173 10.559 22.0714
9.92879 20.1833 30.9273
7.4983 16.6806 38.0018
11.058 19.2569 33.1362
14.6613 28.8741 52.96
9.87068 13.9147 26.7548
11.5349 19.6076 37.1162
15.7372 29.6554 50.5965
9.88253 17.2365 34.7526
16.7761 34.1051 58.3294
9.96164 18.0648 36.8253
9.86382 16.1275 33.0074
9.46666 16.9619 27.6382
8.7967 18.3542 37.3837
9.73027 19.0493 41.1109
9.33333 15.0418 27.4912
12.5626 21.6461 36.8299
14.2286 29.4489 55.9215
7.55018 9.46982 18.8275
8.51845 15.6936 28.8202
8.8296 16.1809 26.3517
7.17711 18.7683 45.7256
15.7796 26.0689 43.7202
8.82481 20.1462 43.1226
9.67398 13.9715 26.2432
9.86373 17.4077 35.7956
16.3156 30.8485 47.6836
6.07232 11.9522 29.0912
8.14375 10.4348 14.7223
6.87895 14.5138 30.0759
6.67271 12.4212 25.054
9.47241 20.0586 31.9974
5.83957 12.2202 30.8969
13.9559 23.7255 37.2413
7.37492 17.8449 41.3114
9.00407 14.1615 34.3373
13.0629 21.5489 27.6411
4.4051 19.2847 53.4066
9.91223 14.4376 27.7844
7.7968 12.8736 27.7022
9.32385 18.063 36.2715
13.5468 25.7782 49.6388
9.88644 21.3062 54.5879
14.1686 16.9079 25.3332
12.5535 23.4265 36.725
8.1085 16.3315 27.4513
6.00061 14.2445 26.944
3.69309 9.89383 33.6874
11.7053 25.0113 48.2
11.2565 20.599 44.8601
10.2742 19.1705 34.8997
7.7883 16.3047 34.7347
6.49793 12.0463 30.7558
16.1309 37.5441 73.2728
16.7895 33.8209 64.3523
9.31866 13.0924 30.4489
9.93913 17.8089 27.8103
6.97237 14.9612 25.2773
6.05412 17.7759 38.3744
6.71164 18.6094 45.394
9.24546 16.9882 36.9302
12.436 29.2052 65.8274
9.55948 14.4558 24.6067
3.91623 10.2989 35.0966
9.96185 17.4124 34.1791
8.4163 21.7063 48.8601
7.86607 10.6854 28.843
8.50582 13.5849 32.6695
11.5648 21.4094 37.5136
9.11342 14.8046 20.6918
8.095 22.083 45.7167
8.85264 22.4707 49.7671
8.95866 14.4132 27.6033
8.73274 18.9664 37.3405
7.10236 15.4533 39.3701
8.58433 19.9063 47.9145
10.0511 18.1146 33.8586
6.27134 10.7612 23.9108
8.787 18.1924 26.8428
4.42916 12.938 26.05
5.18454 15.9488 40.5757
6.90572 16.2301 43.2576
7.55688 11.9467 23.1312
7.82717 16.3541 31.9732
9.97804 23.4531 51.0532
8.51787 16.398 41.0546
9.62617 14.763 20.2673
5.19912 15.4237 34.5608
7.81145 21.2146 46.6528
7.38086 13.3901 29.7283
10.8296 23.3456 42.6713
4.27871 11.1972 33.8041
7.14679 17.2979 41.0856
7.23081 8.8816 21.7787
9.60065 23.4982 48.7224
8.70275 18.9181 40.864
6.34206 12.6767 31.0038
9.34393 19.7407 41.0427
8.5916 18.2589 36.7586
5.43186 10.8844 28.8946
7.56734 14.325 28.0775
8.28006 19.9597 36.183
4.25778 13.9265 41.8521
9.01716 18.2606 37.7295
7.61816 15.7897 44.3786
10.663 20.5701 32.8217
6.32443 19.6809 43.8791
7.2321 19.6127 42.5702
4.96048 12.2229 46.1945
12.2527 23.6159 44.5498
7.89093 17.4849 37.5507
7.65006 18.9495 42.8549
9.12575 25.8565 61.6553
8.60887 17.6995 36.3015
5.83148 19.2332 65.9637
12.3004 23.2864 50.3601
8.25799 13.4573 26.0773
5.45701 11.3328 25.0414
6.061 16.7233 40.2501
8.72843 15.4288 24.3922
5.0821 20.3858 61.1365
9.36661 12.6104 19.5042
3.67071 11.395 39.4671
10.3568 24.5808 43.1971
3.02966 9.34986 25.9819
5.82599 15.5543 35.269
4.33573 9.59517 33.4748
8.38297 19.1922 49.9158
9.58105 18.7323 30.1767
5.77098 13.68 27.8357
3.61923 11.4427 33.7472
4.42106 6.44046 15.0286
3.32468 8.4145 30.9752
9.51996 24.7668 44.696
7.96683 21.7261 46.8527
4.40381 10.9254 33.1247
6.59529 14.6671 37.1086
5.69199 11.4637 32.8069
7.92336 19.8557 46.428
5.96396 10.5325 25.8305
8.32153 21.6677 51.3452
4.68145 7.96783 25.0952
7.77545 19.684 59.0507
11.4407 23.0859 47.3463
8.54158 17.0952 24.3944
1.63152 7.60194 36.907
8.95917 22.1328 49.7229
6.93656 15.581 51.1452
10.1558 20.1754 36.7558
6.43323 13.0573 31.5999
5.96774 14.5255 29.8239
8.6478 29.7198 75.6597
8.4587 17.5657 36.1309
6.33688 17.5991 46.194
7.59898 21.7781 57.9968
8.82021 17.5619 47.4073
10.851 25.4879 44.0301
2.93461 10.9314 57.3771
14.1535 33.387 58.5471
4.64497 14.6884 47.0294
8.07534 21.2385 63.0705
8.76309 17.3861 32.0769
5.00569 17.7613 61.144
9.75877 20.7778 53.6511
10.411 25.3652 61.4499
8.26627 17.8328 39.68
5.8694 14.7388 35.3586
7.19856 19.368 38.5436
3.83403 10.2199 29.6122
8.33604 35.3492 96.6066
8.13677 11.3453 45.3114
10.8494 27.1254 72.4081
9.34735 14.877 26.4267
6.20765 16.9849 29.2185
4.03957 12.5156 27.8585
4.27007 13.6068 38.7183
5.66999 13.9616 37.7815
5.25193 15.236 55.4304
8.29571 15.5184 37.1334
5.75901 15.6989 38.4614
6.34123 18.908 57.7475
7.60592 17.3233 45.0419
7.31736 14.544 33.9968
6.38361 17.2146 43.1034
4.90514 11.337 33.3925
6.49131 12.2543 22.1217
4.96339 12.2804 27.2701
4.37827 12.2802 29.4301
4.92687 14.8657 40.7956
9.11122 26.2989 47.9256
5.7813 22.6721 59.0721
5.51053 12.3778 41.3262
5.09653 12.7409 32.2749
5.2866 15.48 46.4438
5.9132 14.1861 46.0517
6.72662 15.3587 47.7723
11.9897 26.6636 57.1698
7.83231 26.261 62.3904
6.80939 14.6726 29.726
5.4628 22.5387 74.0451
9.94647 23.2162 45.5747
6.3875 19.5886 43.5838
4.27661 15.0039 42.0973
4.85047 14.3165 42.1337
6.13188 20.5743 58.1417
5.35958 12.7966 35.7547
3.39353 10.4474 41.6065
6.23388 12.618 32.0643
6.37573 17.0109 42.8934
5.50689 17.0025 50.6169
4.47078 8.63135 28.2692
6.65242 20.7191 52.0914
6.18286 12.9389 41.0174
8.41389 20.5043 36.9783
3.51198 14.2133 52.0881
5.95916 12.8755 29.2182
3.26496 13.503 45.0248
5.20447 14.3279 49.788
6.86705 17.0089 35.8238
4.62353 11.8403 31.2279
4.29149 12.3722 33.6753
3.18623 8.15729 29.0513
5.90149 13.633 38.6329
7.55388 24.2685 80.3309
8.54379 14.8334 29.217
6.29994 20.9679 48.5263
5.80009 18.1623 39.1578
2.99748 9.72551 32.0953
5.46043 20.5358 57.2124
4.98351 12.7667 38.8597
2.88377 6.4929 27.5131
4.27045 14.8629 41.961
5.74883 14.335 36.6352
3.33054 12.4323 49.7055
6.29359 10.0539 25.0972
4.64778 14.6855 40.5745
4.91563 12.7053 50.6454
7.93712 20.4694 39.4866
3.63485 7.94659 20.7171
3.77853 14.213 31.5394
3.42249 18.7521 70.3004
7.68048 17.1169 46.7373
8.27915 27.5166 72.334
5.90575 12.2419 41.4953
5.55377 10.2462 33.1213
5.16327 18.4179 60.3007
6.68869 11.7375 26.9068
5.64977 17.7802 54.1929
6.04008 14.2999 36.4179
6.49938 21.7017 45.5527
3.73331 12.3814 48.7038
6.17307 12.3509 33.4129
6.49627 22.8796 68.8278
6.76068 10.8816 32.658
6.21144 21.4152 56.7238
5.02036 9.26585 34.1219
5.74251 16.533 39.5947
5.47444 15.8949 52.3278
7.43722 24.5301 70.387
8.51997 22.358 55.9909
6.40272 16.7825 46.2757
4.31256 13.3213 32.7178
2.75354 11.5164 60.2804
8.08399 12.7889 34.3716
6.39364 17.1668 28.4021
3.53931 17.5516 57.8238
4.90909 10.9341 39.4847
4.74009 9.66628 35.6295
6.29057 14.4468 24.8729
3.92336 17.6271 56.1145
6.4112 17.5984 44.8413
3.04452 5.63576 20.9983
3.82689 13.7957 46.841
4.94094 11.6147 27.9072
3.01789 9.06105 28.8059
4.40384 12.8306 37.8179
5.14937 16.2918 40.309
3.4556 15.7869 67.9503
8.0405 22.3389 62.9168
5.49513 14.4317 64.025
8.04013 19.1172 41.8196
5.0045 14.9943 39.4399
3.33635 8.60728 36.1234
5.67725 13.2801 35.3372
5.16907 15.9329 39.1459
3.2722 11.2762 42.7647
6.04547 19.448 59.5232
6.35768 22.4105 51.4555
4.73735 12.603 37.2359
3.47579 11.2636 42.3682
4.99043 15.8022 58.734
6.56157 16.4418 31.5047
2.66866 9.6678 44.8676
4.1224 6.00689 27.4275
5.22037 15.8809 33.0137
2.95028 9.49572 35.3737
4.74337 11.7693 33.2958
3.00723 8.95733 32.22
4.0049 9.31404 36.2994
4.29191 9.83743 30.6602
5.16036 13.0544 26.1775
4.023 16.6218 38.2577
3.23281 9.7452 46.2671
6.99339 22.1271 48.5134
2.99591 8.17666 27.7205
4.07299 13.5387 48.4572
6.1582 15.34 43.2149
4.0613 10.073 25.3064
3.31344 11.5697 31.1632
3.04475 15.991 66.1609
6.36194 11.4015 34.055
4.22166 15.1786 48.6275
4.78778 9.77979 25.6646
3.63144 13.0665 34.676
3.30757 8.97271 28.8128
3.86237 14.4312 43.1356
4.48768 20.6794 85.3888
9.62874 20.9316 44.2914
3.6345 9.21477 31.3481
3.11951 10.2901 30.113
3.9546 13.7727 44.4558
4.51166 9.97492 18.445
1.94691 8.59035 29.7301
2.79258 9.2037 35.4045
4.09993 11.0732 31.1827
4.46796 13.9669 35.6396
3.16039 13.206 37.4304
3.20908 16.2513 74.4593
7.11471 14.1161 43.7803
4.93739 13.4406 36.5683
4.21225 13.4131 42.7122
5.44211 13.2931 30.2828
3.07199 13.2491 42.5716
3.66373 11.8801 38.5321
3.04444 9.6284 38.5589
2.97572 6.39731 35.9819
5.25692 12.76 27.633
2.89676 9.8905 32.9708
4.86354 21.5542 68.1306
5.28113 13.5808 36.2745
3.12216 8.51622 32.1831
3.73644 9.34064 30.5737
3.25499 7.90785 20.1317
2.27821 10.0549 34.5147
4.04477 15.5513 55.7545
4.76607 15.6258 45.5019
4.32506 9.54292 33.5093
5.42968 27.9543 79.2633
4.24664 7.73208 43.3226
4.67922 9.93938 21.7582
2.56017 10.294 41.5538
3.88653 14.0625 43.9856
4.10661 9.84277 34.7025
3.73278 15.158 51.1643
5.06671 13.4271 44.7752
4.28599 13.5646 40.2169
3.7888 17.2295 68.0922
5.39905 9.09608 29.1275
5.12603 18.7525 48.923
4.36293 10.5719 18.7172
1.19864 5.58003 25.8174
2.10645 7.57054 25.6278
3.02104 14.4655 52.83
3.90977 12.6198 45.0595
4.39057 13.79 55.4311
4.8921 11.7424 40.7642
4.66383 17.417 55.9274
4.24208 9.7307 33.1186
3.39653 11.193 33.4996
3.23092 12.5013 37.8763
3.58276 9.54714 48.7333
6.50307 17.6782 38.547
2.9452 10.3282 32.7288
2.80333 6.61189 22.1526
2.24605 8.43127 33.1492
3.14471 13.884 54.1583
4.71983 12.8629 42.4342
5.35885 16.5557 34.8828
2.97723 11.8286 40.884
3.74881 15.853 58.1311
5.1714 14.1314 46.0392
3.94445 13.3564 42.9922
3.46153 12.0409 42.7327
3.95626 14.1461 48.2806
3.9533 15.2058 67.3303
5.99379 13.7264 47.1049
5.12752 15.088 33.8372
2.56168 6.92214 43.0267
3.96175 11.276 29.8155
3.48374 13.8253 64.9413
6.43958 16.6483 33.7761
3.18954 13.2816 43.5782
3.59311 7.58655 18.3954
2.28843 11.2705 51.767
5.37994 23.1911 58.3637
3.45243 15.3886 49.3547
3.41014 10.1903 48.2259
4.71856 12.5812 35.5719
3.85154 14.4648 47.2461
4.31149 13.1578 49.2247
4.74513 17.0458 49.669
3.43241 11.4053 28.8459
1.97541 9.17043 49.9634
4.42019 12.3367 31.1554
2.35505 8.31197 32.1655
3.25503 9.38076 20.8715
1.54879 7.34289 34.9583
2.90575 7.74658 25.9993
2.11997 7.78326 33.7524
4.1015 14.4043 34.2391
2.08144 6.50973 23.4833
1.69538 4.75375 24.8349
1.9807 4.90116 21.9745
2.44734 8.574 23.1097
2.00723 9.30986 32.0629
2.33986 7.95872 29.1536
2.2894 6.85721 24.9009
2.38427 9.94924 41.7221
3.42766 12.469 45.6842
4.28782 15.8478 53.1153
4.30343 13.3835 52.6612
4.79592 12.3758 35.5222
3.83397 16.8508 43.5266
2.48735 6.64049 35.8214
3.76113 13.7219 51.0752
4.08959 13.9537 26.5118
1.39972 6.66018 24.6713
1.88817 7.60443 24.422
1.86507 6.77177 37.5966
3.37608 12.2711 49.97
4.46675 14.3779 38.2022
2.92872 11.2456 38.7343
3.7635 12.3506 29.4566
1.92579 12.5006 71.3839
4.70755 9.2886 39.5975
3.81918 15.4176 68.3516
6.32987 19.9387 62.6962
4.35242 10.1126 43.2016
4.50309 13.5947 29.5358
2.3543 5.93796 22.9817
2.1387 9.78975 30.4487
2.21004 6.87773 39.3939
4.08256 13.5596 56.1924
4.66648 16.7387 33.8234
2.45414 12.4358 48.4281
3.68342 12.6573 40.3965
3.13447 7.0477 19.8194
2.44547 12.0819 50.0186
3.71397 9.33756 31.4802
3.03117 14.0197 47.4563
2.86262 6.51271 36.0763
3.54665 8.55835 16.6096
1.70746 9.44674 45.3676
3.36182 8.24743 29.3
2.9026 12.801 28.7387
1.66917 6.74964 26.2505
2.40906 12.3091 52.8624
3.72841 10.7455 37.4895
2.58732 3.90873 13.7832
1.51051 3.68787 24.8733
4.02045 19.8639 55.0701
3.62902 10.1404 39.1301
3.10864 11.0556 43.5859
3.29012 10.4146 37.3545
3.17168 9.17338 24.9678
2.83077 11.9552 36.2273
2.19313 6.87735 44.0565
4.20244 13.355 46.5603
3.92188 12.0522 37.1494
2.93064 8.17064 21.1919
1.92434 8.55807 24.6504
1.86416 6.06552 21.7684
2.08667 17.2082 61.3865
3.89288 13.9565 51.4849
2.94506 5.299 37.5664
3.48921 11.3052 38.0234
2.94272 13.9181 45.4538
2.82308 8.71174 45.6717
3.48344 7.68884 19.812
2.163 8.66238 29.229
2.55427 9.78614 25.7287
1.57928 6.43505 28.9108
2.36304 6.92987 35.7731
3.53196 9.93113 27.2725
2.08607 9.1002 28.4582
2.39281 10.2648 30.7186
2.49816 10.0616 45.4688
3.36804 11.7533 43.8444
3.48522 9.72209 40.2654
3.45897 8.36031 25.7786
1.90438 7.61227 19.2164
1.65924 7.91371 25.8088
1.51413 6.71882 27.7608
2.07473 9.57496 46.3997
3.82575 11.0521 31.126
2.42768 10.5878 55.1926
3.76678 12.233 22.8985
1.57241 9.3027 30.4338
1.80518 7.70867 38.185
2.90939 5.46431 20.3022
1.99445 8.63351 39.8833
3.65605 8.78629 18.702
1.79605 8.90618 38.6018
2.09798 8.99208 42.0071
2.8943 9.54744 37.4612
2.7677 10.4108 31.3088
2.29623 8.55805 36.4739
3.25313 13.7374 34.9772
2.06376 7.96396 29.3399
2.22574 9.0706 60.0959
5.30773 22.5011 59.4594
3.38698 8.22183 43.0002
3.65677 9.02838 18.762
1.46062 5.88964 20.9377
1.91443 9.85684 27.5185
1.93644 9.26008 36.5186
2.14406 6.51291 30.774
2.47303 9.71109 37.4963
2.37283 10.9679 37.3047
2.68306 8.37408 50.3829
3.84368 10.4119 28.3419
2.62143 11.3417 41.8239
3.33899 13.1484 32.9582
1.90173 7.08808 23.9291
1.66843 6.45658 24.8029
1.40725 7.53409 51.8781
3.68424 7.05057 18.5649
1.72913 5.54548 27.7418
2.45802 11.1898 28.4823
2.13447 10.4673 25.168
1.49316 10.1057 54.3082
3.73545 11.607 45.0413
2.84143 10.2125 36.2838
2.35646 6.66177 22.4733
1.6244 8.21382 43.9888
2.9772 9.58938 48.1361
3.64901 7.91021 14.9386
1.5895 9.34276 35.2728
2.32057 9.98859 21.4619
1.31678 7.26462 37.0799
3.07314 11.0253 30.6549
2.26414 10.4998 42.4608
2.93692 7.1055 29.6834
2.5354 8.78956 41.9726
3.11082 9.13409 24.4865
2.04858 10.5704 43.0121
3.11647 10.4876 36.3147
2.72764 11.0317 47.444
3.33583 7.8487 30.3913
2.41608 8.48879 29.0068
2.2193 8.7381 33.6776
2.06699 6.17579 37.2366
2.90464 10.9511 39.7559
3.17045 13.4451 45.7718
3.18446 11.2698 43.4438
2.98517 8.99874 28.3783
1.87781 4.80798 35.7649
3.34826 15.6172 49.3739
3.13753 6.17941 29.7075
2.81248 12.2403 36.3104
2.62605 7.25644 28.213
2.15891 8.0281 30.4548
2.29698 10.85 27.1123
1.79099 8.7002 39.561
2.83608 11.88 58.072
3.71999 14.713 55.6391
3.72797 5.67105 35.3078
3.12009 12.7289 36.2917
2.75514 10.7744 25.2366
1.77925 6.98517 39.5041
3.21595 10.3777 23.1217
1.54317 9.69704 35.054
2.07439 6.90715 36.204
2.43037 5.70254 36.6343
3.12135 12.7312 39.0681
2.76762 9.72236 42.3026
3.23475 11.3906 37.9197
2.35012 7.77011 17.5317
1.31517 8.63768 49.6293
3.33336 7.45189 33.5012
2.76908 12.7972 41.0329
2.81134 10.1329 30.4509
2.15163 7.28188 39.6065
3.01681 11.5009 45.979
3.02957 12.6485 53.304
3.37444 8.27132 34.4067
2.79146 8.00844 22.3128
1.56037 4.45209 28.5116
2.24173 9.49236 31.0474
1.86376 8.1818 46.2845
3.42134 9.04816 25.7274
2.4823 11.0162 42.0002
3.08637 10.7247 59.1244
4.72677 10.4727 13.4662
1.09132 11.0044 46.6833
3.10808 6.37859 33.3787
2.56893 8.98578 43.9543
3.26073 11.9588 45.7353
3.18353 9.03744 28.1669
2.1937 11.0184 48.6134
3.17541 12.3405 44.7812
3.10578 12.6237 50.9349
3.38253 12.7326 56.316
4.05652 11.9813 41.8709
3.06625 11.7692 34.8307
2.31982 10.5782 33.012
1.95859 5.78588 33.3918
2.70074 8.77919 32.5107
2.15663 10.1911 29.6893
1.77261 8.21103 44.6055
2.93413 9.49497 31.2981
2.29895 6.54965 22.6051
1.79276 7.60036 31.4146
2.03186 6.93527 18.1182
1.2549 4.46704 18.4605
1.22483 7.6632 38.1239
2.61946 4.60233 26.7032
2.31957 13.9105 45.6975
3.03968 10.7889 25.4972
1.58254 10.4149 50.1969
3.26923 13.0959 41.267
2.34254 3.59297 15.3456
1.22207 5.77777 19.7351
1.47521 7.50659 37.7463
2.52956 9.23577 38.7651
2.48505 14.2132 43.5366
2.61729 6.5521 35.9352
2.3344 10.1577 36.0072
2.35478 8.68754 36.8417
2.42879 6.0205 17.2438
1.15481 9.54718 38.7797
2.65199 8.81775 30.6183
2.28913 7.74994 40.4292
3.27213 16.8264 55.3273
2.77056 8.01914 27.5909
1.96902 10.3284 42.2456
2.54483 9.67965 44.307
2.86793 9.63186 47.515
3.50363 12.1273 58.336
4.11093 14.9434 49.2712
3.16708 9.95778 15.9225
1.10217 7.35002 29.2086
2.2918 13.7781 46.645
2.89742 7.4533 52.218
3.30555 8.06892 26.3322
1.49786 8.27367 51.3917
3.69702 15.2597 55.554
3.31459 8.55583 32.9543
2.49281 13.5823 55.8577
3.47897 8.56012 13.6709
0.805296 5.70787 32.381
2.43797 10.1173 34.9551
2.0652 8.38555 38.0999
2.38087 8.0655 33.5998
2.27517 9.20166 37.8177
2.82522 11.836 39.3102
2.21289 7.47966 32.6792
2.17804 8.19395 42.5135
3.05871 9.77192 33.5431
2.24621 9.19849 24.6012
1.81865 3.84093 16.996
1.2518 7.92399 28.9025
2.04259 10.1159 50.7449
3.35079 11.8986 32.1205
1.84913 6.56803 36.174
2.0861 8.88393 41.9009
2.46315 9.16879 34.5711
2.39623 9.31918 44.2914
2.81343 9.91937 38.1207
2.47752 10.7196 53.4249
3.52188 11.4547 21.4796
1.50862 9.92512 45.6715
2.89533 9.82641 55.7806
4.09306 14.727 57.3843
3.76617 13.1599 36.0165
2.27196 11.6452 53.3186
3.32384 9.34767 22.9465
1.59132 9.7256 34.2386
2.40349 15.2353 53.7247
3.38896 8.59674 50.2248
3.43161 6.5425 36.9062
2.39855 7.57154 20.8378
1.44581 14.0035 35.7377
1.96317 7.43075 37.9875
2.43109 8.48331 46.0097
2.91309 9.68176 33.6913
1.87312 6.93198 37.3393
2.4724 9.09179 20.2774
1.24818 3.71162 24.338
1.91296 5.99023 13.0263
0.926809 7.84656 27.5027
1.82808 8.6823 29.7026
1.69473 9.03778 43.8098
3.00711 9.62564 37.8733
2.45973 9.157 34.4272
2.31574 7.56293 27.2356
1.87911 8.97484 51.78
3.25222 14.116 54.8308
4.1568 10.3297 22.3816
1.41182 10.9422 36.2601
2.08148 5.34144 38.6271
2.56411 9.8534 29.0149
1.76121 8.24846 29.9878
1.53366 7.09205 33.4025
2.23797 6.24777 42.0402
2.71048 15.413 41.9187
2.58906 11.0966 47.9431
2.63904 6.33024 21.6035
1.31146 7.15279 43.1459
2.95241 10.227 38.6393
2.33823 5.05911 29.6997
1.76701 7.68029 34.0316
2.11099 6.89649 22.222
1.3606 5.87561 21.5093
1.38566 7.58407 42.6007
3.06886 11.6637 38.8055
2.41185 12.9116 32.0078
1.97663 5.62027 21.9634
1.35229 8.31271 47.1341
2.97173 8.34628 35.2748
2.23645 8.75431 48.6747
2.56561 8.04468 41.1443
2.79711 11.432 15.6731
1.0952 6.70102 43.5214
2.52746 9.8731 39.7829
2.52863 12.1478 42.0189
2.6833 7.85359 35.0674
2.38777 11.9965 43.4428
2.59369 10.6717 45.691
3.55243 10.2139 35.1538
2.22253 13.6514 37.265
2.18627 5.44042 17.5351
1.32721 9.26739 77.0121
5.13782 19.2488 48.4861
2.85414 9.86513 31.6311
1.88835 10.9737 54.4984
3.50501 7.69514 23.3807
1.60224 6.28454 34.7856
2.78533 4.32475 29.8161
2.17155 10.555 26.9557
1.8518 4.10748 26.9852
1.88147 10.9247 41.3434
2.71755 9.38316 37.3289
2.40074 14.1079 28.0526
1.66083 5.73247 53.4505
3.23892 14.7783 47.411
3.51181 9.03214 38.858
2.49236 6.29418 42.4257
2.85565 9.93818 32.6341
2.01409 8.77212 35.5272
2.06304 10.3523 35.5396
2.608 10.1667 52.2728
3.28121 11.335 37.4814
2.62912 12.5078 27.906
1.59194 5.87029 53.6879
3.1448 9.29924 17.5551
1.00322 10.9349 55.0721
3.5272 12.1891 50.6016
3.30695 10.4177 22.3212
1.41251 8.43115 45.603
2.91351 6.37187 34.4557
1.99859 14.031 42.9079
2.92094 14.9594 86.2547
4.35686 0 0