# pn-170911/RbIIR-45-WTZR-1280-1959.psd
# Power spectrum* (dif=0,1,2) (really just |FT|^2)
# NOTE: only the first half! (symmetric)
# weeks: 1280-1959
# 5 clock-days, 14 excluded
# PSD: 1441
280.545 0.14877 0.113908
16004.3 0.544575 0.0811184
60555.5 0.644156 0.0821353
18779.9 0.999345 0.0800966
12690.4 1.10305 0.0783032
2784.85 0.659293 0.0796098
3256.71 0.739674 0.0780995
2636.61 0.596811 0.0815568
9324.6 2.55547 0.0815383
3070.63 0.869515 0.0785996
2048.53 0.87151 0.0809403
1399.82 0.56335 0.0817722
2316.81 1.18842 0.0921196
1743.62 2.04194 0.0843067
2191.17 2.71658 0.0935253
893.849 1.09235 0.0882356
460.942 0.963816 0.0845469
1289.65 1.5718 0.0754951
964.797 1.62548 0.0790381
688.203 1.1238 0.0795143
1162.26 3.26263 0.0742256
1163.28 2.19923 0.102952
1263.81 3.28822 0.105537
442.51 0.963327 0.0930203
1804.15 5.95046 0.114937
1168.56 3.16622 0.120884
1567 5.11336 0.12114
1119.56 4.63082 0.115243
2353.44 7.5203 0.123902
651.938 1.88355 0.0787057
1588.32 6.62938 0.121336
549.063 2.88404 0.104513
945.322 3.99968 0.11791
1152.97 5.84825 0.110782
397.603 3.11682 0.121163
501.84 3.01632 0.119435
344.438 2.17413 0.0736918
741.576 6.02027 0.167857
1022.71 6.66675 0.152095
572.436 4.03356 0.136061
1012.88 6.90813 0.157461
981.936 7.15822 0.137128
1655.35 12.5191 0.160714
1329.79 9.43653 0.160369
358.624 2.79792 0.0611251
1218.6 12.0172 0.1233
1361.79 12.7525 0.173102
787.647 7.58315 0.227967
472.325 4.2697 0.138401
529.985 6.35579 0.151838
689.769 9.38925 0.12722
930.623 11.603 0.31077
712.382 7.74041 0.121813
1126.45 15.8188 0.287604
1130.11 15.5038 0.126531
582.286 9.2312 0.122639
779.251 9.91564 0.181114
1046.34 17.4359 0.372741
1008.06 14.0306 0.189436
1428.65 25.929 0.491593
1244.19 18.1551 0.469066
410.638 8.33899 0.255449
2226.93 37.5823 0.698517
363.932 7.79368 0.269699
444.665 8.04659 0.101722
474.087 9.11742 0.298475
695.054 13.2531 0.3375
413.171 11.2907 0.320117
1304.97 26.5201 0.638141
807.904 16.6483 0.270755
464.392 9.87358 0.252526
1107.96 24.2045 0.779503
329.072 8.53189 0.262287
540.278 13.3939 0.43664
368.906 9.13082 0.256357
431.509 9.66502 0.416251
487.225 12.089 0.331548
336.03 9.10574 0.333499
597.188 16.8635 0.351679
530.935 14.807 0.607966
855.582 22.7627 0.541905
604.99 19.9649 0.64726
417.124 13.5202 0.553037
573.011 17.1611 0.487018
559.803 21.8111 0.832664
328.452 10.6818 0.424123
925.31 33.5335 1.30444
769.107 26.7971 1.09849
450.684 17.9662 0.497762
761.723 27.1481 1.04069
449.992 18.0401 0.663264
312.123 10.1953 0.588287
331.04 11.7067 0.361759
300.084 11.3075 0.586599
286.615 11.5826 0.560401
144.662 7.70753 0.347355
579.545 26.3049 1.45096
508.406 19.9481 0.879494
276.999 12.254 0.670076
130.321 6.30742 0.406015
190.161 8.98622 0.450834
259.63 13.9285 0.879211
444.487 25.1189 1.6016
204.083 11.1093 0.412278
314.675 15.5195 0.926183
204.835 11.2066 0.792365
571.43 27.6695 1.26496
227.124 12.2806 0.805135
294.264 16.9391 1.0166
288.029 17.7382 1.2892
676.312 39.0911 2.26086
488.729 28.7302 1.89373
179.519 10.3856 0.758023
422.989 28.0921 1.77949
327.885 19.3419 1.39733
200.304 13.772 1.01944
266.053 15.8448 0.887329
459.67 32.3724 2.29123
378.837 23.1582 1.59006
357.335 26.7208 1.94321
569.126 36.4916 2.81018
394.211 31.1503 2.63381
126.164 8.99611 0.853659
190.659 13.9499 1.16893
371.611 22.5053 1.72448
211.433 17.6349 1.84416
359.654 25.4442 2.12437
407.676 32.5263 2.60559
267.371 17.7352 1.42832
241.078 18.0186 1.6021
324.84 22.9821 1.70156
560.292 46.0057 3.54907
295.41 24.7288 2.21544
232.913 21.8367 1.97759
280.154 21.8953 2.12372
66.8942 4.95682 0.208402
335.359 28.6409 2.94803
357.362 34.1125 2.94021
531.829 44.536 4.27748
255.852 22.0596 2.22165
93.4496 8.6891 1.27849
235.085 22.7534 2.36277
128.219 11.8836 1.27583
487.667 50.0738 5.32666
504.258 40.4764 3.38411
236.127 27.0444 3.07136
272.717 22.5192 1.92631
233.441 21.3493 2.50922
236.332 23.2827 2.47532
216.418 24.1453 3.14022
321.442 32.2027 3.05343
314.906 35.1498 4.20962
231.101 23.9066 2.40378
258.496 33.2295 4.6426
238.548 26.2302 2.94858
248.2 27.1452 3.64867
204.533 22.6094 2.9448
288.043 36.3038 4.67488
198.93 19.9804 2.12162
336.121 41.9027 5.25553
161.169 17.0824 2.28048
254.267 32.1051 3.91226
350.904 47.775 5.86182
132.558 15.0313 2.18196
239.858 31.5903 4.40505
225.425 29.2444 4.77152
215.303 25.9318 2.51908
230.161 28.2588 3.7099
100.705 15.5406 2.15837
261.587 35.6387 5.18435
153.727 19.016 2.20969
67.1928 7.36137 0.897011
153.623 23.3882 3.43453
123.565 15.6938 1.92523
112.327 16.3281 2.63393
164.726 20.2443 2.41044
64.305 9.37928 1.75779
163.114 25.9344 4.28955
146.048 25.1645 4.21408
312.32 40.4163 5.87709
116.806 17.4444 2.16373
325.232 48.0556 7.41365
179.561 28.8789 4.62558
179.536 27.5828 4.43002
264.152 49.3629 8.62749
429.042 64.7508 10.5507
89.5824 17.4179 2.95962
184.832 28.0963 4.86009
107.62 21.7187 4.52834
336.792 46.9389 7.50895
193.192 30.722 4.31413
109.8 17.3636 2.95677
194.448 33.8752 6.74445
291.689 47.2588 8.35679
115.768 18.7338 2.99648
316.004 61.5473 12.4526
156.05 25.9876 3.94151
142.598 27.4873 5.32054
131.569 25.6137 5.3389
180.232 38.4846 8.9541
190.13 27.1316 3.80368
190.294 30.9646 5.50451
170.285 31.7014 5.34612
109.034 25.2638 7.25048
154.375 24.1054 3.05016
310.485 56.8377 9.53184
110.071 19.7241 3.0112
288.068 51.902 8.93483
105.952 21.8261 3.65307
147.558 29.6198 5.83078
103.072 21.8068 4.34918
128.451 32.0658 7.59355
161.143 33.7742 6.12188
353.014 71.9691 15.6047
94.656 20.2011 5.12998
191.113 38.6954 7.87059
159.861 33.0838 6.3309
63.583 13.8858 3.16752
139.707 31.358 7.28806
181.77 35.787 6.30191
133.883 30.5808 5.95779
98.7366 26.7393 6.00862
62.1506 12.8391 3.3721
133.432 35.4113 8.33547
68.2139 15.2878 3.43297
94.6074 24.3368 5.49272
88.9905 22.5224 4.40258
122.2 32.398 7.70644
105.26 28.0548 7.28393
70.5103 21.663 6.3471
48.9365 10.8599 3.30392
113.241 23.6883 5.48491
61.3377 15.3889 4.17969
136.201 37.9663 9.27957
54.7733 13.9098 4.3883
86.3901 20.0961 4.33708
59.0177 17.8947 5.67885
74.0213 17.9974 4.12711
104.539 24.7071 5.95258
35.046 12.5315 3.69939
116.58 35.1379 10.4437
94.2387 26.8103 8.86372
52.6538 10.1681 2.1422
63.1111 16.2056 4.6663
86.6995 24.7521 7.23802
143.293 35.1257 8.18424
251.011 68.878 18.1721
130.648 38.9955 11.0842
107.851 28.8962 8.24932
69.618 18.2023 5.50686
30.6618 6.56437 1.40182
50.6004 14.9033 4.18087
84.8456 25.0942 8.27589
82.2387 18.5915 4.4209
49.9216 13.7205 3.09731
54.0646 15.2219 4.42071
181.426 61.4152 18.7838
50.2564 17.1435 6.54546
49.6103 15.8705 4.95246
59.0777 17.2728 4.55031
126.111 47.0364 16.7621
51.6591 20.3397 8.11026
145.796 50.6436 16.0372
199.055 68.4685 22.1045
153.838 43.4185 12.959
89.3386 26.8263 7.50816
31.1015 10.7279 3.5433
73.751 31.0746 11.9619
139.877 43.141 14.5506
25.1337 5.79499 2.13709
43.4492 18.3919 7.8677
76.4601 22.3425 7.25282
119.319 45.0766 17.3177
155.053 45.5106 14.4849
29.9802 11.9639 5.83276
35.4639 11.3026 4.33917
40.1408 14.2439 4.76425
34.3931 10.2236 4.04747
53.5223 28.4072 13.7255
177.366 47.6712 12.2408
64.883 26.8544 11.4397
167.395 52.5925 16.2735
43.3678 14.8427 5.76505
68.1412 26.0656 9.12187
52.1974 16.7769 5.62872
62.326 24.5738 10.604
49.7606 17.3076 6.68179
28.636 9.99641 3.58041
58.4967 24.7398 9.87153
59.827 25.5116 10.5719
30.1233 9.24927 4.08433
31.5541 8.13427 2.50342
24.7132 11.3237 5.7901
82.8934 27.5315 8.6337
63.3634 22.6861 6.79807
103.374 43.8162 16.3818
79.7959 31.1911 12.8186
94.999 40.1605 15.9738
82.4001 36.2679 15.9826
49.5182 23.5745 10.6116
63.516 24.7268 9.48158
39.8414 16.7165 8.04534
33.5737 14.6376 6.30158
93.9032 43.1412 18.6788
32.163 15.8322 7.2056
21.4733 8.17493 4.20121
96.1737 36.1743 13.7232
34.4806 16.6647 8.4995
67.3271 30.259 15.5014
64.2381 26.5683 10.1061
53.8029 30.348 15.5756
27.7521 9.50551 4.76204
35.2347 21.6189 13.3946
91.8797 31.6464 12.9174
64.9756 29.7475 15.0289
83.3722 25.6408 7.18229
37.8729 16.5403 8.57616
96.7328 41.8398 16.9974
60.8065 30.6553 14.3883
66.488 30.532 14.3214
59.1097 33.7927 17.8767
57.0103 23.5776 10.0155
41.9438 19.2816 9.73427
46.0338 19.0986 7.71921
59.5883 27.1237 12.1309
51.3527 17.5044 5.93866
132.541 65.8744 28.1918
41.1118 26.0103 15.2763
77.6166 30.2982 12.6276
42.5704 23.0655 13.0241
133.089 64.2504 26.4168
58.1492 36.2383 19.508
58.0834 30.659 15.7035
48.119 19.1418 7.52566
50.843 29.0431 13.9708
50.6736 37.3407 25.1041
55.8531 20.2662 7.56805
25.0816 13.1922 7.31987
26.6079 13.906 7.05879
68.3798 44.4761 25.9396
52.3821 22.2606 9.50986
47.8164 29.7688 17.1486
22.574 13.7488 7.93052
39.58 24.2512 15.0911
25.1278 14.0659 11.3474
75.2121 32.9617 14.0194
60.1294 33.3186 19.6721
55.2995 25.3033 12.4622
45.6619 29.1028 19.0621
29.7187 14.6673 9.06013
67.532 27.1889 12.574
44.8046 21.0805 8.95629
66.5594 36.4272 20.5316
36.6123 16.726 6.96725
29.4008 18.6277 11.0344
54.7666 31.8577 19.1495
69.3461 37.3596 21.0055
42.2259 25.6741 15.8608
34.6596 13.0957 6.73097
62.6248 34.8961 19.7138
50.9616 31.24 20.2426
44.2983 19.7591 8.74775
49.3082 26.8638 16.1498
112.598 57.6071 26.7625
39.4641 25.0925 16.4151
118.469 76.3819 44.0192
44.7902 19.477 8.89154
79.0416 51.9844 30.7271
31.3499 18.9973 13.3005
27.1479 13.4239 6.01093
53.8911 34.5588 21.7914
47.0165 37.6701 27.8352
83.326 47.3912 29.741
45.2404 27.561 17.0567
29.9479 19.8563 13.5521
59.0246 39.099 23.6563
29.6421 20.5859 15.5429
30.0819 15.8323 8.82454
48.0426 33.3095 22.4517
36.7433 21.3992 11.9019
26.6928 20.2007 15.4222
9.75687 11.5575 13.8464
81.129 51.4933 33.9355
41.1098 25.1308 17.3195
54.7561 35.9418 25.426
63.3238 38.008 20.3425
35.1486 26.0149 20.4974
47.0129 23.1546 11.3972
35.4751 25.6261 17.2414
50.3862 33.1919 20.9436
39.4688 22.7064 12.4169
22.8152 11.7462 6.68153
33.9641 22.2608 12.1097
28.4455 23.9384 17.1127
20.8232 16.2573 11.5758
18.0062 12.5883 7.31258
15.8538 13.6888 10.5511
25.1961 14.9259 10.3968
32.1212 25.4508 18.1028
56.7211 37.8537 23.7532
15.2429 16.2803 16.0137
28.8989 12.3396 5.54056
40.6228 30.9254 22.9957
31.7793 20.7457 13.851
31.8417 24.6553 19.6312
32.675 26.9698 22.5282
53.8713 40.7894 30.2452
26.8194 19.8801 17.8477
43.4963 33.3335 22.7003
15.7631 11.4745 11.2485
38.8791 28.8098 21.0605
37.81 24.094 14.8535
24.1898 21.5818 18.9322
57.9424 43.4827 31.6258
34.5767 23.0272 14.6713
27.5194 21.4009 15.5278
22.3437 21.4768 18.8074
43 29.3275 20.0747
30.3761 24.8437 20.2321
66.3352 47.3783 32.8809
60.9471 52.2817 39.832
34.7172 31.7088 29.8716
27.5899 14.8691 8.17667
35.4076 33.5556 29.5142
44.5044 45.8993 46.062
73.1782 40.972 23.0886
44.2841 31.4242 21.5467
19.8119 22.6932 22.2854
35.0867 27.4499 21.2357
47.6393 36.0075 26.9478
19.6193 17.5894 15.1897
30.3072 26.6787 22.8694
60.2213 49.9296 43.2754
36.7268 22.6782 15.2668
17.4974 18.3632 19.692
51.3318 47.4062 46.3634
38.8177 22.7021 15.0043
40.3572 28.3385 17.9139
16.2695 15.2701 11.6828
25.1835 23.0287 19.4803
18.7346 17.6057 18.1432
30.4922 27.1721 25.4478
27.2218 24.6369 24.9096
33.3932 29.0662 27.0987
21.724 17.5126 17.3133
38.6695 32.3366 28.4828
61.4843 43.4202 29.8134
39.9085 40.7274 40.0141
30.9324 29.5374 28.4406
44.2151 33.9173 25.4018
41.0051 46.0396 52.8349
52.7437 35.8941 23.7263
30.2955 26.7396 22.2178
23.7715 20.185 14.7468
34.3524 37.9107 40.032
23.1229 18.3756 19.4229
22.4562 19.9453 19.8395
30.2885 25.9282 18.9816
29.6356 30.1114 27.9793
19.7958 15.9619 13.5971
10.6247 11.09 10.5429
25.8648 29.8671 32.2152
45.3154 41.3017 36.6643
39.5532 32.4166 29.7689
29.2756 26.7472 23.8842
17.5913 14.7686 14.4298
56.0031 56.3686 53.7833
19.035 14.5118 10.6598
16.2056 15.976 13.7584
14.2925 15.6519 15.1801
28.3522 35.9109 37.9111
16.6316 14.1378 18.2269
32.9837 27.205 22.7143
38.5332 37.9727 37.7441
27.0594 21.5086 17.6955
32.1006 37.9929 40.5048
27.3364 20.9377 15.8624
21.9785 25.647 30.3896
29.8654 25.8681 20.7445
14.0689 26.8044 44.4275
45.1604 29.6383 16.7847
10.6639 8.45372 7.16906
29.7119 37.8756 42.0822
36.9036 33.4151 27.1974
46.0077 47.7109 41.5626
13.252 13.7437 16.0106
29.5473 36.8463 41.9221
27.581 22.2398 20.7234
26.8342 31.0364 34.5699
12.8655 11.0494 11.716
19.1338 23.1327 26.2091
31.7146 30.6959 31.575
22.28 24.7514 28.3427
22.6778 20.0895 20.7907
28.5673 27.7859 26.5617
25.2775 29.9809 35.9865
19.3218 12.8996 9.36066
20.8091 18.893 17.0679
21.9858 23.8823 25.2431
13.8328 16.035 17.1987
19.0313 27.3524 38.5007
26.2077 17.9403 11.0818
18.4886 24.0086 30.1982
35.8309 26.7025 15.448
22.5212 29.2449 33.9899
38.1316 44.3245 44.8077
44.5588 58.1476 65.9597
23.9364 24.0631 25.6154
22.3969 25.0816 28.715
22.2107 21.3107 20.6939
18.0086 24.9167 31.1041
12.606 13.5401 18.1207
15.5159 14.4911 12.5276
20.0762 22.5456 22.2752
22.6829 37.0119 50.3866
30.6232 27.0643 23.6197
15.6126 22.5582 30.8297
29.3547 38.0378 46.1993
10.9941 15.0824 27.1286
21.3166 20.6644 25.3104
33.4186 30.9008 23.7271
10.5491 14.3962 17.4286
20.3718 29.6792 40.1615
18.2992 20.6439 23.7945
13.0302 18.4865 34.1797
39.4826 39.4885 34.8408
20.0227 28.5713 42.0793
26.2662 24.9456 26.4331
16.0082 18.0625 28.8316
40.5605 51.5035 57.441
21.0957 20.3064 27.0392
32.4089 33.5124 31.6291
15.6803 20.007 23.6764
15.5102 22.9056 31.748
18.2135 17.8744 24.2152
35.3841 39.1761 44.1557
25.6184 26.4161 23.8802
11.7722 16.9177 25.5244
20.6761 18.2136 19.7356
33.8641 47.6581 59.5737
16.4102 15.4226 17.7987
16.2053 21.3142 29.5344
20.1233 20.5487 17.8474
5.90152 11.9588 24.1568
26.4087 31.1593 32.6468
13.2608 14.8586 16.9634
16.816 22.2585 26.1963
17.455 22.4035 29.7553
19.0707 21.2077 23.5651
10.1464 18.2872 32.1562
14.4012 13.7704 16.6569
23.9367 37.4781 56.0766
27.6879 24.3915 23.9903
23.3357 28.4543 32.6133
15.989 16.7194 15.3658
25.6282 42.3627 58.6829
24.2401 24.4142 24.0785
17.289 29.961 46.3693
18.5267 21.5976 29.3925
11.5639 15.8694 25.092
15.7371 19.5086 32.8218
30.5125 31.2856 35.7771
39.9815 49.6145 48.7763
25.574 36.7115 42.6986
22.6148 32.3605 41.4501
12.1598 20.8386 34.3361
12.8109 18.0055 26.721
29.337 37.0394 39.6452
10.6136 18.6195 30.2235
15.2136 28.6776 49.3988
23.3899 29.5726 36.9901
5.08516 10.2479 22.2694
11.9248 14.2138 23.6526
20.1371 31.9553 50.7063
16.4096 27.3523 57.1008
28.518 26.9364 36.5823
48.4253 60.8408 66.0994
24.3241 30.1227 33.4217
20.1726 34.2394 52.2738
18.512 27.8806 42.3064
15.0191 18.6073 38.8759
52.0305 69.0419 78.0092
20.2808 22.5688 20.1913
17.9341 42.3128 74.7766
24.7664 22.9424 18.6504
6.41717 15.8347 32.5244
22.5188 32.3693 38.6724
6.24238 9.01182 18.0706
11.2264 15.6663 27.7471
17.9132 23.5848 27.289
14.9753 21.4089 26.0728
4.63476 9.78531 17.8349
6.61298 10.5561 17.876
5.35521 10.3822 23.9574
16.0309 18.6222 25.6157
6.06962 10.9214 26.3781
19.4216 27.5111 38.6959
17.2766 25.0406 34.9628
11.9707 15.6462 23.7853
7.63572 10.1559 20.2001
14.4024 14.9252 12.3724
4.73646 4.6407 3.54145
14.622 28.2711 42.4837
9.93187 12.5567 16.7003
14.4723 28.2806 40.0293
4.84581 10.9036 29.4057
19.9325 21.7915 25.8585
13.7619 26.9287 50.4243
17.1408 21.1803 38.7016
41.5439 64.7423 92.2417
34.7394 47.5933 56.9827
6.88197 10.806 20.58
7.67325 11.9113 20.2334
9.45515 10.6792 15.3628
10.1993 13.5322 17.4483
10.7203 17.3692 28.9163
14.87 30.0368 52.5383
16.0155 19.2135 37.4212
25.1606 34.4052 47.5577
14.0017 16.2518 26.0288
25.024 35.1079 35.9744
10.7312 17.8315 21.7425
12.7855 27.6014 43.0199
20.7103 34.4148 46.2082
5.86043 10.4879 21.2627
10.184 16.5261 24.0934
5.68887 15.7834 36.8967
10.6986 7.35818 8.65919
9.33701 10.9078 12.8744
9.00383 14.7543 20.9626
15.41 29.3644 45.3676
4.34444 7.97675 26.2559
19.1025 26.4475 35.5338
5.66677 9.75391 20.6321
11.438 14.2456 20.0518
14.4325 29.2753 52.891
14.8669 16.1623 17.8808
13.351 25.376 36.1688
12.7449 28.6089 47.4225
6.41513 9.16939 20.5407
16.1165 28.9337 47.3671
9.39208 16.1188 33.5389
18.792 28.3798 42.7376
11.1807 20.592 35.5788
8.68718 17.7457 48.4687
20.7071 24.9835 27.0633
6.8942 10.5878 22.3821
14.0037 18.1504 23.1007
14.0948 23.7091 30.7532
7.12606 11.6355 14.8987
3.61889 12.4663 31.8265
15.1015 25.0167 37.1156
8.27719 12.944 26.0271
18.9283 37.841 66.3534
13.0001 15.4599 22.0536
13.3304 28.9094 63.1766
26.5961 48.2928 73.4959
8.49781 12.0944 26.0409
8.22231 11.9773 32.2086
22.2102 32.0603 39.2283
3.74768 9.48513 24.7343
8.40566 11.4913 29.0172
11.6217 14.1214 19.5027
12.0849 17.0849 19.3546
2.66674 4.54597 8.77098
7.9533 12.1359 15.3351
2.93902 9.4851 25.6055
6.7171 8.76511 11.4013
6.72353 15.4908 32.8433
7.32627 8.42807 16.6368
12.0796 25.0864 47.6896
16.7911 26.9597 45.4907
15.3335 21.6185 31.8861
8.18522 14.8032 23.713
8.48733 18.1887 30.3292
4.63647 11.8557 40.5004
22.6175 32.501 29.8154
7.47869 21.5341 45.4282
8.63937 13.1854 21.5929
8.40351 14.1456 20.5603
7.03599 20.3233 46.4811
8.37018 16.5915 34.1642
13.6332 28.6083 55.9255
11.8564 19.1648 36.8096
11.1551 18.6894 34.9711
8.75771 15.9898 36.364
20.4315 41.1607 77.6176
20.663 27.8683 34.0777
11.5786 28.6856 58.4601
13.4164 17.3665 30.1087
15.5721 26.0292 24.979
5.44298 24.5572 53.226
5.52243 12.2083 37.8172
10.6139 20.6229 36.4375
5.63037 13.5813 46.8551
16.513 21.7542 34.6615
15.2332 26.8559 46.521
13.7439 23.5932 38.3781
3.51435 3.64416 5.69468
3.99795 13.0815 36.3085
10.3245 15.6198 30.6561
7.1466 11.3597 18.745
5.46872 14.2869 50.8238
20.357 24.8527 24.0121
19.9044 51.9982 84.3435
7.44373 18.796 56.1961
12.9523 13.98 19.3659
8.3111 22.681 60.2539
15.6436 14.699 14.8382
20.5147 39.0552 49.9578
10.233 34.7305 76.231
11.0454 25.5081 61.8551
7.84101 12.9592 40.4388
11.622 20.0236 38.1773
8.86347 12.5643 20.963
7.90956 15.4624 35.2961
11.4046 24.9046 49.6895
10.7088 20.3345 54.1042
19.6154 26.3999 31.5942
7.69017 11.9156 19.8353
4.86334 8.59798 29.9453
21.5865 37.0997 46.1352
9.37368 26.6537 54.9198
10.7183 15.3672 22.5947
7.77169 21.2298 39.1037
11.0274 38.3771 100.068
14.8672 15.6647 18.9595
7.08168 21.395 55.533
6.40182 6.46793 27.2602
14.8748 26.2949 41.7009
11.4287 21.6203 45.2084
16.4798 31.2836 37.4314
4.75157 17.5117 47.4095
10.6696 16.2686 32.738
9.49391 19.986 33.1043
6.90066 12.2214 26.9133
16.2184 33.5079 50.7039
5.86021 14.5251 36.1304
7.22791 13.3577 21.6549
6.99521 21.1126 43.4895
5.45304 9.92327 28.2417
7.51215 12.8856 24.4385
4.82927 9.31196 23.8765
8.15182 20.0669 54.0914
22.8286 42.7488 58.2537
6.72114 16.5539 26.221
4.44458 15.4432 34.4655
4.87147 15.4497 43.1318
9.63046 22.3263 49.2522
6.06218 15.0392 38.5807
6.30591 18.8177 56.2108
7.31584 9.09717 38.8383
18.982 34.5373 44.3814
5.77013 13.9218 32.6063
8.78498 24.886 58.2462
14.7044 40.44 91.8045
12.6498 17.8926 27.7532
5.72723 17.9437 47.0887
8.94814 16.3974 34.8344
4.84158 14.9501 50.4747
7.12901 10.4667 35.3359
15.5932 32.0382 57.7468
6.82332 14.0953 27.5099
2.41261 4.38546 15.9222
6.95027 21.9144 66.5557
12.3671 19.9945 40.845
11.8482 27.3936 58.215
8.11652 18.6151 49.7294
9.63685 13.6358 24.1961
6.50048 11.2354 22.6345
14.3389 41.6743 79.929
8.66504 13.996 27.2657
6.01693 21.427 61.3462
11.2875 23.9082 53.8872
11.7635 29.7638 67.2655
8.20753 9.14649 13.2134
3.45234 14.1799 49.1231
7.53116 14.5969 48.9086
15.3805 34.7433 69.1072
8.72307 16.1848 47.8976
10.4237 10.5062 9.36241
6.40423 15.6766 25.3251
4.46315 14.7137 47.4299
9.93945 14.6017 28.2918
9.78112 17.0933 31.1579
7.36036 11.8929 12.6265
3.53897 10.0838 22.5415
5.79558 15.6497 32.1129
3.93221 13.6038 55.3211
16.4702 30.5506 37.1391
5.63402 26.2281 93.9386
17.5627 28.3285 43.6896
5.68508 13.6569 50.9465
14.3013 26.8985 36.8661
4.57799 10.6015 23.6581
4.64488 8.51003 19.6877
8.37941 23.7968 54.3795
7.62829 18.7319 44.1458
8.39524 21.458 45.5396
6.79676 15.9191 35.1071
4.27352 15.3151 75.2354
19.7791 37.364 54.6295
5.11251 11.192 31.3032
5.05358 9.74076 40.9474
13.083 23.3427 49.0286
9.38982 17.9797 31.826
10.547 27.5627 53.6515
6.89111 14.5832 32.9638
7.02472 15.3152 30.6259
4.93674 11.4203 24.125
4.61265 11.7251 31.6185
7.39293 17.8319 42.1093
8.88365 25.4395 73.2756
11.3518 16.6399 36.2027
11.6369 21.2202 30.1289
8.77152 23.5106 34.3745
2.29991 5.72901 18.3482
4.98196 13.4431 32.1031
8.33342 15.5344 17.4196
6.66706 27.6367 61.6216
4.805 13.779 45.7869
8.70108 14.2292 22.1582
6.00059 21.356 68.9496
14.2509 23.2439 22.316
7.21061 29.0776 64.4568
7.72195 28.5555 78.1374
7.21958 11.3258 28.7032
4.96777 14.0544 44.7983
11.0943 35.9197 82.3278
8.49527 17.8529 35.8275
4.06513 20.0076 77.4096
10.5513 22.1912 58.3674
6.08286 6.27774 27.4308
8.98065 18.6766 43.9024
8.02351 21.5673 68.9443
13.0562 23.3673 43.7331
10.3512 22.318 40.337
9.03116 25.5047 46.6933
7.13284 28.0248 78.5725
8.47251 15.662 24.8573
2.8878 10.7485 27.5256
2.65558 9.60513 36.531
7.83828 26.3322 90.2623
14.8767 26.4748 31.2241
3.46228 13.2384 42.4658
8.5596 24.7351 49.2983
7.13145 25.0625 67.9282
4.84775 13.1273 58.7649
11.9023 27.8742 58.8599
4.24595 5.49448 12.7205
3.49149 15.8199 51.1703
5.75324 11.3077 34.3388
6.28486 15.6572 44.8463
8.33322 19.3513 29.9512
1.72308 13.1527 71.5035
11.7794 27.0007 73.9097
11.9826 31.4436 72.664
7.87224 20.7784 53.6704
5.34331 11.8065 38.8943
6.21017 15.8584 64.4657
14.4348 30.8754 61.7684
6.77532 10.7598 22.384
7.96072 22.9269 45.9239
4.76956 13.9098 32.7151
5.29494 17.4613 57.0466
10.7556 41.14 121.852
11.9234 22.6971 57.5126
5.83166 11.2742 44.684
11.6802 27.7818 55.7444
5.089 8.51206 14.6507
3.3436 13.7056 38.4096
3.41299 7.19901 37.8375
8.74718 19.9016 39.0864
4.2921 11.221 44.6956
7.92747 18.5338 46.8016
5.97378 10.6458 12.9252
4.21579 20.7521 64.8508
4.26147 10.0009 61.1184
12.4742 19.532 14.477
2.04241 11.8281 45.7958
5.59943 16.5614 65.0913
10.6982 16.9929 25.389
5.38312 15.2234 33.8536
5.32189 20.5489 59.6104
8.27517 24.1114 73.4467
8.37654 18.508 45.0666
6.48067 17.7158 47.6633
5.66391 16.6282 58.9921
10.1205 24.2276 48.2063
4.91524 11.354 33.7185
4.96132 8.84218 21.1632
5.48539 16.3869 32.3901
6.62037 26.8324 58.5134
3.39341 7.15847 23.6873
3.52935 11.3028 31.5991
2.69768 5.14886 21.1675
5.47528 20.6336 58.5711
6.42756 13.5132 24.1691
1.47984 11.2354 74.1537
11.5431 22.3434 45.445
7.00576 20.2452 34.1423
3.7859 12.3478 31.3239
3.25048 11.4666 50.5553
6.86442 13.0096 41.9083
10.5914 36.94 70.7254
6.4998 23.0518 71.0054
7.30689 15.1897 34.7274
3.58037 10.149 36.0266
5.33612 12.8605 23.8598
3.56938 16.9855 58.9097
5.19397 8.97785 19.6943
2.08803 3.19839 11.5019
4.53884 21.5723 65.0416
7.57793 20.7668 63.9851
8.28641 17.5007 35.2348
6.45077 22.3786 53.5547
6.27137 19.2975 45.3958
1.79586 7.41809 39.8276
3.32738 10.2223 70.5266
10.7068 15.9123 21.4979
5.39961 19.0392 32.6684
2.94008 11.9433 38.522
5.24357 19.9884 56.7188
5.13489 11.5924 32.3698
5.04318 23.4159 73.7348
5.1462 13.1307 46.9291
3.28566 5.35507 53.4455
11.7068 26.3929 39.7546
3.24946 10.2525 31.1453
2.60433 7.91048 30.0788
4.03723 13.3989 53.5643
5.82195 10.35 23.2141
2.4448 3.32298 20.5026
6.54968 24.7797 78.4177
10.9475 28.5962 43.3347
3.47648 14.4427 46.002
5.19971 18.2645 58.3747
8.24685 23.4616 49.8996
4.0633 17.9883 54.9428
4.61287 14.2303 67.1231
8.89854 15.753 20.5416
3.19649 18.0345 62.7444
7.17824 23.7822 97.0806
13.2181 25.8967 38.2193
4.84614 20.5162 61.8456
7.68339 30.2299 65.8725
3.86574 14.7861 62.6379
6.48503 19.0904 80.9829
8.15407 13.2112 23.6375
1.72892 2.05099 14.9895
4.35883 14.6594 48.3191
5.67423 13.3224 17.5029
3.20877 21.7372 65.7545
3.62743 5.23344 15.8999
1.00351 12.6295 82.7443
9.50526 20.0532 45.2041
3.63441 6.68239 35.1135
7.11472 19.1591 54.8094
4.86545 11.4569 20.7916
2.39878 14.295 79.9238
8.21088 15.5242 36.3582
3.17627 11.2874 60.0228
7.28187 17.2752 72.1557
11.7857 27.4985 60.1198
6.87122 17.4701 33.0777
3.12931 6.99312 16.9206
4.54294 19.91 60.7265
6.83725 26.5147 86.4223
7.46956 16.7493 32.2953
2.99497 9.3266 38.858
7.09302 30.2229 108.231
11.3563 24.396 50.2753
4.95968 14.0375 36.579
6.47108 27.2588 66.1324
5.24763 18.1139 62.3507
4.88935 8.99757 24.0898
3.20737 12.3203 60.4938
9.09319 31.1232 89.6029
7.99047 14.9943 19.6754
2.29533 9.86464 25.089
3.34757 15.8137 61.4076
9.44497 27.8147 49.8747
2.11022 9.49148 41.914
4.4299 15.3209 57.3252
4.94448 11.9894 31.5837
3.15309 13.1287 63.6661
7.6597 19.8071 64.9083
7.7107 17.8234 42.8245
4.60788 10.6046 26.1002
4.77943 23.0249 66.6556
5.4397 12.4694 29.6359
2.66577 11.5994 47.9402
6.06433 16.1943 43.2296
4.23212 9.77994 12.9622
1.27615 11.3882 53.0034
4.51166 8.21988 19.4831
2.48073 6.88905 30.2097
4.72754 15.037 27.0985
0.987396 3.32004 30.2215
5.03112 15.4077 25.7977
1.49816 7.87445 44.7715
5.86454 18.4889 48.5673
3.37802 8.7637 58.3599
11.1553 34.2653 75.4652
6.64031 26.776 81.4378
7.08614 17.0247 30.4005
2.17917 15.3476 58.4096
4.09143 7.11365 24.4365
3.06262 8.66172 16.5343
2.62599 17.6927 56.9185
2.44185 6.27654 43.181
4.36331 12.4605 46.2479
4.34378 16.4926 69.9277
6.18131 8.45114 19.5567
3.32545 12.1031 37.0392
4.80653 17.902 60.6744
5.79556 17.7964 50.8446
4.9305 18.6864 48.4814
2.99693 5.21433 12.0202
2.0698 14.8354 56.0229
3.49748 2.70047 11.9912
1.9117 8.52519 37.4728
3.99677 7.7854 14.3882
2.45453 15.5764 65.8641
5.64808 15.4237 32.5908
2.94399 17.989 82.3333
6.57957 9.66852 21.7412
1.90574 5.41184 41.61
5.84526 16.8516 56.0776
7.23217 19.4666 18.2387
1.82335 16.6529 60.9884
5.00212 20.1222 56.4102
3.29515 8.56578 49.0886
6.63243 23.3688 48.6268
2.67484 6.6148 22.7154
2.03881 11.061 34.0316
1.4251 5.405 46.3539
4.89241 9.3967 39.5329
4.54462 15.145 45.3839
4.30792 13.3977 49.7567
5.4186 13.8165 25.9511
2.83601 18.3883 77.5826
4.51145 5.11069 18.7806
2.4792 7.01947 31.2019
3.45658 9.6191 57.1251
10.1164 38.0693 78.5289
3.17002 7.11652 23.1207
2.18267 10.2255 55.4038
5.81566 13.9101 23.6542
1.41532 3.8631 16.2448
1.4155 4.23406 13.9804
1.35256 5.51913 21.8323
2.48521 11.9581 58.3167
5.03008 11.0271 27.418
2.79331 12.1098 50.8508
4.90531 13.6232 46.9274
5.03634 13.7228 21.1759
1.77225 9.22713 29.9242
4.10779 25.0651 73.1055
4.21934 9.20187 35.7754
4.21362 16.8535 59.5783
3.77742 6.20239 24.8126
2.25733 3.28722 22.6952
3.17287 7.64547 14.975
2.86091 15.8448 59.918
5.33034 15.753 53.4335
4.80246 10.6231 18.7774
1.7304 11.1121 42.9634
3.50522 11.3603 37.4469
3.04866 10.2407 26.6603
2.27178 8.79864 36.1081
2.53376 6.40524 26.7741
2.57299 5.88507 29.1031
3.24086 10.895 50.1754
5.58921 12.0991 19.7022
2.39988 13.5131 31.3395
1.51116 5.50904 34.8328
3.21568 7.5767 33.1312
4.60933 19.7079 59.1994
4.70016 14.6927 38.2146
3.75814 14.7599 34.8322
1.78361 2.77126 19.0016
3.33172 15.3212 36.0522
1.42744 3.21452 48.2306
6.50094 18.1339 22.9501
1.20692 12.2284 58.1685
4.89419 19.1164 84.9378
6.59119 15.3629 43.3862
3.71443 17.817 58.0651
5.31354 16.961 61.4597
4.77758 9.7764 13.2868
2.31851 17.7149 60.8829
3.13895 8.15032 44.9524
4.1708 12.5797 29.3522
3.03443 19.4128 71.4591
5.80645 13.7228 37.4994
2.37644 12.0636 90.6462
8.5792 21.1888 32.6156
2.37451 9.40421 35.3242
3.50864 11.5019 22.7172
1.45518 6.97157 27.3828
2.62559 18.0526 75.3663
6.03257 16.0029 43.5677
2.57832 9.32524 82.4254
9.25987 26.516 59.3128
4.17999 18.1906 67.2923
4.83492 10.2948 24.9892
1.83296 8.18373 61.8478
6.24862 20.0134 33.8525
1.94056 9.40491 33.8451
1.74768 5.22764 58.6116
5.73923 15.7126 54.7828
5.62546 21.7445 43.493
3.22368 20.3693 48.4108
2.27703 11.4223 70.5942
5.15652 10.1208 49.5245
5.53005 14.1819 18.2394
1.79732 8.50109 17.1186
1.52381 10.2631 30.3776
1.46412 8.66903 61.6907
4.75675 13.5086 44.3029
3.71938 14.5435 69.6547
5.96706 15.7638 40.6808
2.47142 5.62431 27.396
3.84256 16.1527 29.7922
1.60024 13.0712 61.7231
4.00147 6.79924 35.1064
3.39044 8.38454 39.2922
4.50143 20.356 60.5126
4.92466 16.7107 44.7804
2.90431 14.0565 54.009
3.01534 3.47548 29.4294
3.59631 13.5879 35.0374
2.81573 10.3877 27.4687
1.67622 11.5412 51.4
3.24377 7.31172 27.5773
1.58165 6.12211 44.205
3.79284 12.3422 60.9355
5.28543 15.1163 46.3913
4.62689 11.6895 15.5974
1.45497 12.6125 51.9007
3.56921 12.1204 53.5799
4.94622 14.6258 29.6644
1.36838 5.95207 45.46
5.23128 16.5564 31.6621
1.91103 10.5927 63.8683
5.81658 29.8174 75.6802
3.88741 11.4374 69.3262
4.73705 10.1144 41.4427
3.52254 10.5936 30.3814
2.21748 6.77658 39.6775
3.80219 19.8226 83.8436
5.83929 13.4242 32.3312
2.82307 13.0528 35.6158
2.43491 7.91903 42.0016
4.43459 19.0432 62.1127
4.9995 13.8258 33.043
2.29495 8.1416 17.3682
1.34367 12.8783 64.6874
4.49009 9.81391 30.1099
2.70162 11.2027 37.0229
2.42506 7.17255 19.4668
1.30948 8.28949 45.1297
3.30499 11.761 93.872
10.6069 40.186 63.2307
2.24266 6.10855 25.5661
2.35633 11.3279 48.4651
3.19822 9.145 52.3846
4.47499 14.4287 29.4938
1.42877 2.29687 17.5671
1.92507 7.28312 19.4683
1.36824 8.31514 18.6083
1.02561 6.46109 37.0389
2.54698 2.54228 18.7609
2.05558 6.14633 15.0906
1.95774 10.9854 32.0916
1.70145 6.59631 43.5397
3.06982 8.9284 29.3652
2.53937 10.6862 43.6879
4.03191 14.3429 47.5248
4.58841 16.2031 21.4006
0.510175 2.07073 14.189
1.0712 3.29562 13.3631
1.58838 12.5862 34.4736
2.39591 12.7958 28.8393
1.58338 16.9404 76.2975
4.36309 5.98668 48.0175
4.24161 20.4644 91.1396
7.0836 24.5582 81.1449
4.71499 8.22595 26.9292
2.40285 12.8525 46.8082
2.42765 7.13044 68.6402
4.8434 8.03886 20.5619
2.02082 10.8327 45.3116
3.54989 10.8855 68.7378
5.35024 11.6754 20.7208
2.29767 19.5921 58.1157
3.51084 7.20695 26.467
2.26391 11.2109 41.6156
3.27733 18.0768 107.847
7.51651 17.2597 62.6491
4.81871 12.5269 28.0459
2.2719 10.5195 30.527
2.39439 13.4714 20.8145
1.38543 16.8546 83.651
4.65607 8.63296 34.5851
2.6699 15.8519 89.5058
6.03202 13.7768 36.1977
3.28427 17.0784 35.0629
2.31758 12.4963 35.8658
2.04428 4.70786 18.1536
1.70064 6.33538 14.6852
0.748393 3.05281 18.0416
1.5004 13.7872 52.279
3.02112 4.59485 23.7016
1.72613 5.83938 25.8405
2.279 10.8351 33.7933
2.06548 14.3816 74.1833
4.55761 7.49365 24.366
2.4175 19.3474 79.5808
5.41193 12.3753 47.9004
4.211 19.1069 53.5403
3.95135 15.9021 40.5859
2.27741 12.2699 72.2247
4.36131 11.7274 56.3201
3.89456 8.97751 43.2454
3.48063 16.1872 52.5838
4.26986 21.2247 88.6118
6.16655 15.8447 41.3223
2.60841 11.7608 50.286
3.5207 15.3716 61.6663
3.84387 12.7331 34.5597
1.88168 8.51253 37.3051
2.71618 8.23818 58.212
4.17927 9.51902 27.1514
1.73996 6.35446 18.5065
1.2916 6.43226 21.759
1.19359 10.6096 77.8532
5.37745 11.6965 35.0905
2.6753 14.2797 52.4956
3.46667 10.2562 53.0114
4.19711 11.2614 39.4331
2.47713 6.9059 18.0773
1.42472 7.54929 46.9366
3.65559 13.8475 65.1283
4.79416 15.5405 21.6478
1.29797 8.02576 44.6126
3.8371 26.2329 105.937
6.60747 8.96327 24.6427
1.95511 4.57236 15.228
1.91405 15.7511 47.3738
2.63915 6.26193 50.1333
3.85182 12.3718 22.9253
1.38193 4.42692 36.8528
2.99423 10.3009 20.4629
1.56469 7.01301 12.2648
0.88584 5.32797 22.217
2.23273 16.3339 78.2133
4.34481 6.86301 15.6262
1.80214 15.3513 41.3179
2.71608 12.6895 49.7975
3.26134 9.74481 32.1108
2.04421 12.9646 74.5989
4.90487 10.7494 40.0741
2.43768 4.39316 27.7205
2.14722 6.44718 22.1342
2.07243 10.7467 23.9869
1.14473 8.03139 39.0786
2.57283 9.62421 39.6021
2.24115 5.30964 23.5619
1.85843 13.7567 77.188
4.81836 11.8628 16.6397
1.05655 5.58123 21.5686
1.93503 12.1025 29.2194
1.7146 8.02199 37.7728
2.88076 13.9486 39.3349
2.30173 7.57528 26.0836
1.68412 8.20529 17.5374
0.687756 5.59403 43.8843
2.93284 11.0063 55.4712
3.64213 20.386 60.3488
3.14075 5.75924 54.6823
4.03737 15.0759 39.5305
2.52677 11.659 49.1933
2.8295 9.07703 46.3882
3.28186 13.4337 36.7252
2.1053 3.90009 20.2803
1.64894 10.4225 46.9157
2.35123 4.78627 27.4148
2.01185 10.5911 26.5831
1.29504 4.96225 29.2768
2.48623 30.7332 146.911
9.04181 14.1405 44.4944
3.11043 20.9265 109.348
7.92595 31.3572 92.0911
5.68606 12.8722 35.7151
2.68831 11.597 71.3943
5.13821 17.3648 54.5043
3.09676 7.17535 25.3065
1.754 9.21322 44.7237
3.47958 13.3311 18.5771
0.751739 2.73548 20.7747
1.57503 8.24054 33.4279
2.34448 15.3329 32.998
1.87278 7.46413 66.9468
4.75521 12.0861 35.7456
2.8481 22.0065 72.4585
4.11546 10.1107 20.6982
1.03974 5.04368 22.5428
1.23808 7.81945 57.2359
4.45395 25.4443 73.6906
3.77567 6.12331 58.3873
3.38401 12.0719 33.3033
2.24459 6.08387 42.512
2.98643 9.70757 30.8154
2.08318 9.12988 48.3888
3.27686 14.7529 45.5496
3.00344 12.9057 28.331
1.6997 12.902 58.7383
3.40064 15.5619 82.0542
5.04224 13.9522 16.4578
1.16641 13.3854 72.5609
4.88454 16.5709 36.0311
2.1039 3.87662 36.8663
2.64535 14.6471 37.2578
2.30181 10.0747 41.0039
2.99225 15.389 73.8635
4.03875 8.4612 24.1568
1.5461 11.6659 51.3648
3.52272 12.0871 33.1292
1.78779 7.01408 42.7559
2.8907 8.31276 25.7436
2.18262 10.2507 40.3101
2.53549 13.433 24.8305
1.43256 10.1462 56.1992
3.64838 9.01018 49.5511
3.45127 9.94732 30.2524
2.04346 11.4868 29.0707
1.79433 13.6825 83.5362
6.06373 11.4707 29.0323
1.67116 8.81764 42.5563
3.65482 26.3751 77.0401
3.9753 12.2646 66.8687
4.45399 9.30907 38.2749
2.6431 17.7185 67.491
4.83747 13.6789 50.1021
2.80024 5.98422 32.7433
2.63061 11.4934 43.8717
2.86524 10.3951 56.9301
4.19988 18.6292 81.7524
5.04324 10.476 12.3673
1.01913 5.73737 27.4015
2.30165 21.2765 83.2487
4.45846 13.4445 63.1427
3.99646 13.9372 49.1582
2.83408 12.5269 45.8642
2.96043 11.7843 30.9869
1.86035 7.88829 60.7362
4.26398 12.111 18.5454
1.24095 7.38029 47.3378
3.375 18.4268 35.5465
2.14062 12.5075 80.3983
4.1228 6.768 50.3462
3.44764 12.5339 36.1311
2.09591 6.99218 43.4584
3.01197 8.05567 27.7663
1.96067 7.24221 18.7312
1.43545 15.3402 68.8166
4.05366 7.72395 58.3385
3.86519 17.7457 86.9027
6.01794 14.1564 28.4903
1.75028 7.54704 21.7727
1.40433 6.65862 18.0741
1.13323 17.6454 94.3572
6.2452 8.90068 47.4941
3.1925 18.2053 75.737
5.12406 16.5102 34.6448
2.52111 11.9469 26.1264
1.53454 8.24234 59.5047
3.74839 6.85417 18.9326
1.55291 17.0357 64.33
3.80942 8.01072 34.2128
2.14108 10.5153 77.4508
5.17866 11.2792 55.7506
3.87201 18.2059 32.1145
2.03297 8.84623 47.7514
2.84599 8.52557 43.3625
3.01894 9.42223 66.9571
4.60261 20.8757 28.7011
1.98701 9.22306 85.8468
5.61323 20.5461 36.8081
2.46315 20.8521 57.1501
3.44915 16.2513 23.1519
0.982941 10.4142 81.1669
4.64 8.37716 42.034
2.29432 8.64583 51.7944
2.96074 10.1448 25.567
1.57021 8.73556 54.2594
3.0514 13.6644 33.5099
1.89654 2.97954 39.2392
2.38177 11.4161 32.5884
1.84911 14.1921 86.1177
5.7985 22.4649 76.1942
4.44356 8.84828 24.0527
1.60062 9.56322 52.6826
3.60144 12.9219 74.0277
4.63657 13.4761 7.54863
0.468504 11.7686 47.057
2.47551 15.3489 49.4314
3.35083 4.31717 17.0191
1.15406 2.91645 30.2411
1.81957 7.26398 44.2045
2.55478 8.648 15.0767
1.21882 11.1659 82.4522
4.86575 11.3729 48.3787
2.96788 20.2151 49.6003
3.25963 11.2807 44.432
2.90607 15.3653 80.2959
5.02044 7.59681 20.6675
1.28971 9.10605 44.5159
2.75645 7.25562 26.2791
1.76293 16.16 44.1328
2.91731 7.29449 44.4297
2.89974 6.51954 29.4705
2.0615 9.19983 42.6278
2.83503 8.50898 31.0297
1.88258 6.18931 21.6449
1.4964 5.03253 83.7073
5.4732 28.6764 72.2873
4.17904 9.24841 32.8798
2.14736 11.8878 23.9328
1.4206 11.1634 30.6164
2.15629 6.65751 24.0758
1.28725 10.7617 45.3229
2.86923 4.39083 49.9788
2.90001 16.7918 16.5125
1.04695 10.2558 55.0115
3.32991 9.67613 69.5954
4.3819 17.4133 39.7827
2.58969 15.2664 82.3139
5.39207 0 0