# pn-170911/RbIIR-50-RbIIR-1280-1959.psd
# Power spectrum* (dif=0,1,2) (really just |FT|^2)
# NOTE: only the first half! (symmetric)
# weeks: 1280-1959
# 2005 clock-days, 870 excluded
# PSD: 1441
1350.23 0.116682 0.0547507
37138.9 0.774176 0.0784924
170606 3.46835 0.0730231
36374.4 1.49298 0.0729211
89750.7 6.89829 0.0744038
12837 1.37485 0.0755868
11416.2 1.77346 0.0752301
6816.52 1.3807 0.077254
6270.34 1.71138 0.0747833
4044.45 1.41373 0.072292
3532.94 1.50289 0.0735638
2832.77 1.46552 0.07366
2556.59 1.5473 0.0740262
2162.5 1.56007 0.0788681
1946.92 1.66199 0.0772479
1645.89 1.58846 0.0772757
1598.16 1.70201 0.0789431
1448.44 1.76181 0.0777924
1381.25 1.87782 0.0794676
1186.28 1.78314 0.0818446
1117.27 1.93633 0.0841007
1040.72 1.98076 0.0783347
989.625 2.05181 0.0829222
909.211 2.01812 0.0841265
862.005 2.16573 0.0827956
833.644 2.17109 0.0861174
793.107 2.33668 0.0855004
727.002 2.27867 0.0807863
733.135 2.46681 0.0848836
692.461 2.50781 0.0855793
692.599 2.6792 0.0879269
614.253 2.53353 0.0844612
633.303 2.76258 0.091564
610.289 2.86786 0.0884088
581.271 2.89785 0.092102
592.877 3.11501 0.0928248
529.275 2.92262 0.0953268
547.66 3.20334 0.0951757
520.975 3.34772 0.0938892
539.39 3.51344 0.0970093
486.415 3.46177 0.100969
484.041 3.50693 0.103441
498.554 3.81397 0.104085
465.733 3.80387 0.106615
471.477 3.98966 0.106689
461.123 4.14939 0.114714
449.273 4.17184 0.114546
447.378 4.27216 0.116053
450.646 4.58307 0.123164
437.518 4.64177 0.132064
421.03 4.69325 0.131311
426.135 4.79995 0.129325
423.156 5.09487 0.140779
406.514 5.07935 0.146565
418.711 5.4632 0.156922
409.378 5.50652 0.155478
402.197 5.64395 0.162337
408.212 5.75416 0.161506
380.82 5.79056 0.165031
389.32 6.14378 0.173709
371.294 6.09415 0.177332
378.356 6.33602 0.189068
371.597 6.47151 0.192152
370.138 6.58739 0.201969
365.438 6.66448 0.209272
360.396 6.87771 0.219226
364.696 7.07728 0.221996
361.066 7.33371 0.236014
346.767 7.32846 0.237138
344.442 7.37593 0.246924
350.694 7.81948 0.258682
329.831 7.52396 0.258593
332.211 7.8289 0.264592
347.495 8.35627 0.288968
328.035 8.12704 0.285586
352.556 8.98612 0.320372
346.417 9.12656 0.324078
324.113 8.78922 0.322771
322.918 8.92083 0.338551
315.128 8.88682 0.338984
311.633 9.15644 0.353765
326.402 9.72822 0.367516
321.232 9.92969 0.392486
327.369 10.2859 0.412857
295.469 9.5299 0.395509
311.33 10.2555 0.428667
303.007 10.2507 0.438089
306.964 10.6635 0.462732
308.27 10.9951 0.470475
300.549 10.8442 0.483428
304.126 11.2494 0.501912
299.585 11.4432 0.530087
288.671 11.23 0.531947
291.419 11.6871 0.551027
283.887 11.5221 0.561496
293.647 12.1126 0.594279
302.182 12.8021 0.629075
279.948 12.0543 0.625871
290.775 12.8023 0.667048
281.41 12.6173 0.657057
287.854 13.3003 0.707504
290.883 13.5862 0.735171
271.888 12.9602 0.713074
281.336 13.7642 0.747078
264.936 13.2501 0.76251
268.177 13.5241 0.78796
272.589 14.053 0.811123
276.16 14.5164 0.865045
258.689 13.926 0.834015
267.746 14.6296 0.90942
257.222 14.2679 0.906103
269.623 15.2803 0.957527
263.997 15.3693 0.986852
259.523 15.358 1.00451
265.86 16.075 1.05101
255.784 15.6286 1.05012
247.774 15.3751 1.05861
266.605 16.987 1.16807
251.77 16.3805 1.16152
260.968 17.0138 1.2299
246.526 16.4945 1.19715
266.047 18.0248 1.33695
251.596 17.242 1.29697
244.45 17.1106 1.29537
245.188 17.4461 1.34015
239.587 17.4078 1.35901
258.969 19.0186 1.4939
238.864 17.866 1.43793
245.744 18.6278 1.50172
239.188 18.5262 1.53197
237.509 18.6068 1.57869
234.236 18.6599 1.56918
236.353 19.1355 1.64891
231.213 18.9009 1.65198
233.605 19.6053 1.72948
230.242 19.4845 1.75199
227.511 19.4353 1.79011
222.136 19.274 1.77661
231.939 20.3933 1.92599
225.159 20.1967 1.92005
225.187 20.5783 1.97108
223.116 20.4393 1.98854
224.976 21.035 2.09376
224.25 21.2342 2.0922
221.111 21.3394 2.14786
214.745 20.904 2.12385
215.531 21.1304 2.18843
218.988 21.7932 2.29814
215.157 21.8225 2.29673
210.592 21.5412 2.296
213.084 22.3584 2.47662
208.011 22.0443 2.42627
214.133 22.8486 2.55356
216.553 23.6458 2.70503
206.928 22.655 2.59352
210.268 23.3649 2.72095
212.171 24.1103 2.82281
202.638 22.9698 2.72384
214.529 24.7021 2.9502
204.936 24.2303 2.95436
212.319 25.3972 3.10649
206.577 24.716 3.09064
199.725 24.1698 3.03418
196.368 24.3863 3.11232
205.039 25.5753 3.32236
191.978 24.3414 3.17536
195.92 25.1165 3.32602
196.167 25.2357 3.32589
195.616 25.5246 3.44493
199.401 26.2052 3.55799
196.901 26.4384 3.65509
193.779 26.1315 3.63339
191.25 26.315 3.72506
198.224 27.4757 3.93942
195.254 27.4617 3.98418
189.152 26.682 3.89224
198.201 28.4222 4.17081
190.577 27.8545 4.17977
188.092 27.7165 4.21729
193.135 28.5536 4.33652
185.644 28.1188 4.34736
190.676 28.8305 4.46092
179.436 27.6024 4.35492
188.508 29.2144 4.66071
178.459 27.94 4.50986
184.735 29.0684 4.69044
179.119 28.9869 4.7933
185.1 30.064 4.96355
176.443 28.7346 4.80989
184.924 30.3306 5.11759
179.459 29.9847 5.12886
180.454 30.5386 5.31362
177.165 30.095 5.25871
176.707 30.6516 5.43166
173.37 30.0315 5.35155
177.069 31.2673 5.63868
179.619 31.7024 5.76469
165.483 29.5944 5.4547
163.6 30.0835 5.61036
171.199 31.2328 5.83858
167.972 31.2215 5.89222
167.772 31.3873 6.00591
175.954 33.0219 6.36928
161.751 30.9507 5.97674
169.958 32.758 6.40582
162.448 31.6192 6.28511
167.001 32.8653 6.60958
167.455 33.1169 6.69602
168.459 33.5084 6.77776
157.492 31.9002 6.59154
159.238 32.2075 6.69476
157.961 32.5127 6.84526
157.681 32.6626 6.92615
163.031 33.9481 7.22618
155.54 32.8894 7.0709
161.59 34.5895 7.53612
155.276 33.4934 7.42544
160.243 34.6844 7.70567
157.789 34.5752 7.71269
153.833 33.93 7.62189
152.241 33.9236 7.71648
152.534 34.2952 7.96842
158.716 35.6448 8.22487
144.813 33.2049 7.71838
150.677 35.1999 8.35606
154.393 35.9864 8.50905
147.062 34.6402 8.35129
149.065 35.6137 8.5719
152.335 36.6807 8.92997
152.485 36.8994 9.06916
144.08 35.3 8.76044
149.189 36.5508 9.11229
143.509 35.7332 8.98092
143.915 35.9639 9.06529
140.754 35.3701 9.02942
144.024 36.8247 9.53296
137.539 35.2865 9.22604
147.115 37.9715 10.0023
142.252 36.9141 9.76522
142.957 37.5696 10.0497
142.428 37.7471 10.1267
137.357 36.6903 10.0106
138.231 37.366 10.2467
133.928 36.1749 9.97274
141.129 38.4508 10.6863
136.767 37.9251 10.6992
140.059 39.0166 11.0411
136.585 38.3714 11.0985
136.717 38.4007 10.9377
139.165 39.674 11.5134
130.615 37.4423 10.873
132.574 38.6961 11.4956
138.428 40.254 11.774
136.766 40.5226 12.2115
132.74 39.4636 11.893
133.387 39.4998 11.9336
131.866 39.2933 11.9918
132.062 39.9253 12.239
129.034 39.3465 12.2454
130.789 40.184 12.4839
128.216 39.6239 12.4303
129.859 40.4053 12.7614
127.48 39.7982 12.6309
124.849 40.1555 13.1565
125.234 39.6107 12.7475
123.878 39.7281 12.8575
122.293 40.0903 13.2562
122.329 39.7795 13.0663
122.82 40.7374 13.6418
122.464 40.8536 13.8955
127.032 42.5411 14.3955
127.935 42.9392 14.6375
122.494 41.6683 14.3782
119.867 40.8104 14.057
125.487 42.7948 14.7836
124.337 43.0468 15.0455
121.982 42.2964 14.8643
122.663 43.1181 15.4027
120.909 42.6704 15.212
118.473 41.8802 15.0553
118.532 42.0382 15.1697
117.454 42.8915 15.8844
122.838 44.3488 16.2484
119.842 43.5843 16.0624
110.362 40.8553 15.2873
118.454 44.0653 16.5324
118.368 44.2819 16.6347
116.008 43.8326 16.7525
113.759 43.3393 16.8089
113.544 43.0381 16.5952
113.822 43.458 16.8113
113.191 43.9688 17.256
115.658 44.8838 17.5775
109.943 42.6888 16.8718
113.645 44.8636 17.9612
111.466 43.7459 17.4121
108.892 43.1818 17.3349
112.546 45.628 18.5671
110.163 44.6638 18.2876
106.804 43.7476 18.2336
104.543 42.3746 17.5123
105.123 43.712 18.4515
107.591 44.3328 18.4726
105.635 44.3625 18.9543
108.677 45.7651 19.3951
106.295 44.3246 18.6563
102.397 43.8407 18.9954
105.357 44.9696 19.4356
107.592 46.5578 20.2957
101.092 44.1184 19.4941
102.448 44.5388 19.6364
99.7868 43.9329 19.6239
106.016 45.8217 20.0025
98.3849 44.5499 20.2249
104.787 47.1754 21.5423
101.503 44.9602 20.2354
101.772 45.8212 20.8557
98.8886 45.4272 21.1813
99.9754 45.2088 20.6602
95.4892 44.1737 20.686
99.1351 45.9172 21.4063
97.5107 45.9712 21.7362
96.5701 45.5375 21.7997
96.4765 45.471 21.6942
99.8142 46.9015 22.3619
93.8544 44.9125 21.7368
95.811 46.1356 22.6346
97.2432 46.8781 22.8617
97.7742 46.8539 22.7229
96.7256 47.3782 23.2854
95.0596 47.0671 23.5975
93.422 45.6914 22.8773
96.0071 47.9642 24.1724
93.4918 46.3171 23.3349
92.8148 46.3475 23.5226
90.1291 45.7802 23.4908
90.4949 45.969 23.5127
88.7703 45.6644 23.776
95.263 49.1416 25.4592
89.2026 46.5814 24.5672
89.8476 46.9824 24.8583
89.4637 46.8641 24.9673
92.1563 48.0096 25.4347
92.044 48.4647 25.9491
87.2835 46.1063 24.8268
87.7464 47.2026 25.7322
92.7669 49.6891 26.8731
88.581 47.8962 26.1225
86.0451 47.55 26.5222
89.1909 48.5476 26.7512
84.4257 46.89 26.5208
87.6576 47.8258 26.6793
88.9283 48.9512 27.3808
87.7935 48.9449 27.7539
84.9811 47.6817 27.2237
85.4422 49.0592 28.8238
94.4683 52.3398 29.2779
89.6906 51.5717 30.2692
97.1782 54.3602 30.4913
82.0664 47.8675 28.4482
89.9376 51.8554 29.9307
84.4353 49.6718 29.4138
83.8269 49.2366 28.9852
79.3432 46.908 28.0236
83.7041 49.3651 29.6307
84.8438 50.4147 30.3629
82.8879 49.9996 30.2261
78.2553 47.1221 28.7818
78.4586 46.9683 28.7305
78.765 47.2855 28.6613
78.7397 48.4631 30.2139
79.9557 48.8845 30.4524
78.4787 48.0985 29.8543
78.9306 49.3207 31.0395
76.7889 48.2092 30.6766
81.5623 51.2514 32.5128
80.2725 50.0472 31.5821
75.7242 48.01 30.8037
77.287 49.4621 31.8515
74.4214 47.4568 30.8457
74.9171 48.3216 31.5558
76.8444 49.0681 31.708
76.2533 49.9754 32.8433
75.8792 49.2057 32.089
71.9258 47.5779 31.8448
74.4892 49.0195 32.3884
72.1234 47.9134 32.5696
78.4067 51.8789 34.6628
76.5084 50.9408 34.1843
71.3692 47.9661 32.6208
71.5563 48.6283 33.5076
75.841 51.5907 35.5923
71.185 47.268 32.3021
74.3159 50.6672 34.5896
71.9323 49.9458 35.0797
72.1064 49.7437 34.9039
72.0687 49.876 35.0033
70.7763 48.7155 33.9852
71.4433 49.994 35.4505
68.1825 48.2591 34.5792
69.0899 48.5287 34.5623
70.7946 50.4488 36.0775
68.6601 48.7834 34.8997
67.3252 48.9182 35.8855
68.4258 48.9334 35.291
65.6368 47.7125 35.0163
69.6828 51.245 38.1269
67.436 48.8743 36.089
67.7631 50.0514 37.3289
65.6064 48.1172 36.0892
67.6383 49.4991 36.7039
66.692 49.7155 37.0483
64.4557 48.58 36.8798
64.2114 48.5866 36.9401
64.0751 48.505 37.4145
64.8465 49.0988 37.4112
65.0031 49.5652 38.1152
65.2402 49.8172 38.4777
64.7379 49.7811 38.5066
63.9904 49.6404 38.952
64.2695 49.5727 38.8127
66.4241 51.5766 40.651
65.517 50.7657 39.8434
64.9173 50.662 40.1014
63.1016 49.5364 39.4755
63.564 49.556 39.0798
62.9005 50.0856 39.8526
60.9269 48.9525 39.9227
63.0894 50.6116 41.1847
62.3231 49.7765 40.1966
60.4124 48.5495 39.5342
61.4153 50.7222 41.6977
60.74 49.8634 41.3468
58.5162 48.595 40.6466
60.4229 48.8145 39.8745
57.7629 48.7743 41.4731
58.4372 48.5937 41.3499
60.3459 49.6536 41.586
58.6225 48.4662 40.8619
60.7165 50.7365 42.7979
59.8411 50.8326 43.4988
60.0305 50.2132 42.5629
58.3535 50.0501 42.9744
57.3243 49.361 42.8475
60.5854 52.3631 45.4977
57.0408 48.3882 41.8308
57.7205 50.3808 44.1388
55.5934 48.3006 42.685
57.9279 50.8304 44.9799
57.2477 48.8702 42.6346
54.9957 47.9913 42.3644
54.8813 49.1123 44.0156
56.1481 49.3227 43.5946
56.4676 50.5779 45.5415
56.4862 50.9461 46.2296
55.8571 50.1517 45.4674
54.144 48.679 44.5078
55.5479 50.0273 45.674
54.6079 49.4544 45.1116
53.7775 49.6877 46.3052
54.2214 49.1885 45.0844
52.1465 48.206 45.2498
53.7612 49.4909 45.9925
51.3549 46.9514 43.761
52.7284 49.8926 47.159
53.7062 49.49 46.2935
52.7428 50.0361 47.7575
52.3106 49.6276 47.8622
52.1066 48.8129 46.5266
52.4653 49.9926 48.2796
52.2638 49.4121 47.2014
51.9827 49.8078 48.0254
50.0042 47.8195 46.556
49.9908 48.9949 48.4012
54.2019 52.2557 50.6737
49.8572 48.3626 47.9523
50.8354 49.3817 48.7644
49.6636 48.8097 48.7543
53.0406 51.4737 50.7415
50.0844 49.0226 48.5877
49.2413 48.4897 48.3066
49.7953 50.1927 50.5468
47.5226 47.1335 47.7028
50.0804 50.3607 50.7367
49.9512 50.4886 51.8229
50.2094 49.9215 50.2319
48.5079 49.1012 50.1953
49.3448 50.1833 51.3977
48.4257 49.8032 51.8906
49.2605 49.8108 50.8831
48.9354 50.968 52.864
48.8088 50.7882 53.2039
47.2389 49.0188 52.0318
49.8086 51.1525 53.2822
47.6161 48.9132 51.1005
47.8468 50.1241 52.9602
49.0728 52.0706 55.4311
49.1214 51.9039 55.4994
46.7813 49.221 52.3457
45.9949 48.8312 52.2558
44.544 48.0006 52.128
45.6109 48.8474 53.2437
45.2494 48.3014 52.2988
45.0988 48.5733 52.909
43.5811 46.3087 50.6672
47.2716 51.164 54.9519
43.7357 48.1478 53.373
43.4284 47.1164 52.1606
44.0755 48.2573 53.433
44.4812 49.7156 55.8209
44.8303 49.8362 56.2094
43.743 47.3041 52.4616
42.4303 47.8807 54.5851
44.773 49.6559 55.8845
43.4252 48.0233 53.7191
43.6898 49.1361 55.5231
42.8331 48.5529 55.4295
42.291 47.5322 54.2603
43.5141 49.9234 57.2076
42.8545 49.3453 56.9759
41.7996 47.7717 55.3854
42.9389 49.3189 56.9169
41.0119 47.1079 55.3778
43.4363 49.9818 57.5497
41.3568 47.8994 56.4372
41.8397 47.8582 55.4583
40.5476 47.284 56.3016
40.6203 46.9876 55.1319
39.6401 46.9591 56.2201
41.0358 48.0592 56.5599
38.4428 45.3903 54.5226
40.304 47.6693 56.639
39.9922 48.1585 58.2203
40.3783 48.4365 59.2774
40.5601 47.9647 58.0763
40.4238 47.5866 56.4359
40.3084 49.091 60.2517
40.5552 49.247 60.2146
39.6026 48.2488 59.7959
40.0629 48.7893 60.3539
40.9039 49.4813 60.6364
40.2859 49.7038 61.491
39.2164 48.0037 59.982
39.6135 48.2761 59.3562
38.2695 47.7089 59.8218
38.6787 47.8968 59.9295
38.2844 47.2048 58.9133
38.3117 48.1382 61.548
39.7903 49.8954 62.6196
37.8997 46.9961 59.621
39.0093 48.7034 60.0769
37.0792 48.5132 62.675
35.8423 45.8619 59.4211
36.3413 46.4225 60.0232
36.2586 46.1888 60.0178
36.8537 46.8123 60.289
35.8197 46.4046 61.1088
37.1664 46.8317 60.1211
37.2778 48.7375 63.1012
36.4617 47.8193 62.8321
35.3817 45.8641 60.8335
36.5651 46.7742 60.4716
35.7347 47.9205 63.8108
35.2657 46.9885 62.8058
34.7777 46.4621 63.3305
35.7232 46.6036 62.2211
34.2837 44.9821 60.7487
35.8561 47.6515 63.5076
35.0221 46.6152 63.1188
34.7458 46.0724 61.9914
33.9919 45.4863 62.4205
35.6247 48.3257 65.3486
34.8067 46.6179 63.3652
34.6251 47.0502 64.9572
33.8741 45.4182 62.341
33.9057 46.5291 64.3587
35.1911 48.1658 66.5776
33.7347 45.7244 63.2001
33.4761 45.9869 63.5373
33.8742 47.0482 65.7756
34.3534 47.9901 67.843
34.4546 46.7927 65.1961
33.3444 45.5102 62.7964
32.8942 47.1909 66.8642
33.2791 47.1096 68.2162
34.2855 46.9072 65.6219
33.5621 47.1731 66.9881
33.8212 47.924 68.4232
33.033 46.5882 66.3033
32.431 45.7846 64.7845
31.1028 45.2055 66.1188
33.3086 47.5242 68.4542
31.5054 44.9734 65.6994
32.049 46.1185 66.9178
31.3497 44.4567 64.1982
32.1592 46.7976 68.211
31.3477 45.1732 65.8653
30.711 45.058 67.3818
33.68 48.5415 69.5693
30.3485 44.5488 66.5454
31.1437 45.7852 67.7173
30.8426 45.1715 66.9745
32.0862 48.5105 72.4043
30.1707 44.9796 68.7126
31.125 44.915 66.9351
30.3644 44.2643 65.3478
29.1337 44.0472 66.8859
30.0592 45.0188 69.4095
31.7011 47.25 71.5378
30.8483 46.0671 70.0923
30.1261 44.5944 68.035
30.8101 45.9347 68.6385
28.8688 43.9322 67.8456
29.7571 45.5413 70.4058
30.8322 45.9003 70.1662
29.8628 44.5678 66.3339
27.8783 44.286 70.672
30.2254 45.9623 70.0355
28.8078 45.0196 70.6643
28.81 44.5406 69.4103
28.2217 43.8319 69.6055
28.7501 44.812 71.0622
29.3204 45.423 71.6222
29.7154 45.5227 70.7281
28.5012 44.6488 70.0336
27.8789 44.5557 71.2182
27.5586 43.0405 68.9935
28.8381 46.054 73.331
27.5807 42.9083 68.5312
27.1781 42.9326 69.4327
28.2287 44.7885 72.4545
28.2443 44.9384 72.7758
27.1808 43.4997 70.9402
27.2453 43.1068 69.9165
26.8499 42.6039 68.8452
26.8961 43.1314 69.5105
26.3793 42.8001 70.6237
27.7054 44.3112 70.9668
27.5879 46.1444 76.3697
25.9446 42.1996 71.2948
27.2144 43.7134 71.2473
26.8573 45.0361 76.1708
27.2915 43.9006 72.4266
25.9697 42.6045 72.0292
27.2796 44.5318 73.9789
26.81 44.348 73.7776
26.5851 43.8283 72.86
25.5279 42.2704 70.9013
24.8707 40.9512 69.2373
26.1843 44.4278 74.4808
24.8186 41.1345 70.7214
26.0838 44.2679 75.1316
25.6024 43.0309 73.9112
26.2205 45.0497 77.9394
25.8832 43.0876 74.1435
26.3726 44.0161 73.9132
25.1953 42.4943 72.821
24.5373 41.408 71.619
25.7973 44.4835 77.2736
25.5757 42.9499 73.9346
25.0935 43.3605 75.4498
25.2045 42.5009 73.0591
24.5916 43.2595 76.6101
24.8937 43.0208 75.6034
24.4155 41.7195 73.2514
24.5008 42.3878 74.835
24.8769 43.4261 77.6323
25.5597 43.487 75.9396
25.1809 44.1943 77.8607
24.7161 43.0452 76.3138
24.3763 42.5824 75.7507
24.0107 42.3399 77.0121
28.0945 52.3055 94.1114
26.2295 44.4338 79.0333
24.6051 43.0723 77.1628
23.8385 41.7666 74.2704
23.2229 41.972 77.3803
24.4088 42.9534 75.4586
22.5682 41.2703 77.0951
24.0906 42.9406 78.6441
24.2637 43.0723 77.2716
23.2535 42.2009 78.0559
23.1383 40.9632 74.929
23.7897 43.2304 78.0426
22.8631 40.9621 74.7564
22.8902 41.7963 76.5758
21.9585 40.2007 74.6379
22.825 42.3018 78.11
22.2103 41.108 77.2726
22.2971 40.7327 76.108
22.6794 42.3447 79.7278
22.7616 41.1862 76.2688
22.1276 40.7937 75.833
21.4819 40.1776 77.0701
22.4765 42.1854 79.9044
22.373 41.5621 79.0081
22.4243 41.1498 77.678
22.0344 41.1989 77.8435
22.1691 41.9617 79.5528
21.5979 40.1438 76.7306
22.2551 42.215 80.1176
20.6045 38.6911 74.921
21.1331 40.6084 78.588
22.2792 42.5469 80.8744
20.9467 39.8996 78.392
21.6627 40.651 77.8474
20.9547 39.4341 74.8568
20.7848 41.2993 81.5989
21.2407 39.812 75.325
20.278 39.5438 77.4218
20.643 40.4072 80.7175
22.0095 42.7899 82.8425
20.6606 40.1734 80.9623
21.4895 41.151 79.5831
20.216 38.9714 77.152
20.3026 39.4202 78.6657
20.7342 40.2812 79.0855
20.5224 40.3101 80.8417
21.3643 41.3385 80.5688
20.4365 40.7568 80.9512
20.1682 40.0739 81.0867
20.3725 40.6017 82.7321
20.6651 39.5965 78.1672
19.7474 39.5262 79.98
19.8541 39.1125 79.0661
19.5784 37.7726 74.3696
18.9149 39.6329 82.2221
19.5567 37.8634 75.4328
19.1706 39.133 80.1468
19.1234 38.029 77.95
20.1145 41.3739 84.522
19.6122 38.3093 77.5764
19.5931 39.5105 78.2062
18.3747 37.6569 78.4391
18.8179 39.5878 83.8591
18.8617 37.0946 78.607
19.6263 39.1343 79.4635
19.4382 40.2994 83.6492
19.5311 39.605 81.7306
18.9014 38.2787 78.9886
18.2228 37.197 78.1696
18.3842 38.7203 82.2071
18.9084 38.5384 80.4574
18.7322 37.9089 78.1896
17.9728 37.3141 77.7625
17.6041 37.2815 81.4049
19.0876 38.8248 80.7107
18.0139 38.3176 83.1881
19.1202 39.0847 81.2463
18.2827 38.2647 81.5465
18.2648 38.1004 81.3114
18.259 38.6385 82.7413
18.1129 38.1127 81.908
18.457 39.0607 83.465
17.8494 36.8729 80.3304
18.4343 38.8803 81.7272
17.8046 38.014 82.167
17.7705 37.7681 81.1311
17.2387 36.9616 80.7755
17.5611 36.8967 78.464
16.834 36.4842 82.2527
18.2593 38.8737 83.2787
18.0292 38.8954 84.9539
17.5648 37.1593 80.3696
16.574 35.9741 81.5745
18.0627 38.6554 82.906
16.95 35.8599 78.0575
16.452 35.8269 79.794
17.1102 37.5241 82.816
17.4216 37.8445 81.59
16.9384 38.0197 85.7038
16.9883 36.5238 81.2224
17.166 37.521 81.8353
16.8826 37.8354 84.0641
16.5199 36.2536 81.7879
16.637 37.3535 84.6705
16.4058 35.3496 80.0605
16.3521 35.7192 81.665
16.8967 36.9524 81.4435
16.2028 36.2337 82.2902
16.2699 36.1318 81.6772
16.15 35.538 81.0293
16.1944 35.9101 81.2322
16.4076 36.7067 83.1314
16.4719 36.8571 82.2388
15.8333 35.4357 81.5745
16.5801 38.0171 86.2666
15.7891 35.0247 80.1272
15.818 36.3665 85.3449
16.5451 36.9179 83.5444
15.8612 36.2956 84.5807
15.9754 35.6939 82.715
16.2358 36.8192 82.456
15.2812 35.9936 84.2478
15.5694 35.4508 83.8932
16.1922 37.2982 87.5931
15.9277 35.3974 83.0783
16.1658 36.3772 84.6233
16.3885 36.842 83.4615
15.9318 36.9247 85.7699
15.7125 36.8571 85.9855
15.1102 33.7331 78.5925
15.0204 36.0898 86.8844
15.53 35.3879 82.9689
15.231 35.7947 84.7117
15.1481 34.9947 82.2951
15.2194 35.1614 82.0877
14.6314 34.6676 84.9917
15.5211 36.117 86.075
15.1955 35.2377 83.8031
14.6866 34.2438 82.7176
14.9454 34.571 82.0706
14.955 35.6275 85.7517
15.223 35.7213 84.3928
14.7806 35.2476 86.0813
15.2381 35.4308 84.1204
14.8592 35.6843 86.3888
15.1238 36.2352 86.7772
14.7416 36 88.7443
15.2193 36.2786 89.2593
15.1713 35.8848 87.7359
14.8074 34.5683 84.4379
14.6696 34.9164 86.5143
14.8353 35.3059 85.4659
14.4064 33.9642 83.1369
14.6411 35.3165 85.0413
14.3685 35.2814 86.6638
14.3125 34.4961 85.1745
14.4429 34.6332 85.2558
14.1979 33.9531 82.1569
13.8093 34.4312 87.076
14.5827 34.6017 83.929
14.0446 34.9391 86.2411
13.85 33.4799 83.0012
14.0975 35.6568 88.4768
13.8277 33.3072 83.3041
13.9689 34.915 89.1803
14.2322 34.136 86.0372
14.5374 35.551 88.148
14.0987 34.0432 83.8997
13.6673 34.3206 86.8412
13.7019 33.1738 82.38
13.3402 32.8926 82.6487
13.057 32.7954 83.2855
13.2767 33.2379 85.333
13.7778 34.7795 89.1927
13.612 33.1458 85.3788
13.8119 34.3432 88.0864
13.9182 34.637 85.9884
13.1364 33.7145 88.9033
13.9783 34.289 87.7355
14.0535 35.1461 87.0316
13.0006 33.0159 86.1637
13.7731 35.0039 88.5446
13.1307 33.549 88.1958
13.515 33.6033 86.7121
13.587 34.5799 87.2889
13.2056 33.9593 86.9331
12.7111 32.7115 86.6751
13.0675 32.5495 84.9647
13.1817 34.2845 88.6016
13.0934 33.495 89.0532
13.5351 34.3848 89.6142
13.1652 33.1257 85.9507
13.3514 34.4413 88.3218
12.9046 33.6704 91.8447
14.1563 35.8715 91.1658
13.0199 33.7422 89.455
13.3446 34.4895 89.3726
12.368 31.4277 83.527
12.4702 32.7701 87.2315
12.7139 32.1667 84.7798
12.4931 32.9363 87.573
12.6166 32.4582 84.8541
12.3059 32.0422 86.8478
12.7015 33.3044 87.8217
12.5542 32.6954 85.825
12.0527 32.2647 89.2712
12.6534 31.8966 85.0154
12.4934 32.8755 86.5768
12.0774 31.1621 84.1023
12.2956 32.818 87.996
12.4492 33.1379 89.3908
12.5604 33.5597 89.4981
12.2916 31.9815 87.4081
12.3736 32.2637 85.6974
11.773 31.5279 85.3948
11.6552 30.9826 86.4483
12.2759 31.8818 83.7735
11.7555 32.2112 87.642
11.6318 30.3664 82.5849
11.5656 31.5369 87.7358
11.8363 31.2574 84.7374
11.4375 29.9294 82.9169
11.9783 32.1431 87.0933
12.0198 32.7555 89.3844
11.7536 31.5988 88.4011
12.01 31.3924 84.2642
11.4015 31.3125 87.6068
11.7481 31.3308 85.7212
11.7218 32.2434 87.9168
11.4942 31.9961 89.6544
11.3962 29.5768 82.6897
11.6466 31.7729 86.11
10.9792 30.202 86.4616
11.6451 31.3558 84.2938
11.0474 30.8055 87.3872
11.3772 30.8195 85.981
11.2418 30.455 85.8202
11.196 30.3265 85.0808
11.1472 29.9487 79.8387
10.2909 29.884 86.7129
11.1345 30.9504 90.6518
11.7661 31.1801 86.8253
11.2205 30.6853 86.6794
11.1717 30.4468 86.2224
11.2846 30.8939 85.1856
10.8315 30.7293 89.4858
11.221 29.6331 83.4123
10.9285 30.5247 84.1534
10.6815 30.3955 87.2993
10.6579 29.2036 84.9163
11.0496 30.8793 87.6703
11.0409 30.6345 87.7398
11.1478 30.7363 86.0522
10.6674 30.0762 86.7362
10.9783 30.7123 86.2652
10.4664 29.8197 87.1927
10.9766 30.6279 87.7806
10.8103 30.016 86.1834
10.884 30.7028 86.6345
10.4328 29.3323 85.3877
10.4857 28.9859 82.2151
10.461 30.7085 89.4675
10.6886 29.2106 84.0998
10.3818 29.2527 82.628
9.92002 29.2616 87.0791
10.7924 30.4419 87.1507
10.1313 28.787 86.0756
10.6452 30.7906 88.9671
10.5588 30.2055 87.2769
10.3005 29.4536 88.6237
10.6517 29.5299 84.9867
10.5005 30.7018 88.9384
10.2623 29.9316 89.423
10.3108 29.2727 85.6345
9.95635 28.4424 86.3877
10.5538 30.7911 88.8191
10.119 28.788 84.0714
10.0335 28.8995 84.7548
9.80263 28.8708 87.9792
10.2921 29.4939 86.8873
9.98269 28.5646 84.8164
10.0335 29.0554 85.105
10.0233 29.6247 89.2611
10.2677 29.0522 84.6932
9.97115 29.5725 87.5959
9.93327 29.1842 88.9811
10.2157 29.0203 84.7753
9.65365 28.3785 85.897
9.82793 29.0723 87.8202
9.89404 28.4763 86.1618
10.0152 29.1133 85.1782
9.61887 28.5384 87.1953
9.97296 29.426 86.2329
9.69883 28.839 87.953
9.87642 29.1066 86.684
9.65312 28.6584 88.3202
10.0572 29.2565 86.5807
9.62356 28.081 86.5718
9.69786 28.7654 86.1259
9.6054 29.3266 90.4284
9.96188 28.7796 84.7191
9.43923 29.0716 88.6444
9.38911 27.7423 85.452
9.61755 28.8811 86.8038
9.26503 27.8435 87.1093
9.43339 28.258 88.144
9.57033 27.6276 84.6709
9.38064 27.9576 87.2907
9.56378 28.4485 87.4574
9.68673 29.0578 86.1099
8.91047 26.0601 82.5214
9.36022 28.653 86.5537
9.179 27.4026 85.7167
9.46214 28.517 85.1542
9.00316 28.0146 87.2771
9.18282 27.4113 85.7429
9.24478 27.628 84.6582
9.05445 27.7267 85.4993
9.02051 27.09 84.5654
9.05967 28.0416 87.9461
9.09918 26.922 84.6958
9.10197 27.6633 85.7003
9.20594 28.5289 87.0096
8.96583 27.6187 87.54
9.08468 27.1419 83.6622
8.81554 27.2494 87.1391
9.16292 27.9812 87.5658
9.14321 27.0651 83.9589
8.72547 26.9335 83.0858
8.56936 26.6558 84.9459
8.90091 27.7544 86.7261
8.75996 26.7681 87.053
8.9753 27.2163 85.0738
8.72856 26.9032 85.2254
8.64713 26.6803 85.0138
8.58582 25.9635 82.8752
8.46782 25.9682 82.6229
8.42742 25.8909 85.346
9.0697 28.1449 87.4168
8.83945 27.1455 87.2416
8.97661 27.3871 84.1582
8.45472 26.7361 86.1031
8.54453 26.4658 84.6847
8.62922 26.8671 86.0234
8.76699 28.0562 89.5855
8.7837 26.7982 86.7762
8.75668 26.9853 84.5717
8.25224 25.7488 84.8961
8.55986 26.364 83.5185
8.40155 26.6157 86.7613
8.6784 26.6546 83.1598
8.30595 26.8585 88.089
8.6984 27.1551 85.9084
8.16896 25.399 83.9292
8.35628 26.1774 83.7339
8.32527 26.8212 89.6836
8.811 27.111 85.4397
8.33826 26.4177 84.7271
8.1312 25.3301 82.5414
8.1805 25.911 83.6824
8.09583 26.5208 88.5764
8.57833 26.5863 85.6437
8.15209 25.9043 85.4058
8.22347 25.659 83.251
8.01695 25.8469 85.7685
8.22111 26.1705 85.0544
8.2618 26.3567 88.2846
8.49675 26.4907 82.9885
7.87833 25.6362 82.1892
7.78348 25.5446 85.2483
8.03381 25.5918 85.3171
7.97958 25.7498 86.1147
8.21436 25.5539 83.5437
8.00369 26.1348 85.4767
7.95811 24.9165 83.4793
7.9387 25.3157 85.3133
8.17944 25.6302 82.9615
7.93513 25.799 84.6352
7.93845 26.1323 87.3597
8.00946 25.0246 84.6597
7.96671 25.8778 87.3879
8.25079 26.8206 88.5029
8.12303 25.0265 82.1081
7.70664 24.9142 84.3821
8.07129 26.2977 86.4786
7.87407 25.3083 84.0958
7.83506 25.5218 85.9069
7.96538 26.4812 87.3636
7.78229 25.4522 86.4017
7.96228 25.555 84.9722
7.72398 24.5246 84.6137
7.92674 25.4156 84.7977
7.72092 24.5474 83.2126
7.69607 24.454 80.6492
7.48802 25.0967 86.4262
7.99994 25.907 88.2394
8.05625 25.9479 85.769
7.85008 25.9278 86.5171
7.62223 24.4309 82.0569
7.43006 24.6287 82.8618
7.49149 24.9607 84.9876
7.73772 25.7037 87.0729
7.67882 24.387 82.5954
7.50777 24.94 83.041
7.35632 24.6799 84.2677
7.51301 24.0791 83.6569
7.64115 25.6485 86.2896
7.70132 25.1912 82.7775
7.37402 25.0416 84.7441
7.35161 24.1704 85.1348
7.63075 24.8071 84.2006
7.4381 24.2057 82.303
7.37647 24.5808 86.4153
7.72627 25.3199 83.9587
7.38309 24.588 84.0466
7.31429 24.68 84.8825
7.46039 25.3173 86.0409
7.29579 24.1268 86.0086
7.50025 25.036 87.3934
7.82329 25.1277 82.2456
7.23161 25.5055 87.2419
7.47722 25.0662 86.8251
7.51784 25.0451 85.1846
7.3334 23.6761 80.0862
6.89448 23.6761 83.056
7.24286 24.1207 83.6995
7.14251 23.8352 83.9415
7.36899 24.5356 83.3969
7.03603 23.336 83.2327
7.35875 25.1412 85.6349
7.41765 24.8562 82.8456
6.93354 23.7506 82.2351
6.85937 23.4249 83.5303
7.13501 24.005 81.2324
6.8911 24.0161 84.4927
7.1235 24.553 86.6757
7.33146 24.5259 83.1865
7.0511 23.9982 84.9644
7.15611 24.1488 83.0661
6.98122 24.3462 86.2739
7.08631 23.3007 82.7481
7.11913 24.3253 81.5318
6.77369 23.1776 83.5023
7.0334 24.3718 86.8994
7.28502 24.2097 85.8416
7.14396 24.1217 82.2631
6.84108 23.6384 84.3955
7.08875 23.8864 82.9824
6.89727 23.4139 81.6152
6.71489 23.834 87.1477
7.16944 24.153 86.0792
6.95636 23.3134 84.4257
7.05634 23.963 81.8617
6.64023 23.331 84.6704
6.98727 23.5293 84.8615
7.04244 23.1842 79.6456
6.58597 23.1867 82.4401
6.82351 24.5596 88.67
7.15827 22.9935 79.7777
6.58195 23.4782 83.0175
6.76067 24.2074 87.3218
6.98777 23.2472 82.95
6.82406 24.2663 86.1215
6.81544 22.7432 83.6507
6.92675 24.0301 84.7971
6.80791 23.5238 84.5874
6.76764 23.1855 82.4921
6.67622 22.8482 82.6665
6.72854 23.4518 82.6239
6.64073 23.2366 81.8054
6.60237 22.9916 83.0289
6.75373 23.4181 84.3093
6.82652 23.6366 81.4202
6.39798 22.9345 85.472
6.89881 23.1962 82.1773
6.55599 23.2991 85.8579
6.80875 23.4678 84.1731
6.8116 24.3148 86.8466
6.84401 24.4138 88.9304
6.96825 23.8625 83.827
6.52789 22.9557 86.8229
6.94501 24.2509 86.7301
6.82748 23.7829 84.2092
6.64012 23.3713 83.4671
6.41132 22.3988 84.5023
6.71962 23.4347 85.8612
6.72823 23.3118 83.7345
6.46374 22.695 82.8253
6.57633 23.3171 83.0759
6.49031 23.6352 87.145
6.72008 22.5551 82.0034
6.51152 23.8463 86.4203
6.64221 22.368 82.1276
6.44163 23.0723 84.8699
6.6989 23.7308 84.4826
6.46024 22.354 84.0605
6.54776 22.4583 80.7747
6.40069 22.6946 82.952
6.49453 24.3771 89.6258
6.81459 22.9506 81.5932
6.37214 22.2712 80.1613
6.18148 21.7139 82.69
6.45207 22.9758 85.9454
6.61123 23.1624 82.2129
6.37922 23.123 87.5718
6.72175 22.805 79.617
6.14816 22.5513 84.4917
6.54529 22.6479 82.621
6.28164 22.4299 81.966
6.35401 22.7002 83.1773
6.30234 21.9552 82.1767
6.34892 22.4395 79.0233
6.04929 22.3071 83.0628
6.34146 23.1639 86.4157
6.41743 21.6652 81.3443
6.19598 22.0753 80.3711
6.06044 22.3507 84.8862
6.34552 22.8289 87.4729
6.59004 22.9693 83.8914
6.27724 22.1376 81.9406
6.2333 22.3176 82.0268
6.1619 21.6035 81.7864
6.16474 22.2723 81.0367
6.09799 21.5946 83.4229
6.38559 22.9979 83.7868
6.31565 22.1575 80.5056
5.9134 21.3022 81.0867
6.13613 21.6963 81.1357
6.05668 20.9972 77.2087
5.90952 21.897 79.9615
5.93615 22.0354 82.8296
6.13057 21.8405 81.8984
6.09659 21.6874 80.7999
6.09261 22.1864 81.9458
6.14001 22.4208 84.971
6.21655 21.2398 78.1334
5.94424 21.7744 80.0495
5.80819 21.294 83.2156
6.25623 22.4113 81.752
5.96791 21.4186 81.4023
5.95426 21.3496 82.6304
6.13769 22.4594 82.2284
5.97035 21.2034 82.2474
6.11032 22.1683 81.1706
5.97592 21.75 81.8566
6.03491 21.6461 81.0927
6.02373 22.3244 84.904
6.19406 22.3768 82.567
5.928 21.1129 78.8279
5.82391 21.555 83.2474
6.06106 21.5054 80.2849
5.92717 22.6003 84.9774
6.08628 21.5852 82.5135
6.02323 21.6629 81.3622
5.90421 21.6518 80.8287
5.91035 22.553 83.1194
5.90139 20.8938 82.3287
6.02967 21.2466 79.0204
5.78608 21.3392 81.1621
5.87739 21.1751 80.0569
5.85775 21.6171 79.9461
5.69155 21.8764 81.1613
5.88072 21.7347 84.055
6.02122 21.5478 81.2204
5.82286 21.0473 81.8497
5.90327 21.7988 82.7026
5.9363 20.6713 79.432
5.80863 21.27 82.0546
5.93129 21.3729 79.6244
5.73025 20.8999 82.5559
5.96841 21.9291 79.5997
5.5937 21.0989 80.243
5.71501 20.862 81.9417
5.8723 21.7755 80.0269
5.61816 21.0208 81.8783
5.77734 20.3885 79.477
5.6811 20.6822 80.2628
5.72223 21.4547 79.4936
5.68676 21.2025 82.9223
5.95057 21.7845 80.0103
5.65998 21.2571 81.4948
5.72632 21.0062 80.2945
5.76464 21.2711 82.7651
5.93864 22.4257 81.8052
5.69627 20.1713 80.1461
5.69797 20.7857 79.9386
5.64714 20.6646 79.0232
5.64908 21.3464 81.3243
5.63089 20.6771 80.0639
5.65385 20.6343 79.4677
5.61804 20.9046 81.3652
5.71352 21.2873 82.2663
5.7276 21.064 78.1105
5.48667 20.9684 80.6686
5.61412 20.7634 80.4635
5.66378 19.9592 77.4803
5.53224 20.5025 80.9081
5.73978 20.6248 79.2961
5.6248 20.982 78.7447
5.50793 20.5719 78.3245
5.41522 20.8768 79.6957
5.56313 21.2311 83.3063
5.78362 21.4802 81.7606
5.63289 20.24 82.2655
5.75927 20.7379 78.502
5.49878 20.6746 80.906
5.56085 20.649 82.0153
5.73919 21.0503 78.8061
5.50963 20.7901 80.1445
5.58554 21.0764 79.4659
5.41665 20.2105 81.2306
5.66433 21.203 81.3616
5.63521 21.4795 81.7142
5.54492 20.642 82.3555
5.79871 20.8648 80.1798
5.44324 20.8042 80.1151
5.53639 20.6879 79.2077
5.48818 20.6043 79.3006
5.45908 20.1157 80.5722
5.60815 20.5197 77.3493
5.34097 20.0334 79.9914
5.50725 20.7054 79.7339
5.47112 20.5198 79.9464
5.53073 20.3802 78.4661
5.38446 20.888 80.9999
5.53406 19.731 75.4464
5.20086 20.7005 82.298
5.52121 20.1021 76.2852
5.2485 20.0643 79.8489
5.45249 20.0215 78.8374
5.41764 20.5143 81.7972
5.61125 21.1007 80.1797
5.44256 20.5509 79.5536
5.44346 21.0898 81.6305
5.56014 20.2775 79.6292
5.40821 20.743 79.7573
5.44541 20.6706 81.3762
5.50157 19.9528 79.4558
5.37317 20.2722 77.6152
5.32527 20.1918 78.4922
5.29033 20.2545 83.4097
5.58967 20.9086 79.3276
5.43181 19.8846 79.8692
5.40025 20.8967 81.1876
5.52684 19.9909 77.9455
5.25454 19.9501 82.7122
5.67551 20.9895 76.7578
5.22032 20.6805 79.1312
5.20806 19.8627 81.7582
5.50668 20.4331 80.0945
5.36122 20.1896 79.1408
5.43788 21.0328 79.6779
5.28787 20.4871 80.0647
5.37267 20.1932 81.0624
5.4859 19.6451 78.9237
5.37906 20.424 80.2928
5.42156 20.5894 79.8284
5.41268 20.3974 80.7966
5.4177 20.2782 80.5558
5.41087 20.6 80.014
5.3871 20.4954 80.3659
5.36449 19.6297 78.3057
5.28763 20.2839 78.9969
5.32701 19.5725 77.7305
5.2506 19.7153 76.3037
5.11402 19.8059 80.2167
5.41247 20.5325 78.9431
5.31964 20.0437 79.4761
5.34919 19.8071 78.8793
5.33152 19.9181 80.3751
5.45557 20.5956 78.7951
5.31654 19.7063 77.9463
5.21436 20.067 77.3558
5.21478 20.0834 79.2102
5.30098 19.9197 77.7166
5.22366 19.5429 79.0001
5.35862 20.7084 79.8316
5.2843 19.8579 81.2824
5.42054 20.2446 81.0131
5.39004 20.4749 81.2581
5.41677 20.5322 79.4406
5.26725 20.4907 81.4093
5.42201 20.569 81.3055
5.42454 21.2185 82.5168
5.46098 20.2931 79.4878
5.315 19.9781 78.1055
5.21113 19.4898 79.6568
5.31921 19.6968 77.977
5.21271 20.2639 80.8456
5.3434 19.3489 77.6554
5.23944 20.1735 77.2176
5.1151 19.2043 78.9352
5.24774 20.1848 77.6297
5.06853 20.0809 81.4636
5.39704 20.0334 77.9655
5.17692 19.4768 78.6523
5.23012 19.8776 77.2397
5.0768 19.2667 79.0791
5.22291 20.4148 77.4451
5.24086 19.9676 80.0003
5.35451 19.9723 80.7469
5.30657 19.9735 80.5005
5.29319 19.9791 79.8011
5.36362 19.6612 81.1489
5.38723 20.7879 79.7195
5.19624 19.8114 78.7407
5.21305 19.7288 79.1541
5.27643 20.4184 80.0273
5.26148 20.1863 79.5417
5.28081 20.1497 80.1406
5.26249 19.6016 78.9257
5.17704 20.4587 80.8415
5.34389 20.1723 80.6703
5.3679 19.7238 77.7067
5.13819 19.7836 78.9706
5.21697 19.9903 76.8804
5.04682 20.0664 80.1824
5.25181 19.6572 79.3092
5.20774 19.8381 80.0799
5.24015 20.8624 82.3342
5.35015 20.4649 81.4515
5.332 20.1745 79.9573
5.23737 20.0301 77.8048
5.10694 19.8842 81.0687
5.26702 20.0899 79.8934
5.17077 20.1215 80.3644
5.29619 19.8139 79.7359
5.2133 20.1889 80.7781
5.30871 19.6655 75.4474
4.91225 20.8473 82.5504
5.40122 19.4272 77.0941
5.09291 19.5241 77.9188
5.0609 20.4261 81.3889
5.36484 19.2761 77.0757
5.02049 19.8911 81.1357
5.33977 19.8515 78.8924
5.18258 20.172 78.4105
5.15115 19.7035 78.3251
5.10752 20.0046 80.6381
5.30278 19.1981 78.661
5.23569 20.3741 79.6208
5.23179 20.1946 81.6203
5.4017 19.2976 77.0315
5.10796 20.598 81.991
5.39791 19.7132 77.6423
5.11203 19.8693 79.5396
5.17957 20.3319 78.1024
5.08172 19.1202 78.6986
5.22664 19.4034 76.3061
5.00727 19.4676 77.8586
5.16695 19.7587 78.29
5.11897 20.3457 79.7282
5.20193 19.4864 78.2175
5.14378 19.6847 84.865
5.57306 20.2446 81.8081
5.3597 19.876 75.0832
4.97846 20.711 81.2022
5.278 20.184 81.0905
5.30173 20.6153 83.6454
5.42442 20.4293 80.1101
5.24706 20.3591 81.6002
5.31729 20.1965 80.8736
5.36315 19.8799 78.8744
5.21534 20.411 80.9709
5.34007 20.671 82.6887
5.45946 19.7292 79.5017
5.22889 20.385 81.4597
5.39908 21.3954 86.9591
5.69199 0 0