# pn-170911/RbIIR-50-RbIIA-1280-1959.psd
# Power spectrum* (dif=0,1,2) (really just |FT|^2)
# NOTE: only the first half! (symmetric)
# weeks: 1280-1959
# 1925 clock-days, 431 excluded
# PSD: 1441
8734.74 0.305188 0.0434659
699385 15.149 0.0698177
1.96734e+06 34.3024 0.0646021
422551 13.4035 0.0617925
294455 17.3332 0.0663564
124614 8.96358 0.066486
80939.8 9.15753 0.06675
56977 8.13164 0.0698926
45936.7 8.11956 0.0671658
34412.6 8.08718 0.0627913
27167.7 7.60315 0.0655663
22450.1 7.44381 0.0664053
19425.3 7.80673 0.0674303
15806.4 7.50339 0.0732498
14186 7.81268 0.0702393
11819 7.35334 0.0702404
11009.2 7.79137 0.0724897
9548.43 7.6046 0.0735351
8655.94 7.75386 0.0755857
7332.01 7.29804 0.0777926
6729.22 7.396 0.0805264
6268.21 7.57487 0.0774962
5610.44 7.70199 0.0849198
5061.1 7.39422 0.083982
4918.7 7.70481 0.0850526
4332.82 7.54623 0.0898592
4060.22 7.40491 0.0906267
3663.83 7.38419 0.0873939
3486.18 7.67812 0.0950034
3246.18 7.70995 0.093784
3192.51 7.91658 0.0995352
2908.26 7.50444 0.0989851
2681.97 7.58212 0.102715
2570.42 7.83973 0.102399
2363.97 7.35579 0.103889
2330.13 7.75516 0.105453
2129.46 7.7096 0.11195
2062.36 7.98878 0.114841
1937.18 7.87945 0.11187
1888.51 8.30485 0.122844
1808.36 8.08362 0.122975
1731.05 8.22942 0.126348
1647.91 8.3088 0.1291
1623.29 8.56518 0.139636
1483.37 8.13656 0.134729
1455.73 8.54729 0.14266
1416.82 8.76158 0.152082
1392.4 8.86426 0.150349
1353.2 8.9966 0.15764
1267.97 8.95228 0.168528
1209.64 8.73101 0.170382
1179.13 8.78195 0.164892
1130.86 8.8874 0.180684
1071.18 8.6847 0.17572
1086.71 9.2643 0.195091
1044.34 9.22646 0.195315
998.336 9.17636 0.205771
972.434 9.36032 0.204816
914.558 9.25126 0.209474
930.359 9.74448 0.228992
896.127 9.66856 0.227048
875.975 9.73314 0.234403
848.487 9.89388 0.240873
790.583 9.41585 0.243488
808.317 10.0387 0.259586
759.423 9.78366 0.26066
777.22 10.3128 0.277766
738.398 10.1634 0.287538
710.924 9.77065 0.283285
704.421 10.1723 0.300008
697.559 10.6159 0.313395
656.813 10.2001 0.300976
666.478 10.8803 0.337488
647.013 10.7718 0.334743
655.986 10.6957 0.345837
649.552 11.3086 0.364862
616.464 11.1385 0.374691
583.262 10.818 0.367181
577.507 11.122 0.393569
559.727 10.9979 0.391174
560.331 11.3671 0.412916
548.493 11.2154 0.408586
554.29 11.8353 0.445417
539.01 11.7037 0.448498
494.509 11.2995 0.439006
501.234 11.5002 0.459249
491.827 11.8859 0.48595
471.836 11.4174 0.474339
461.76 11.602 0.485709
464.115 11.5139 0.500784
459.795 12.1708 0.531872
468.422 12.3812 0.54626
439.443 12.0864 0.551262
441.027 12.3662 0.580006
420.131 12.1802 0.581109
425.445 12.6068 0.607396
434.416 13.3088 0.636725
408.424 12.7866 0.639372
393.63 12.138 0.614257
405.27 13.2104 0.681649
391.017 12.7978 0.663141
402.013 13.5035 0.714583
373.029 12.8443 0.686939
390.889 13.5727 0.735496
369.971 13.5494 0.754205
370.065 13.8784 0.78572
383.002 14.4922 0.824327
364.016 14.1959 0.831416
348.142 13.5832 0.816319
334.376 13.9371 0.844251
336.689 13.6589 0.843054
326.423 13.6348 0.854474
321.397 13.4662 0.844579
331.923 14.6522 0.95005
335.758 14.7985 0.968602
321.152 14.5611 0.975288
310.293 14.7266 1.00569
318.487 15.2521 1.04808
312.229 15.0844 1.04934
318.993 15.2107 1.09515
301.526 14.9538 1.07025
313.933 15.52 1.15777
292.273 15.2245 1.14162
298.781 15.4377 1.16628
285.873 15.1796 1.17043
286.265 15.4381 1.19549
285.575 15.7745 1.24661
277.512 15.0114 1.21674
272.31 15.5594 1.24378
284.55 16.4255 1.36281
280.902 16.439 1.38184
266.936 16.0154 1.35471
265.055 16.5466 1.4174
262.766 16.2355 1.41341
265.362 16.655 1.46796
260.015 16.5575 1.47757
255.191 16.7353 1.53569
258.675 17.1919 1.59511
257.027 16.9649 1.57563
252.659 17.432 1.6394
258.925 18.1 1.7247
239.389 17.3142 1.68259
235.23 17.4738 1.72273
242.027 17.4751 1.74197
237.397 17.7862 1.80597
223.709 16.8817 1.72264
233.243 17.7787 1.84764
239.262 18.6508 1.94823
226.762 17.6797 1.87436
221.282 17.7281 1.9026
223.129 18.0552 1.98149
216.837 17.6601 1.95574
220.756 18.7624 2.10689
220.928 18.8728 2.14588
215.5 18.307 2.10578
219.093 19.1739 2.21911
213.928 19.0433 2.24601
214.403 19.5802 2.3159
210.881 19.0063 2.3109
205.178 18.7504 2.30057
213.41 19.9641 2.44737
208.113 19.6261 2.43527
198.684 19.0026 2.42552
204.075 19.585 2.52553
205.406 20.3545 2.64353
198.521 19.6172 2.55221
197.804 19.8811 2.60697
192.827 20.0731 2.6686
195.45 20.566 2.80046
199.666 20.6852 2.84148
190.622 20.6775 2.84671
194.118 20.8736 2.88791
184.559 20.3734 2.90433
190.074 21.0394 3.02325
182.441 20.3778 2.93256
184.285 20.6564 3.02327
184.69 21.3743 3.13835
178.081 20.815 3.14234
185.428 21.801 3.30871
181.455 21.7654 3.31032
178.265 21.6716 3.34121
180.833 21.517 3.3892
176.581 21.4783 3.40396
175.779 21.8939 3.48591
164.301 20.9764 3.38964
173.753 22.5763 3.65747
172.074 21.7199 3.57253
173.748 22.7763 3.77755
169.235 22.0342 3.71134
172.377 22.7603 3.85275
158.422 21.5843 3.6652
163.31 22.2439 3.88109
166.682 22.4594 3.95819
161.383 22.1692 3.93217
159.562 22.0825 3.93662
163.064 23.854 4.29738
158.351 22.9966 4.18333
157.896 23.4067 4.33056
155.488 23.0017 4.29249
157.467 23.0406 4.31339
154.177 23.3899 4.44872
160.204 23.9829 4.57652
155.063 24.0128 4.58231
147.242 22.8281 4.44326
150.769 24.3064 4.80467
147.479 23.0925 4.60689
152.479 24.3769 4.8858
149.497 24.202 4.86958
151.166 25.0015 5.10139
143.212 23.7342 4.91104
135.723 23.1454 4.823
141.916 24.1216 5.07978
137.383 23.2192 4.94954
144.589 24.7537 5.24885
142.622 25.026 5.45668
146.336 26.4444 5.75491
138.659 24.1171 5.33764
141.766 25.2441 5.59751
138.222 25.0026 5.5675
134.298 23.7822 5.35164
138.48 25.3222 5.75745
134.039 24.8277 5.72832
134.899 24.8008 5.71903
132.7 24.7867 5.78297
133.784 25.2734 5.95967
134.085 26.4111 6.3204
130.679 25.9393 6.21486
130.514 25.7052 6.203
130.284 25.9541 6.3283
133.607 26.7323 6.55878
125.138 25.0372 6.2066
129.222 26.5882 6.63817
127.909 26.6079 6.72258
121.693 25.1749 6.42286
123.847 26.1108 6.69285
125.665 26.6323 6.85886
121.004 25.7635 6.78807
119.241 25.7038 6.75686
120.695 25.729 6.82672
123.189 26.457 7.06844
121.924 27.4364 7.34581
120.755 26.394 7.22085
121.557 27.5815 7.61366
121.452 27.1138 7.48304
122.59 27.752 7.71849
118.601 27.3462 7.69749
118.165 27.6765 7.86063
120.767 27.9924 8.00104
115.158 27.4223 7.8698
113.989 26.5637 7.69652
111.647 26.3481 7.74487
115.284 28.0092 8.27654
115.756 27.8234 8.14163
116.839 28.9008 8.69707
117.473 29.0219 8.72552
111.29 27.5015 8.28304
108.1 27.2514 8.45165
110.854 28.158 8.5895
109.013 28.0401 8.71804
111.156 28.8474 9.09381
112.131 28.751 8.99196
105.153 27.5387 8.71857
105.317 27.9464 8.90397
107.825 28.5987 9.33975
106.082 28.8994 9.3216
108.333 28.7403 9.30351
104.89 28.2375 9.22482
103.639 28.1227 9.22375
103.91 28.8488 9.60179
103.204 28.9378 9.87229
104.879 29.4221 9.88328
103.996 29.0248 10.0286
100.314 28.8785 9.92305
99.8679 28.8412 9.91971
102.012 29.5426 10.1971
104.073 30.6023 10.745
100.909 30.5473 10.7733
102.824 30.3855 10.9065
99.7109 28.9129 10.3462
99.4961 29.8277 10.6667
96.3949 29.6488 10.7591
99.735 30.3331 11.1476
100.653 30.4658 11.1418
95.985 30.2335 11.1848
94.3532 29.0109 10.8033
98.2242 30.3256 11.3314
95.3373 30.4337 11.4965
94.096 30.3671 11.6263
95.7999 30.81 11.9189
95.9795 31.2959 12.0907
94.5323 31.263 12.0162
91.9008 30.7057 12.2514
90.9561 30.4708 11.9389
95.0757 31.2299 12.2991
89.8705 30.6436 12.2692
91.5346 30.6885 12.2267
93.1448 31.4979 12.615
91.0618 31.1061 12.6818
92.4994 32.3173 13.2739
89.1861 30.8953 12.7879
89.5724 30.6315 12.6348
87.1127 31.0238 13.0548
85.7873 30.4869 12.8655
90.1951 32.4632 13.7948
87.0006 31.3825 13.3489
86.3167 30.711 12.8618
87.0226 31.8809 13.9084
89.5105 33.1345 14.3812
87.0344 31.8323 14.0178
83.0688 30.4329 13.4406
84.5921 30.8319 13.6074
82.9604 30.4274 13.4552
87.6239 32.7872 14.6001
83.8503 32.5624 14.8386
85.6816 32.8136 14.927
84.3286 31.9359 14.4233
82.306 32.0448 14.6807
80.5207 32.3658 15.0152
82.6979 32.1615 14.6827
79.7397 31.9518 15.0557
85.4291 33.0005 15.3016
81.689 32.9895 15.562
79.9241 31.8524 15.2428
79.741 32.2298 15.1705
83.0068 33.8132 16.1417
75.2245 31.2047 15.2384
78.5572 31.5362 15.4493
79.5344 33.1606 16.2522
78.501 32.7238 16.05
78.6411 32.9697 16.1974
77.227 32.3525 16.2132
76.6666 32.3945 16.1036
76.9698 32.4134 16.2238
76.2186 32.2781 16.4447
74.0191 31.7366 16.2252
72.544 31.7191 16.4262
74.9379 32.8792 16.8481
77.602 33.7198 17.5323
75.6011 33.6303 17.4345
74.2757 33.184 17.3815
72.6498 32.3661 16.9555
74.9579 33.6198 17.9142
73.7141 33.6927 17.8054
74.8167 34.321 18.4321
72.4777 33.289 17.9099
73.057 33.3276 18.1578
73.5753 34.1855 18.5614
71.1138 33.7915 18.4268
71.2393 32.3998 17.9131
69.5056 33.1162 18.2477
70.9047 33.9101 19.1824
72.2722 33.9413 18.7945
70.8322 33.9588 19.0093
69.5944 33.6373 19.2412
70.8901 35.2775 20.1626
68.5597 34.4796 20.5561
78.653 38.0943 20.9961
69.8613 35.2146 20.99
81.7957 40.6574 22.7701
68.5379 34.3485 20.3782
77.9977 39.7491 22.909
68.1805 34.8323 20.6946
73.0915 36.6915 21.2623
66.0037 33.5085 20.1429
67.6421 34.8616 20.8875
65.235 34.198 20.8481
68.0604 35.4814 21.3326
64.8575 33.6164 20.5324
64.784 33.9234 20.7139
63.1288 32.6554 19.9029
66.1596 34.2455 21.2253
63.8413 33.7184 21.306
64.6824 34.4578 21.3834
64.4436 34.7791 21.8222
62.4243 34.0119 21.5743
64.1077 35.2958 22.4005
65.4019 35.3037 22.2474
62.28 33.7838 21.8292
62.6542 34.55 21.9755
61.8084 33.6115 21.8013
61.0255 33.8392 22.0011
62.0871 34.7619 22.6147
61.5432 34.8878 23.1412
62.3725 34.1817 22.012
58.9062 34.2466 22.9189
61.4575 34.9573 23.0093
60.7815 34.5011 23.4616
62.1412 36.027 24.0303
59.6268 35.2135 23.991
60.7128 34.9921 23.6797
59.9163 35.1328 23.8638
60.0403 35.1474 24.1384
57.5241 32.6355 22.331
58.6419 34.8344 24.097
58.8708 35.3932 24.9406
57.7435 35.0089 24.2784
57.4955 34.5757 24.1791
57.8498 34.195 23.9017
57.7614 35.1671 24.9917
56.2602 34.5825 24.817
59.0535 35.0777 24.9787
56.7292 35.2965 25.3031
54.9407 33.8018 24.2691
55.6931 34.8467 25.2838
57.9141 36.703 26.5539
55.1735 34.667 25.3139
58.129 36.4904 26.9753
54.299 35.2099 26.2091
54.577 34.9301 25.9305
55.6758 36.1758 26.8552
54.6044 34.9719 26.2339
55.6029 35.8763 27.0801
55.3658 35.7654 27.1447
54.6555 34.7517 26.3909
53.4335 34.5628 26.3248
54.701 35.946 27.3998
54.8538 36.4726 28.0443
52.3786 34.7224 27.2188
54.0212 36.0483 28.1749
52.8656 35.0931 27.3414
53.2877 35.6965 27.7118
52.434 35.2488 27.8203
53.7767 35.9417 28.4374
54.3891 35.7616 28.2085
52.0725 35.1311 27.8633
51.9484 35.6292 28.3681
51.2931 35.7602 28.9973
51.7696 35.961 29.0337
51.4612 35.938 29.1355
51.6425 36.3614 29.7751
51.7963 36.3869 29.5136
52.0039 36.8951 30.2935
49.5752 35.1623 29.2408
49.7001 35.4395 29.6857
48.8111 34.7125 28.3052
48.7522 35.2038 29.6884
49.183 34.9309 29.2597
49.3169 35.3325 29.8197
50.5234 35.7105 30.0164
49.4887 36.6107 31.3045
49.4426 35.689 30.7141
49.7516 35.1127 29.7156
49.8963 37.6386 32.0483
47.2883 34.9487 30.1828
47.7281 36.126 31.2697
44.8827 33.4365 29.635
48.1293 36.2177 31.2845
46.9284 34.9457 31.192
46.4524 35.4982 31.2222
45.9652 34.7685 30.7872
47.1514 35.6206 31.56
45.3221 34.8782 31.2685
47.8356 36.6562 32.3926
47.5507 36.8326 33.0261
46.5893 36.1432 32.7292
46.468 35.7917 32.9895
45.4989 35.8429 32.3108
43.922 34.3205 31.2609
46.5127 36.9729 33.6943
44.2815 35.5493 32.6913
44.2486 35.3892 32.7764
42.8394 34.8012 32.7709
43.3957 34.3841 32.0335
44.1215 34.1525 31.6488
44.1885 36.7787 34.8089
44.8094 35.7252 33.27
43.1866 35.7032 34.3203
43.2145 35.6307 34.1702
42.3296 34.1536 32.3645
42.7461 35.6245 34.3056
44.2998 36.3545 35.0542
43.2977 35.6415 34.1488
42.1243 35.1645 34.5893
43.419 35.0706 33.8256
42.7318 36.2295 35.5694
41.6757 33.8365 33.3838
42.3457 35.8388 35.5181
43.0598 35.4655 34.6075
42.2039 36.6439 37.0679
43.9596 36.997 36.4896
41.8429 36.4536 36.4288
41.6189 36.1312 36.4279
40.0757 34.0614 34.5951
42.4694 36.8722 37.0005
41.4878 35.9292 36.898
43.3274 36.8288 36.9439
40.6756 34.9008 35.6013
41.9628 36.3197 37.0986
40.3528 36.3158 37.5496
40.3103 36.4234 37.6075
41.0508 36.2412 37.5029
39.8042 35.5966 37.0388
39.4473 35.1365 37.2261
40.6494 36.0998 38.0224
38.7243 34.3354 36.3156
39.4027 35.9799 37.7362
39.8005 37.553 40.0885
40.0981 37.1637 39.9031
40.5619 36.2558 38.4401
39.0194 35.7383 38.2519
36.9978 35.0046 38.3759
40.1711 37.505 40.5864
39.9603 36.9329 40.124
37.5036 34.4832 37.8161
37.931 34.7307 37.0908
37.9675 35.9315 39.1388
36.8591 34.7883 38.7511
35.5704 33.0995 36.4109
36.08 34.5666 38.8325
36.752 35.282 39.1423
36.7408 35.2746 39.1557
36.1648 34.3529 38.7622
37.3208 36.1679 40.778
36.9008 35.8216 40.2579
35.4709 34.4522 38.7595
36.8699 35.8783 40.8037
36.5889 35.4703 39.9986
35.4112 34.6417 39.6541
34.6475 34.6828 40.2364
36.4092 36.1636 41.6269
34.9249 33.9233 39.7866
36.6099 36.2228 41.4688
36.0697 34.9286 40.0649
35.1053 35.103 40.4908
35.3608 35.2774 41.7291
35.0089 35.0216 40.4007
34.2196 35.612 42.4909
34.5092 35.2422 42.0169
34.3898 35.2287 42.0207
33.7762 33.6862 39.2201
33.1 33.6725 40.0119
32.7467 33.3506 40.3825
33.1718 34.641 42.0557
33.6818 34.3224 42.0043
34.2307 34.4265 42.0781
35.1817 35.604 42.2066
33.9407 34.8155 42.227
33.4751 35.7655 43.3131
33.756 35.4816 44.1284
33.85 34.9151 43.1852
34.1269 35.879 43.8879
34.3684 36.1065 44.1622
33.6347 36.2604 44.9621
32.1042 35.0034 44.062
32.479 35.401 44.8359
33.1605 35.3878 44.2058
32.7074 34.8531 44.1147
33.4899 35.6124 44.5478
33.2952 37.2133 47.1523
30.7929 33.0693 42.6521
32.5308 35.4977 44.2992
32.4826 36.1627 45.6356
30.6644 34.0079 43.9379
31.0662 34.9396 45.5875
30.6754 33.852 44.2703
31.5147 34.3229 44.0669
30.5254 33.7379 44.4209
32.7164 35.5352 45.8168
31.4687 35.1738 45.8268
31.5672 35.3773 46.211
30.8517 34.569 45.5462
30.1098 33.6908 44.0141
30.8804 34.1908 45.3451
29.845 33.9033 45.3034
31.1723 35.0012 46.5851
30.6005 33.8996 45.1966
30.6261 35.1153 47.4114
30.761 35.0584 46.4148
28.7305 33.2123 45.0754
28.9721 33.7348 46.0999
29.3799 33.821 45.7471
30.0162 34.7615 47.1461
29.8899 34.6944 47.2164
30.18 35.1128 48.2102
29.5685 35.0506 48.4957
30.0067 34.926 47.9368
28.5204 33.9273 47.4422
28.8676 33.356 45.7844
29.0065 34.3327 47.3882
28.771 34.306 48.8694
29.9614 34.7813 48.1455
28.5314 33.98 48.1604
29.4701 34.3977 47.6886
28.5233 34.3806 48.521
28.9964 35.2448 50.1857
28.8739 35.0061 49.8691
29.1542 35.1042 49.4453
28.8588 35.7524 50.9982
27.6857 33.8328 48.2866
28.1217 34.0843 48.4107
26.6512 32.5453 47.4289
27.9626 34.07 48.8719
27.177 34.1141 49.2079
27.443 34.2855 49.2205
26.7003 32.8653 48.1597
27.445 34.1838 49.9976
27.3461 34.1612 49.6714
27.3362 34.1666 50.2958
28.2103 36.2072 53.1475
25.9252 33.4264 49.8069
27.2486 34.254 50.613
26.9312 33.6056 49.1958
26.1814 34.0348 51.629
26.3872 33.1248 49.9938
26.6737 33.8338 50.578
26.7162 33.5505 49.6416
25.7793 33.2137 50.7274
26.3284 33.9919 51.9169
27.1723 34.9136 52.0514
25.945 34.0592 52.2037
25.7039 32.7017 49.8226
26.4315 34.5228 51.3263
25.2023 33.0676 51.8549
26.2039 33.3191 50.6834
26.1922 34.6948 54.1341
26.6037 34.0161 51.2378
24.7373 33.7923 53.4868
25.5114 33.4521 52.0994
26.2947 34.2765 53.2271
25.4384 34.2293 53.4238
24.7501 32.6865 51.7685
24.9425 32.5975 51.9735
25.9524 34.2475 52.6457
24.289 32.7602 52.1307
25.816 34.4238 54.17
24.3094 33.2687 52.8001
24.9491 33.5311 52.5723
24.7265 33.1812 53.6447
24.8426 32.9992 51.7517
24.0796 32.8218 53.6964
24.124 33.1866 54.5709
24.1045 32.885 53.676
24.3654 32.9979 53.0411
24.5752 34.0195 54.0312
23.5075 32.3801 52.9853
23.1345 31.1177 50.2979
22.8658 31.3826 52.2696
23.4032 31.9197 51.1759
23.4018 32.9367 54.6332
22.737 31.2719 51.5347
23.1833 32.3335 53.2812
23.4312 33.3116 55.4138
23.3329 31.9641 52.712
22.3888 31.7168 53.8239
23.3364 32.7988 54.3619
22.6444 32.5051 54.4805
23.2859 32.4761 54.5043
23.1287 33.5559 56.9369
23.5142 32.4387 53.8796
22.6735 32.5649 55.6416
23.1475 32.5968 55.2276
23.3472 33.2757 55.9447
22.2325 31.6996 53.7827
22.4926 33.2645 57.3672
22.115 31.3184 54.4473
22.7161 32.0472 53.671
22.1479 32.5316 54.7806
22.0159 31.9488 55.4452
21.8443 33.174 58.3043
22.5012 31.7462 54.8429
21.9869 33.2196 59.1217
22.7193 33.3315 56.9299
21.3246 32.0685 56.6697
22.4274 32.7232 57.7438
21.6401 31.3522 54.9186
21.6279 32.3075 57.6879
22.6134 33.2055 57.5443
21.389 31.9895 57.2914
22.2316 32.3787 57.5211
21.8305 32.3331 56.963
21.0646 32.1687 57.7833
20.806 30.7765 56.498
25.5834 41.4076 72.5346
22.199 31.7411 56.7232
21.6709 32.1442 57.1033
20.5954 31.5204 57.1648
20.9866 32.459 58.6083
21.1414 32.1108 57.1336
20.0804 29.9821 55.3119
21.0455 32.0176 58.7527
20.7166 31.0319 55.4741
20.7993 31.8375 58.4663
20.5078 31.0928 55.8516
20.0147 32.2175 59.2613
19.9907 30.764 56.089
19.3867 31.2609 58.5511
20.1629 31.0535 57.5274
20.5393 31.3651 57.6486
20.233 31.5956 60.0346
20.421 31.2708 58.4421
20.2948 31.9216 58.5036
20.2411 31.6676 59.5136
20.2124 31.053 58.3982
19.4056 31.2832 59.8977
19.8466 31.7403 59.8176
19.9971 32.1727 60.4178
19.7918 30.6996 57.8117
19.2304 30.5694 59.6451
20.0883 31.0524 59.258
20.6252 32.7381 60.2712
19.3538 30.9669 59.7122
18.7637 30.2124 57.8888
18.8688 30.5328 59.7719
19.4478 31.1707 60.0921
19.6581 31.8788 61.6718
19.7834 31.7547 61.3743
19.4769 29.9759 57.8217
19.1577 31.6951 62.0513
19.8189 32.081 60.5561
18.8276 30.5473 58.8549
18.101 30.3627 61.7397
19.7699 32.1913 62.6083
18.488 30.9426 61.8293
19.162 31.7024 62.5702
18.9674 30.1688 58.6112
18.6557 31.0045 60.8167
18.7901 31.0715 61.0433
18.6772 31.7036 63.9469
19.4402 31.0774 60.9876
18.2821 31.1587 62.032
18.2723 30.608 61.8118
18.4288 31.5806 63.9084
18.66 30.845 61.3136
18.4136 32.1813 63.9936
18.2408 29.8055 60.543
17.9382 29.9484 59.9218
17.6314 30.523 63.0491
18.2091 30.3193 61.6756
18.6109 31.1992 61.5954
17.0979 29.0425 59.9811
17.6708 30.822 63.3459
18.3457 30.4767 62.1699
18.1771 31.2315 61.4784
17.0134 29.8158 62.5067
17.0833 30.6634 64.1721
17.9285 29.0425 59.5462
17.109 30.1118 63.0443
17.5341 31.1487 65.3388
18.1779 30.6939 63.1684
16.8736 28.623 59.6397
17.0476 30.0518 62.9609
17.6313 31.4202 65.8163
17.4936 29.8162 61.7715
17.3046 30.4753 64.1086
17.2138 29.9501 62.3519
17.0984 30.1397 64.2801
17.2198 30.2299 63.4194
16.9814 29.9099 64.6292
17.6198 30.2175 63.5828
17.0004 29.5994 62.8546
16.7758 28.4972 60.621
16.8695 30.2449 64.2511
16.9322 30.063 64.5271
16.722 30.2338 63.7901
16.2048 28.8726 63.7951
17.2713 29.9785 62.5232
16.2084 28.6491 62.0175
16.3298 29.2936 62.6086
16.3701 29.7704 65.2374
16.4813 28.5371 62.0629
16.1035 28.7941 62.6655
16.0724 28.9037 64.0585
17.4708 31.1032 65.8601
15.7654 28.2838 61.9499
15.9427 29.6652 66.5411
16.1081 28.0751 61.5146
16.143 29.2333 64.0602
16.1135 28.821 63.0289
16.0231 29.4046 64.062
16.2555 30.106 65.3447
15.8974 29.5564 66.7217
16.0785 29.0982 64.2129
15.8255 28.9118 64.2865
15.9673 29.7911 67.4092
15.9593 29.7761 66.0675
15.8149 28.6887 65.538
15.5057 28.0305 62.7816
15.1518 28.4688 63.9936
15.2655 29.1591 65.619
14.8994 27.7505 63.0683
15.1128 28.1011 64.0307
15.1665 28.0362 63.9021
15.409 28.3453 64.6175
15.7682 28.5347 64.1449
15.5183 29.2653 65.9705
14.9469 27.8894 63.553
15.5448 29.5959 67.2777
14.9754 27.961 64.4893
15.1685 28.5732 65.985
15.7274 29.4895 66.2321
15.4407 28.945 65.5071
14.7181 28.6898 66.889
15.0968 28.7639 66.1028
14.97 28.8618 66.8835
14.9029 28.8659 68.1236
15.214 29.5198 69.7539
15.1773 28.6633 67.1073
15.1022 28.7233 66.5592
15.601 30.4599 68.9733
15.1062 28.0806 66.6021
14.9026 28.8536 67.0594
14.6909 27.316 64.0876
14.6345 29.5404 69.9325
14.6591 28.0966 66.3004
14.5998 28.5066 65.6076
14.4681 28.2416 66.6687
14.4987 28.6489 68.0063
14.2071 27.6099 68.1391
14.9498 28.7841 66.5522
14.4476 28.4595 67.1678
13.54 26.9349 66.4823
14.2676 27.4999 65.7498
14.3483 28.3983 67.4382
14.1467 27.951 67.1285
14.2649 28.5989 70.2285
14.5591 27.9617 67.3656
14.0932 27.8683 66.4338
14.0786 28.4711 68.2776
14.2358 27.581 67.7232
14.7183 29.1979 69.6929
13.4463 27.5692 70
14.8045 28.7001 68.2297
13.81 26.8435 66.5129
14.044 28.187 67.8373
13.3741 26.4699 65.3759
13.8798 28.0142 68.312
14.2027 29.3226 71.5152
13.8026 26.5425 66.3864
13.866 27.2915 66.8852
13.8122 27.476 66.8532
13.5621 27.9614 70.6734
13.8711 28.298 69.9249
14.16 28.9112 71.0419
13.7854 27.6462 70.466
14.1337 29.2493 70.1937
13.4596 26.6849 66.8761
13.1963 27.242 68.9129
13.4667 26.7615 67.1094
13.6379 28.823 72.0752
13.6836 27.5989 69.5242
13.4226 27.2168 69.5254
13.8179 27.9023 68.4886
12.9625 27.3106 68.794
12.9097 26.8028 68.4437
12.8737 26.9974 67.2834
12.8465 27.4191 72.8868
13.7125 27.8841 70.917
13.6222 28.0975 71.5307
13.2747 27.3174 68.9038
13.081 27.4749 69.0638
13.3422 27.7692 70.9578
13.18 27.6596 70.4217
12.8315 27.1516 70.1306
12.6314 27.4954 71.2695
13.1454 27.1956 69.6934
12.9605 27.7912 72.2465
13.3381 28.0335 71.7469
12.915 27.5598 71.9485
13.1559 27.724 72.1735
13.2799 27.5293 71.2096
13.257 28.1297 72.6132
13.1218 27.7627 74.1729
13.1648 27.7089 72.4739
13.0848 27.9189 71.6087
12.8193 26.8774 70.6851
12.8437 27.5632 74.7499
13.4293 28.7499 72.5415
12.9015 28.0222 73.1338
12.7377 27.7405 71.4947
12.2608 25.9049 70.4746
12.8443 27.0941 70.7993
12.4946 27.1334 71.6717
12.3761 26.6765 73.2447
13.2429 28.4081 72.239
12.303 26.2262 72.1201
12.6651 27.2364 72.0612
12.6289 26.9739 70.7016
12.4199 27.3939 72.0517
11.938 25.6638 70.3069
12.2478 26.7751 72.0314
12.2204 25.4376 68.5521
12.257 27.1336 72.9381
12.1938 25.9842 71.1981
12.3572 26.9672 72.2999
12.1589 26.6349 70.9723
12.1604 26.2996 72.9209
12.0487 26.1741 70.6078
11.832 26.1281 71.6377
12.2113 26.1892 69.8335
11.7106 25.9664 70.1396
11.7064 24.8991 67.8976
11.2934 25.136 70.4779
12.0275 25.8084 69.2177
11.7633 25.7937 70.0308
11.9076 26.3449 73.0715
12.0034 26.902 73.0853
11.8425 25.6193 68.591
11.5922 26.0109 71.4149
11.8282 26.4796 74.1055
11.8532 26.6134 73.5147
12.2344 26.7123 73.5337
12.1948 26.837 72.1864
11.0341 25.1629 71.0769
11.3694 25.3445 70.4697
11.5029 25.9505 72.951
11.6127 26.0092 69.1391
11.1156 25.0909 70.2123
11.3363 25.1328 71.64
11.7719 26.8311 74.1114
11.1115 24.7977 70.7078
11.5696 25.9637 70.2787
11.0829 25.3217 72.4887
11.9198 26.6674 75.6419
11.4219 25.9031 73.4249
11.3666 25.6696 73.2568
11.5643 25.7847 73.5909
11.7522 25.8293 71.2958
11.0559 25.4999 72.8219
11.2463 25.0439 71.6169
11.3383 25.4302 71.0407
11.3789 25.3289 71.5955
11.0363 24.1333 69.3785
10.6988 25.2161 71.2731
10.8183 24.8712 72.6362
11.6144 26.0398 72.5255
11.2833 25.4517 72.8865
10.9492 24.8408 70.2097
10.5501 24.3591 72.5455
11.0264 25.6055 73.3126
10.9551 25.2982 72.8572
11.0078 25.842 74.1467
10.8621 24.9593 72.262
10.8042 25.2452 71.7602
11.1245 25.9656 75.5171
11.292 25.0852 71.3938
10.7094 25.3858 72.9745
10.498 24.7146 73.1865
11.1593 26.8274 77.3903
10.6725 24.5801 70.3598
10.2451 24.7899 74.8844
10.8027 25.6217 74.3158
10.6017 25.3772 75.6178
11.2738 25.6527 73.2892
10.7467 24.6542 72.8511
10.5381 25.5499 73.2062
10.1899 24.4212 71.4518
10.3472 24.3091 73.0451
10.6061 24.9651 73.0037
10.3884 24.6928 72.2528
10.4793 24.6257 73.9825
10.7053 25.8767 76.1665
10.5201 25.0956 74.5723
10.6817 24.5306 73.256
10.5539 24.6049 72.1595
10.7487 25.9239 76.4232
10.718 25.403 74.6001
10.4493 25.3123 75.0148
10.2574 24.2303 74.7918
10.6255 25.3219 74.0889
10.5156 25.5753 77.3117
10.619 24.7603 73.7653
10.397 24.7635 74.7617
10.1488 24.0785 73.4521
10.3386 24.3372 74.7386
10.3422 25.0534 73.1876
10.2716 24.5962 72.4925
9.95838 24.198 74.9021
10.2267 24.7882 76.1016
10.4897 24.7824 74.5434
10.7382 25.5702 76.2504
10.6803 25.3148 74.0591
9.74193 23.5059 73.5307
10.067 23.812 71.5677
9.93947 23.6952 73.4732
9.85911 23.2179 71.2922
9.84483 23.8683 72.2264
9.579 24.0419 72.2142
9.71749 24.3146 74.8354
9.82308 24.2124 76.5525
10.4176 24.18 71.8169
9.76681 24.3226 77.184
10.19 24.7437 75.7955
10.0367 23.5914 71.1604
9.63514 24.4163 74.7445
9.79335 23.7223 73.9075
9.82299 24.0604 76.7334
10.2263 24.463 74.6995
9.94635 23.8264 74.2282
10.0176 24.5706 73.9102
9.56997 24.4852 76.4964
9.72518 23.8879 75.4746
10.0854 25.1407 78.1895
9.83114 24.519 76.7078
9.92824 23.7389 73.924
9.74119 24.0435 75.9148
9.77782 24.263 76.4216
9.91535 24.0397 73.1912
9.46553 23.5897 74.9364
9.71235 24.369 76.6555
9.96948 23.5279 72.2519
9.42923 24.2373 75.7813
9.66025 23.4064 72.239
9.25674 23.8581 74.0442
9.28035 22.5868 74.3295
9.73639 23.8474 74.2881
9.52637 24.1893 75.5609
9.41845 23.7623 75.0006
9.37295 23.078 74.9947
9.79824 23.4491 72.2693
8.99943 23.5887 75.2414
9.55001 24.4398 77.5131
9.59185 23.9403 77.7292
9.80983 23.7359 74.3566
9.02308 23.0056 74.1551
9.27629 23.6209 74.2072
9.3386 23.7753 76.8281
9.45718 24.7612 80.2723
9.81781 23.4278 75.4873
9.50912 23.7232 73.9853
9.19628 23.5832 75.0221
9.30088 23.3 73.8996
8.98374 23.1468 75.683
9.32377 23.685 74.1066
8.93387 23.3356 76.3217
9.15998 22.9401 73.9773
8.99407 23.1083 75.5938
9.17822 22.5595 71.234
8.63489 22.3719 76.0779
9.35834 23.007 74.0673
9.186 23.2851 76.5803
9.15684 22.5051 73.1942
9.08868 23.5085 74.8992
9.11344 23.9639 80.1729
9.55124 23.3307 75.5906
9.24237 23.707 75.9458
8.84756 22.3582 73.6423
8.7975 23.1954 73.9348
9.01504 24.0873 77.2143
9.01117 23.521 78.7745
9.25285 23.3538 76.2996
8.81902 23.1135 77.3962
9.13232 23.2416 75.8517
8.91153 22.7675 76.3758
9.03359 22.9667 73.4541
8.80816 22.5162 74.6961
8.86877 23.6728 76.6528
8.72428 22.7275 76.8174
8.63272 22.5174 74.9932
8.91102 23.0459 74.3558
8.70642 22.5002 76.1739
8.85865 23.9235 77.3757
8.78921 22.6136 78.4689
9.32896 23.9596 78.516
8.88564 23.6339 76.7347
8.84007 22.4516 75.4273
8.83323 22.7085 77.2573
9.03623 22.6818 76.5856
8.86335 23.6015 76.0864
8.83472 22.8958 76.4038
8.58763 22.7669 73.6847
8.3133 22.2224 74.9736
8.43811 22.4699 77.0011
8.63459 21.9475 75.7428
8.54745 22.8908 80.0375
9.08483 22.7506 74.9408
8.62887 23.1953 76.0608
8.3596 22.174 74.5145
8.56649 22.9267 77.1317
8.98708 23.8381 80.1387
8.85303 22.3073 73.9245
8.29078 22.0162 76.1824
8.63952 22.7659 77.6677
8.5977 23.0334 77.2016
8.53537 22.9082 76.6125
8.30564 22.596 74.6198
8.32172 21.8943 74.38
8.29056 22.7767 78.4678
8.51816 22.0358 73.9115
8.06989 21.9314 76.2527
8.48811 22.0503 73.8442
8.20959 21.3549 73.9179
8.17127 22.163 78.7297
8.72934 22.8657 76.2751
8.55829 23.1208 75.5523
8.27557 22.475 81.0313
8.80578 23.12 77.6001
8.3587 22.2937 75.9411
8.30446 23.1622 79.5784
8.53942 22.7013 76.941
8.44603 21.947 77.3732
8.59427 22.5936 79.399
8.54148 23.0607 74.8933
7.9992 22.0286 78.2074
8.47281 22.4006 78.2585
8.60937 22.783 74.9495
7.93725 21.8896 75.7878
8.14868 22.2369 76.8733
8.12449 22.4154 77.1482
8.18961 21.4763 75.8743
8.15594 21.9407 76.184
8.27582 21.3272 76.3581
8.26556 21.7252 72.7763
7.82744 21.8505 76.9507
8.18252 21.65 77.4367
8.21937 22.7159 77.9659
8.19543 22.6958 76.359
8.02804 21.3518 75.7601
8.16852 22.2842 75.9333
7.80448 21.1454 73.6808
7.93178 22.0629 79.0767
8.27935 21.9893 78.4003
8.30316 22.4796 76.3383
7.86969 21.8207 76.5462
8.16627 22.213 75.9231
7.88824 20.9458 76.5172
8.00236 21.5372 75.9567
8.10775 22.1168 78.4093
7.9639 21.0724 75.2334
7.969 21.1379 74.244
7.93244 21.4564 76.1507
8.15757 21.37 73.6887
7.83479 21.3473 76.1376
8.11097 21.6964 77.2891
8.05178 21.9737 75.6607
8.07829 21.6745 76.2095
7.85288 21.7328 79.6481
8.11056 21.6393 76.8939
7.99885 21.8482 79.0293
8.14373 21.4831 74.5164
7.76446 22.6595 80.6068
7.92312 21.9244 77.3361
8.05338 21.9265 75.2715
7.72022 20.8594 75.6071
7.84666 21.5873 77.3577
7.69401 21.6278 77.4447
7.6978 21.5792 77.8975
7.96307 21.5142 78.6218
8.15644 22.4146 78.454
7.92809 21.4053 77.2722
7.86611 21.3391 77.215
7.91485 21.9086 78.0408
7.91302 22.267 76.5317
7.60721 21.2156 78.4637
7.83793 22.0865 79.0687
7.98846 21.6287 76.4295
7.69351 22.0142 79.2888
8.08509 22.2465 82.6526
8.24884 22.5613 81.832
8.0062 21.6674 76.3119
7.75913 22.1218 79.1542
7.85545 22.1953 81.3732
8.22057 21.5321 76.4812
7.82687 22.3258 82.3488
8.03562 22.3808 83.0524
8.26938 23.2245 81.6425
7.94002 22.0338 78.5249
7.68689 21.1985 76.0146
7.58942 20.9585 77.6617
7.70502 21.4639 79.8517
7.77725 21.3871 75.7669
7.5909 21.8569 76.8443
7.53309 21.2821 77.5965
7.52658 21.6039 77.1897
7.44918 20.9841 78.0693
7.5234 19.972 75.2454
7.64675 21.1284 76.3729
7.4965 21.6855 77.0461
7.45419 21.2588 79.3179
7.79697 21.0967 77.2074
7.60462 21.1896 76.1979
7.6097 22.456 82.6422
7.93701 20.7768 75.851
7.5164 21.244 77.9658
7.76233 21.5102 79.544
7.85401 21.662 79.2939
7.76049 21.4982 76.1437
7.41519 22.0482 81.0971
7.51879 20.746 75.8509
7.19715 20.283 76.8593
7.45272 21.3485 77.0425
7.50428 21.0468 76.9926
7.42542 21.538 79.8114
7.65063 21.1484 77.738
7.65819 20.9544 74.3286
7.30012 20.9887 76.4488
7.42168 21.8692 80.814
7.33724 20.348 78.4846
7.61615 21.1801 77.2223
7.32325 20.7902 78.6939
7.53647 20.7211 78.1856
7.57667 22.0093 78.8532
7.45697 20.8628 78.8668
7.54206 21.1418 78.8025
7.41045 20.7374 76.4636
7.37499 20.9518 77.9835
7.37954 20.5333 77.2383
7.46361 21.1915 77.3655
7.25221 20.3027 77.3211
7.53364 20.8233 75.0501
7.07283 20.0101 79.5269
7.58128 20.5642 73.5485
7.10809 20.5318 74.8275
7.15442 20.8674 79.7828
7.50324 21.0792 77.8413
7.40801 21.0262 75.8596
7.06853 20.1739 76.4874
7.22574 20.07 79.5019
7.45952 20.8168 76.1781
7.16798 20.8005 76.2205
7.04293 19.9529 77.197
7.31857 21.1095 75.953
7.12349 20.376 77.9535
7.26337 20.3257 76.5965
7.14731 20.6091 77.0464
7.1951 21.2722 75.9854
6.78808 19.8424 75.3467
7.14878 20.8174 78.7536
7.3929 21.8755 76.5418
7.16351 20.8049 82.3714
7.57818 20.8241 78.3802
7.20137 20.7084 79.3751
7.37427 20.1417 76.5734
7.08543 20.2885 76.7936
7.16075 20.5059 76.6437
7.08526 21.1881 78.829
7.24328 19.4814 75.3086
7.1503 20.4221 74.4829
6.90782 20.3565 78.4142
7.25775 20.1223 77.7365
7.12332 21.1985 77.6931
7.04974 19.9548 75.7429
7.0382 19.6252 74.6062
6.91028 19.8203 75.8555
6.96943 20.4762 78.6277
7.30954 21.1291 78.3213
6.98565 19.7887 74.1614
6.9448 20.3616 76.559
6.85817 19.9906 76.9824
7.16424 19.215 72.27
6.88065 19.4025 76.9209
7.13925 20.5399 79.6411
7.19784 20.4327 76.2051
6.76425 20.3502 77.8069
7.11436 20.1735 75.4525
6.7982 20.4528 82.026
7.27311 20.7428 77.5064
7.13265 20.5607 77.7556
6.97355 19.6481 75.5903
6.77236 19.7119 75.9941
6.90717 20.1689 76.7513
6.97464 20.1227 76.254
6.91661 19.482 75.1633
6.98637 20.475 77.5726
6.96734 19.9534 78.2873
7.02775 21.0078 78.7207
6.99528 20.5446 78.1832
6.93693 19.7187 76.5084
6.89721 19.8895 76.4761
6.99677 20.1891 78.0096
7.15282 20.786 79.3887
7.06375 20.0738 77.5294
6.96877 19.9532 76.0262
6.87914 19.8554 75.9333
6.90139 20.5409 78.1171
6.8803 20.4256 76.0914
6.92471 20.2158 78.909
7.04113 20.5302 78.2884
6.91295 19.8703 77.423
6.8052 19.989 79.0912
6.8983 19.6859 74.7863
6.83439 20.3547 75.9475
6.79928 19.5517 75.4992
6.66196 19.8691 77.6723
7.05227 20.1251 77.8172
6.89324 20.1509 76.3257
6.88393 19.9257 79.0943
6.96904 19.9036 77.8773
6.99363 19.9924 77.9157
6.89741 19.3249 74.8206
6.63096 19.6634 76.1314
6.773 20.2659 76.4127
6.8156 20.019 76.2429
6.79823 19.9089 81.2044
7.13493 20.6904 79.4252
6.9377 20.0777 78.217
6.77512 20.8161 78.8843
6.93064 20.6429 79.9383
6.88574 19.7702 76.0793
6.66283 19.456 78.2466
6.80919 20.4504 77.7945
6.68038 20.0894 77.5494
6.76666 20.0657 78.1023
6.79765 20.6306 79.1286
6.78934 19.1044 73.8914
6.48429 19.7891 77.5961
6.82169 20.6445 77.5616
6.70312 18.4976 73.3086
6.41989 19.4109 77.1893
6.90906 19.6341 77.8511
6.82616 19.3888 75.8944
6.58286 19.9201 78.8341
6.81456 20.3949 76.7992
6.65173 19.078 78.2334
6.66156 20.0534 75.3556
6.5531 19.5066 76.0094
6.7812 20.0125 80.0573
7.15924 19.2114 74.6192
6.78737 20.5481 76.8986
6.70535 19.5843 75.6134
6.50949 18.6774 78.5304
6.90091 20.0756 76.7323
6.7172 19.4979 76.8781
6.71092 19.977 80.6323
6.76212 20.2428 74.7133
6.45488 18.8886 76.5118
6.56067 19.8079 77.4301
6.62553 19.9133 78.1525
6.6942 19.5618 77.5171
6.84038 19.7976 76.2304
6.63569 20.0256 78.0907
6.62342 20.0535 76.0127
6.47175 19.2628 77.9114
6.77516 19.3062 77.9216
6.96765 20.1642 77.3344
6.6229 20.2443 77.9918
6.89373 19.4905 78.1148
6.92408 19.6159 75.8945
6.56474 19.7514 78.0459
6.64771 19.4012 75.3179
6.63227 19.6718 77.9227
6.80834 19.6368 78.5257
6.89407 20.181 77.5415
6.64618 19.3612 79.551
6.8638 19.5882 77.4092
6.6887 20.1466 78.3985
6.6616 19.2474 76.6514
6.57759 19.7343 77.0116
6.55639 19.1381 77.3529
6.63071 20.6702 81.3544
7.02052 19.8673 77.3086
6.63519 19.9818 77.5341
6.60756 20.3207 78.9181
6.80283 19.8316 77.5999
6.84423 19.1785 76.8201
6.54286 19.9864 79.0526
6.54981 19.7238 76.9598
6.79368 20.2229 78.4136
6.64828 19.7698 78.0631
6.66877 19.8324 78.5881
6.5902 18.8713 77.0246
6.72463 20.2462 80.5284
6.64149 20.5739 81.6464
6.88404 19.9349 76.6199
6.64682 19.8421 79.5113
6.74964 20.127 81.616
6.93723 20.2568 76.1572
6.4013 19.8171 77.4454
6.72604 19.2707 78.1205
6.70324 19.7235 80.7057
6.91177 19.4763 78.4645
6.59078 20.351 78.2936
6.53732 18.9503 77.9995
6.71916 19.8055 77.0082
6.61845 18.8938 75.8097
6.39368 19.5524 77.6881
6.49557 19.4151 80.0334
6.78802 20.4718 76.5395
6.41864 19.1178 78.5333
6.67566 19.7931 75.7885
6.52997 19.7255 79.011
6.59366 19.4541 75.3485
6.40237 19.3058 78.6759
6.56742 19.878 77.914
6.55787 19.8841 78.3375
6.7749 19.5521 77.5317
6.63626 19.1301 77.3707
6.59792 19.7607 78.9173
6.58378 19.296 77.6056
6.36827 19.0481 73.6969
6.30391 19.3698 77.4894
6.67586 19.8079 79.664
6.71108 19.3803 78.5187
6.64833 19.1807 76.5348
6.42677 20.1887 79.0768
6.61566 19.6159 77.2695
6.5618 19.2582 76.4073
6.61219 19.762 78.1612
6.56518 18.8841 74.8155
6.38116 19.7013 80.0425
6.57425 19.9076 76.6399
6.43376 18.9773 79.58
6.59861 20.5457 80.38
6.78581 20.3003 79.1551
6.52031 19.1955 77.0395
6.44638 19.1404 76.7332
6.44762 20.1978 82.6126
6.78082 20.3398 76.8197
6.36685 19.0081 78.6034
6.5806 19.8593 77.4019
6.57117 18.8747 77.9636
6.40324 18.9876 75.6142
6.32146 19.7371 78.1922
6.63281 19.3358 77.8625
6.4891 20.0326 74.7271
6.345 19.3722 80.8023
6.59303 19.3739 77.2576
6.45633 19.3454 80.7949
6.87797 19.85 74.9194
6.42757 19.3431 79.7189
6.63604 19.2707 76.2832
6.32467 19.5393 79.5118
6.73418 19.333 75.1093
6.43881 19.5915 78.9927
6.60647 19.903 79.3205
6.46209 19.7322 79.1554
6.73105 20.2771 80.354
6.90523 19.6862 78.414
6.4621 20.6625 80.6462
6.73693 19.4526 74.3462
6.45482 18.8666 77.2088
6.62232 19.6239 76.6092
6.31879 19.5292 78.6939
6.70259 19.8552 78.4435
6.47137 19.685 76.2876
6.32947 19.5679 78.32
6.6438 19.3016 80.5634
6.61225 19.5727 78.4273
6.61745 19.1828 75.8429
6.51186 20.205 81.2153
6.63946 20.2985 80.7587
6.69589 20.1037 78.5357
6.47308 20.3004 81.3009
6.89141 19.8932 76.4996
6.38226 18.925 82.5788
6.88963 20.2756 78.3204
6.61376 19.8788 81.459
6.81282 20.7236 82.2817
6.74773 20.5922 81.3914
6.76512 20.9535 84.2998
7.09517 20.8176 79.8865
6.74056 0 0