# pn-170911/RbIIR-54-KOKB-1280-1959.psd
# Power spectrum* (dif=0,1,2) (really just |FT|^2)
# NOTE: only the first half! (symmetric)
# weeks: 1280-1959
# 7 clock-days, 0 excluded
# PSD: 1441
564.063 0.10797 0.0537529
17177.3 0.157303 0.0176824
162889 3.44489 0.0190349
7578.53 0.184253 0.0175428
40578.9 2.50421 0.0185901
3830.73 0.327155 0.017372
5208.53 1.06386 0.0190707
1916.89 0.472891 0.0191649
4006.69 1.21027 0.0162756
1539.06 0.637912 0.0165542
3198.94 1.22317 0.0168019
1117.07 0.514011 0.0204574
568.281 0.355199 0.0187041
2266.35 1.8735 0.0232619
1358.56 1.03248 0.0233025
482.505 0.627798 0.0221898
742.408 0.792822 0.0212334
692.417 1.02784 0.0144875
1487.32 2.43535 0.0289769
658.292 0.877936 0.0187561
496.183 0.888944 0.0171934
1464.46 2.85796 0.0300405
779.999 1.86274 0.0202846
467.938 1.02769 0.0168428
844.304 2.4103 0.0331213
770.717 1.78337 0.0195891
916.151 3.05425 0.0364845
1003.57 3.56957 0.0476204
784.861 2.72482 0.0379261
557.576 2.45811 0.0272192
624.969 2.4621 0.023821
453.616 1.90535 0.0377015
545.783 2.91251 0.0357455
650.385 3.3247 0.0365715
198.139 1.01029 0.0194071
797.686 4.31029 0.0211963
520.49 3.41669 0.0305827
1473.62 9.78256 0.103976
815.144 6.01735 0.0711132
643.485 4.41624 0.0559625
1343.72 10.2277 0.0874167
423.414 3.52633 0.0475799
667.22 5.78686 0.0715732
1117.58 9.39121 0.0620801
1124.98 10.8613 0.138715
762.906 7.53204 0.086505
738.787 8.02169 0.0880406
414.061 4.83475 0.0697781
972.488 9.61553 0.144584
530.732 6.01171 0.109257
1010.21 12.6452 0.180733
657.496 8.98434 0.113887
769.481 8.84584 0.14094
525.631 6.85908 0.11105
859.581 11.636 0.186361
849.617 12.0017 0.218011
784.084 11.9998 0.152923
541.789 7.82766 0.0945468
687.777 11.2648 0.233455
1133.45 18.1602 0.282978
707.267 12.7086 0.244139
395.248 6.10893 0.118886
739.512 14.4357 0.282602
735.308 14.449 0.295128
982.321 19.4763 0.418836
398.929 8.13267 0.185613
647.819 13.8679 0.343968
110.048 2.41159 0.0607331
465.043 9.65244 0.205441
1177.07 25.4247 0.60259
662.271 16.3124 0.508614
530.387 11.8501 0.273617
226.375 6.09041 0.178773
375.412 10.4839 0.28424
411.024 10.6718 0.282087
698.17 19.3876 0.600096
381.823 10.9156 0.284607
454.965 11.758 0.376868
534.239 17.2323 0.510153
740.234 22.8789 0.706563
410.202 11.6248 0.302233
228.186 6.92349 0.248857
598.907 16.1627 0.502964
898.504 26.9817 0.878627
1089.66 37.2473 1.20578
924.186 33.3165 1.34693
577.507 19.2965 0.570112
417.32 14.4968 0.57194
934.374 33.1311 1.06247
567.248 20.8233 0.855598
341.861 13.3699 0.602418
877.446 35.8227 1.4403
399.293 15.2997 0.659423
575.441 25.577 1.09274
424.366 16.2509 0.672469
762.438 32.8098 1.48087
529.167 22.9288 1.02227
404.208 17.49 0.744765
843.667 39.4489 1.904
764.337 38.089 1.80452
535.062 23.0353 0.927294
311.26 15.1401 0.821209
490.087 25.6604 1.46825
407.802 20.5904 1.07666
234.881 11.3337 0.529433
757.83 41.4295 2.34035
279.189 15.6663 0.793165
552.922 28.898 1.62642
311.146 16.692 0.996617
567.359 29.8865 1.66717
413.359 22.9138 1.35338
455.767 26.2893 1.35138
225.52 14.6693 0.948064
521.988 29.8685 1.78263
319.728 19.4938 1.2989
372.51 24.813 1.65314
232.517 14.6414 0.788321
306.495 19.2354 1.18685
420.64 27.0507 1.72853
245.545 16.0256 1.08536
567.321 37.9972 2.62488
258.993 18.0902 1.27171
298.301 20.8814 1.51163
812.693 57.3528 4.2084
462.188 34.8778 2.68766
627.093 51.7773 4.4047
536.176 36.7541 2.43624
237.519 16.0542 1.20532
556.83 43.3522 3.2797
492.088 37.2296 2.99569
272.556 23.1985 1.94956
137.102 10.6363 0.863369
165.836 14.799 1.30357
467.052 38.6368 3.39382
333.46 27.151 2.13179
389.88 32.6677 2.88814
432.869 36.4099 3.15565
296.714 26.044 2.43115
244.731 22.7334 2.08738
487.908 41.9319 3.48426
343.072 33.0767 3.27356
458.645 42.7361 3.87543
354.927 33.9107 3.20628
530.683 53.2488 5.30302
434.777 44.1119 4.30758
314.149 36.8832 4.0632
140.923 17.3832 2.15718
482.268 45.2839 4.37865
356.957 36.5534 4.06977
220.168 23.5717 2.6776
390.999 40.1907 4.09224
236 24.1258 2.63625
330.193 35.9855 3.91945
583.395 60.343 6.12673
222.948 24.9066 2.82009
252.04 29.2625 3.35219
212.258 23.9752 2.92681
246.607 27.9639 3.42876
359.862 45.3888 5.73391
320.747 34.6145 3.88011
297.266 34.9565 4.05856
214.574 25.8917 2.92196
137.697 16.5912 2.05831
197.853 27.0996 3.57056
113.224 13.7007 1.63726
314.792 43.1334 5.99539
242.618 26.1206 2.75542
331.727 44.4209 6.06011
199.153 27.2084 3.56731
195.857 25.9965 3.39322
180.456 24.6608 3.59434
361.278 51.7516 6.83523
96.3584 14.7287 2.46064
333.122 47.9613 7.15839
112.556 12.6415 1.53911
543.009 77.0051 10.788
365.15 58.1252 8.67101
158.607 23.7473 3.5885
328.995 46.609 6.3423
197.166 27.4691 3.98747
232.29 35.8535 5.5124
141.183 19.9377 2.86685
365.54 57.6523 9.07997
173.143 28.8761 4.92133
151.481 25.2542 3.96658
163.61 27.7706 5.02294
228.515 33.8328 5.1903
245.179 42.3908 7.35861
177.843 29.7035 4.76531
195.415 29.4053 4.47597
87.5164 17.2884 3.67433
330.896 55.898 9.46032
269.08 45.2003 7.68484
280.176 45.6337 7.16779
222.18 40.2084 7.28777
150.116 27.0319 4.38046
98.589 20.3973 3.95724
152.883 29.9825 6.07597
245.027 42.5803 7.59334
232.138 41.2153 6.911
146.78 31.1522 6.50594
129.946 26.3293 5.65075
233.855 42.4841 7.42914
226.554 42.5805 7.89854
128.518 23.1928 4.04942
197.501 41.2584 8.26435
154.271 30.692 5.72258
181.539 39.1593 8.39565
69.4266 16.186 3.85346
177.925 35.8563 7.14888
149.438 29.1856 5.74984
138.654 29.633 5.94778
194.138 40.9417 8.18343
143.204 31.727 6.66072
132.563 31.3513 7.27062
186.998 39.4989 8.47561
151.005 38.6143 10.0358
215.108 43.6944 8.8268
179.562 37.524 7.85714
75.7778 18.3032 4.24181
77.5024 18.9493 4.82999
138.12 30.8769 6.98322
250.601 55.3775 12.2412
141.646 30.5471 6.86791
115.857 27.4877 6.50614
187.208 49.8898 12.8152
89.4834 21.2077 5.15704
141.214 34.1214 8.56208
195.224 58.0898 17.5503
367.588 74.4057 14.297
91.8929 25.9599 6.85385
204.255 50.0875 11.8582
75.4126 19.3798 5.07017
37.4741 9.2988 2.68715
124.53 28.8261 6.79837
79.5727 21.9354 6.38071
167.523 42.0686 10.2608
88.6819 22.3683 6.35953
86.9479 21.8748 5.29953
111.663 31.5537 8.51923
68.0526 21.7855 6.56656
135.229 29.4495 6.47402
199.547 61.5984 18.5537
196.421 54.7084 15.9834
94.9497 22.3513 5.40885
213.504 57.6054 15.2885
186.463 56.0131 15.6061
110.047 29.9138 8.8071
180.06 51.0189 14.178
89.3379 27.4125 8.84132
81.2313 25.2342 8.66226
165.452 42.7755 10.844
102.883 33.9256 11.094
96.8607 26.5308 7.63797
99.2391 24.2196 5.56429
130.209 46.4705 14.8831
156.726 44.1039 12.8665
103.418 34.9649 11.9281
92.5746 28.876 9.42976
115.116 37.7117 12.912
160.985 45.0943 11.8546
101.34 36.488 12.9021
54.6689 18.1505 6.49435
140.648 38.2865 10.0864
62.4007 19.692 6.22017
74.9018 25.3487 8.38719
63.3439 19.9308 6.79013
194.408 64.588 21.1378
85.6477 25.577 8.00435
57.1814 17.791 5.87506
86.974 25.2197 7.45314
101.122 31.3966 8.70241
98.8586 39.3948 14.2443
47.8671 16.1734 5.66881
95.2455 38.0108 14.6458
77.7165 26.0662 9.16325
89.4442 28.3691 9.7251
120.939 43.9728 16.2597
95.1901 29.9614 9.31671
102.696 37.7262 13.3494
104.913 41.0067 16.4078
59.7459 18.8212 6.24092
88.5035 30.9674 10.4349
85.1499 32.4196 12.1408
33.8187 16.8993 8.79626
104.572 36.8788 13.6999
97.9906 33.9725 12.5415
120.152 40.2002 13.2654
217.713 82.2041 28.8467
105.444 39.5439 14.0661
65.9342 29.7637 12.8504
54.8946 20.705 7.77942
85.2116 31.8989 12.2787
98.9857 44.1236 18.5718
80.1207 31.7687 13.0335
94.3506 32.8988 11.5556
94.029 40.5057 16.5354
48.2282 19.4511 8.32234
59.064 27.187 12.4127
91.0177 35.5764 13.5265
92.679 40.171 16.7164
56.4489 24.3235 11.2266
82.37 32.9634 12.7601
48.0926 19.1149 7.96903
85.3125 38.0004 16.1617
107.214 51.3172 24.5969
115.513 38.892 12.5426
47.7665 22.2651 10.4407
67.2296 31.4728 15.0607
74.3348 29.3143 11.1648
62.312 27.3575 11.6542
77.6431 38.9894 18.3666
48.6664 19.3217 8.33951
75.1133 35.3514 15.8756
37.9534 19.8671 9.81871
34.2236 11.6755 4.62398
70.4366 32.8048 15.3153
75.4767 36.0813 17.7698
95.4085 39.9554 15.9986
69.1673 35.5254 17.8827
81.3546 40.6678 21.2743
95.6234 43.279 20.7664
86.5068 36.8478 15.9614
78.5171 34.4046 14.4372
28.2566 18.6629 12.0747
80.0427 36.724 16.7769
39.4011 18.6272 9.55365
74.378 38.4007 19.6861
59.0467 24.3091 9.52244
54.4865 28.1529 14.2721
60.8828 26.9115 11.4125
73.9775 41.272 21.4287
57.6317 27.0463 13.0785
71.9146 36.7254 17.1732
56.9706 29.8799 15.4048
43.9903 21.7095 10.567
64.2745 40.7611 24.8132
76.3581 32.4534 13.9606
34.4203 21.7329 13.2026
39.0373 17.7923 9.29516
64.5611 35.3127 19.7133
57.97 31.2284 16.951
72.6378 37.6961 19.3784
44.8851 18.2225 7.93134
56.06 29.8935 15.3764
43.6614 21.7726 11.3439
60.4974 37.4053 21.8801
54.7813 30.472 16.7413
37.869 20.6522 11.2345
26.7284 11.8177 6.34333
60.0981 35.6911 19.8903
53.5927 31.9846 18.1118
40.9759 19.0572 9.22925
82.6316 48.1332 26.557
66.3344 36.5829 20.2523
45.1968 34.2168 24.7353
82.5055 37.9869 17.1815
62.2385 36.6496 21.6121
30.4504 16.579 9.51867
45.6857 30.1292 19.7587
80.8776 39.329 17.8373
41.7913 25.3647 14.4554
41.1569 31.7539 22.6236
51.731 28.0603 15.5864
36.316 21.1312 13.1234
39.3125 21.0989 13.271
100.12 55.3572 28.4619
50.9689 30.599 17.3044
79.3398 58.1238 38.1866
44.3266 27.4873 18.0196
19.7228 8.22987 4.07224
39.2505 31.3727 22.8069
24.8925 11.233 6.15335
27.8993 19.3639 13.9742
35.267 20.1256 12.1002
33.3173 22.1851 14.549
17.6482 12.6627 10.9132
34.4377 21.6795 15.5373
68.883 45.7872 30.8768
51.8566 22.8593 8.99852
39.9411 28.9116 19.6375
31.35 18.4608 10.3127
16.3051 12.0816 9.30978
34.8183 25.3159 19.3445
63.0846 41.3232 27.7978
65.065 39.2496 21.7068
52.6897 34.3123 21.2427
27.9735 18.9932 12.3813
21.7538 17.2001 13.2435
31.4025 22.9284 16.4541
36.4355 21.5584 12.6315
31.757 23.9627 17.5678
38.6567 29.509 22.6458
35.893 20.2411 11.2785
21.9469 20.8796 19.2786
69.6964 48.8225 34.4767
25.6045 13.0782 8.08059
38.4619 25.5654 16.6684
36.4793 24.6844 16.2879
44.335 31.5792 20.0887
26.8323 22.3695 17.4791
32.5517 24.6101 18.1938
33.859 31.9872 29.6377
80.1285 55.1257 38.1851
29.855 16.2918 11.1157
66.474 46.727 29.9291
22.9886 22.2547 20.8722
32.0493 22.99 17.642
33.5094 23.4566 15.9482
27.0526 24.5113 21.3842
36.889 30.6737 26.1591
54.5055 36.0161 25.5366
39.6434 26.3577 16.9586
27.2788 23.5389 20.6056
26.3789 17.3571 12.619
20.8035 15.4854 13.1797
42.2859 28.9247 17.7255
16.6884 10.973 7.28907
19.0829 15.7208 12.9615
57.388 48.5838 36.8761
34.7103 28.0247 24.3891
56.8876 39.4022 23.8068
27.062 29.1343 27.9994
70.3593 59.1061 47.9253
36.6917 23.1045 16.4625
12.05 12.2095 14.3387
39.1282 25.8279 15.5134
15.8379 12.9668 11.1046
29.7248 24.1851 19.6368
30.3992 24.2343 19.8624
29.1887 19.8037 12.7381
30.93 27.4062 21.1977
24.1362 24.8987 22.545
18.92 16.2479 16.0096
34.7559 28.2776 22.3041
41.8969 42.443 39.5685
37.8548 22.874 13.6696
18.9965 22.8539 24.9724
26.0381 16.9551 12.4849
18.1082 16.3204 15.1666
12.5644 11.5219 12.5061
26.7358 20.4859 17.2369
44.2743 42.2364 38.466
38.9698 29.1224 22.1548
23.7566 19.3356 15.7439
33.6922 29.6522 25.5249
37.6624 37.1487 33.2294
22.7144 19.8964 19.9886
18.1082 11.3072 8.40365
23.6712 24.5123 25.0563
25.559 17.2851 14.2777
38.4483 33.4708 26.2515
18.5715 18.2419 18.732
35.8622 26.4628 16.7162
37.145 40.5166 37.6081
35.9926 41.7732 44.0171
29.2888 25.7126 26.9724
32.4243 22.9064 15.311
17.0987 19.2232 21.2073
28.3591 23.3538 22.6565
49.3899 40.2518 29.0382
20.0999 21.624 20.9201
23.8196 24.7004 26.0635
22.1145 17.0691 12.0277
13.1413 15.3736 17.0072
32.6472 34.5897 32.0909
32.3924 39.1907 45.9708
29.211 19.0922 17.5462
35.107 26.691 21.3254
43.5698 49.6007 56.0691
54.7931 36.3662 22.9319
55.3286 55.641 46.704
20.3956 22.2284 23.986
24.8133 25.7433 25.4349
10.0454 9.09438 9.67751
15.081 14.4816 14.4944
27.3241 26.665 21.6891
13.1662 19.0691 24.2459
27.0321 29.2889 32.7879
28.4356 22.9223 22.0662
40.4432 35.6648 28.4851
35.9208 36.8898 34.0654
30.8572 38.1761 43.1105
29.0056 26.6371 25.9027
22.4068 21.3074 20.5881
24.1076 27.0101 30.5256
38.8057 38.4163 35.1436
28.2018 28.5431 24.5548
13.9801 21.223 28.2894
17.1714 16.3725 17.7905
19.6278 22.1434 24.5356
23.9633 27.7743 31.5238
19.2576 21.1206 26.986
28.1651 22.7752 19.2537
10.8626 12.0789 16.9436
29.538 28.103 24.6705
19.1434 22.2267 26.9941
28.8244 26.4193 23.4959
19.2562 19.937 18.2402
6.25908 9.5302 15.7172
19.9595 18.893 18.0781
12.7495 11.8383 10.5156
12.4692 14.8278 16.0726
13.6099 21.7267 32.2856
30.0747 24.5688 19.9043
17.2659 18.767 20.2566
16.4061 15.8586 14.3345
17.9722 25.7963 34.6648
33.1494 35.4647 39.0525
31.043 31.1171 28.2698
18.0315 24.2669 31.1579
24.4279 22.7253 22.341
37.8293 47.2105 49.7111
16.5003 20.8392 27.7958
18.7503 16.815 16.8793
23.5171 29.538 33.4668
18.4338 21.2217 23.8462
28.5884 40.8021 50.7696
6.48366 5.2814 10.1407
11.5528 15.4778 24.8428
23.1231 19.6332 16.3148
18.3314 23.0255 24.5699
21.194 32.6825 45.8218
21.6124 16.7359 15.077
18.5545 19.8868 22.2621
26.5625 31.1214 30.4709
6.3469 13.7175 27.3392
31.5573 31.9808 30.6193
19.7969 29.183 39.8366
30.7406 36.5487 40.8223
11.1639 8.87679 10.3757
20.0553 28.0324 36.2627
22.2951 25.0815 26.75
5.59363 8.90388 16.7766
11.3564 10.8046 14.5926
23.9988 28.7676 33.3457
20.3679 24.4813 27.4407
9.46053 12.536 19.6416
17.952 19.3534 20.0843
11.6968 14.1885 19.7031
29.2139 41.0471 53.5713
23.2034 26.8522 33.1654
14 13.3088 17.0571
24.565 28.8882 32.1736
18.7039 19.9037 17.5424
16.2928 29.409 42.6747
9.66212 12.1688 22.5385
25.3318 27.9551 26.8884
11.5242 19.8009 32.9516
27.9947 32.3344 35.1015
8.62057 12.3696 19.7394
12.1035 14.3701 18.2869
13.9957 20.554 28.9066
14.2975 24.0541 42.7504
25.0005 23.7911 25.3261
20.5343 26.2189 33.2344
29.2334 36.3948 41.7222
16.5929 20.7165 23.5845
13.1084 21.3844 32.5087
18.5841 26.4248 36.7886
14.8955 17.0114 19.3317
5.60783 9.91156 20.3115
16.6751 22.9423 34.8377
17.3011 16.9841 17.3924
18.6791 27.2413 34.3267
16.2253 27.3875 48.3936
31.2948 32.7042 33.3259
22.2728 27.1002 26.7731
14.5149 26.1319 38.4456
15.4937 20.5857 30.8849
41.2628 66.7091 96.6623
29.5612 27.1046 22.0085
17.2311 36.7549 63.0566
32.3588 39.9858 50.8875
19.0534 28.6124 42.0735
17.8748 24.32 40.0459
18.244 20.8587 26.1333
13.4204 17.3404 27.1818
20.4876 23.2521 21.7266
6.39687 9.70527 14.2422
11.3582 17.8935 26.426
18.5365 32.4534 52.4299
21.524 29.3221 45.0184
24.2189 28.744 32.7001
9.70772 12.9118 19.1729
19.0898 33.2314 52.4323
21.4583 25.8385 31.7813
13.8561 19.5025 29.0434
16.4412 26.3571 40.487
15.4828 21.5353 33.0509
22.651 35.9825 53.8146
11.3108 10.6143 16.4878
10.145 11.2063 17.2403
18.4396 24.6177 30.2696
13.0741 17.9274 20.5777
9.95677 23.5177 48.4706
18.3903 20.9806 29.4529
19.554 27.2952 35.7412
13.1006 19.7383 28.7101
19.1918 35.0916 59.7865
23.4451 30.8289 45.6015
15.0115 13.9478 17.5586
17.5491 25.2882 30.7972
14.9404 21.5803 27.6467
11.9485 23.2544 43.1579
20.3592 29.0988 43.1265
16.0001 20.8893 31.497
13.4746 15.4173 18.7163
16.6062 24.2249 26.5937
5.26629 9.70441 17.162
10.2319 17.2906 25.9052
4.34119 7.14637 18.608
22.4236 34.9151 41.1046
7.83681 18.4716 37.6041
12.2118 20.4254 38.2983
19.6227 34.5264 62.3878
21.7254 25.011 34.2931
18.1406 27.6964 43.1287
13.1829 14.8511 20.6818
14.3084 22.6202 33.5594
14.7216 18.8044 22.0408
7.52912 12.6921 21.7666
14.2338 22.3608 36.7139
19.9269 30.1431 37.2311
8.13315 15.7766 29.5401
10.3322 13.5828 19.7181
12.5882 24.0191 39.1074
10.2624 12.1891 16.4772
9.28067 15.6123 23.6839
8.02321 12.6724 20.815
8.92733 18.7905 40.798
21.6231 29.3395 38.3598
14.487 21.0442 29.1253
11.8901 19.7417 26.8149
9.0061 20.9466 41.2876
12.6385 20.6951 40.0329
22.1645 32.4721 39.8325
9.20049 18.4169 31.4077
8.03715 23.222 62.1548
22.8894 23.8158 26.597
9.5704 12.9102 19.3809
16.344 30.4142 41.497
5.90904 10.979 25.3166
14.7312 24.612 36.5756
13.7072 25.3487 40.2355
7.78755 11.9144 19.6181
4.46356 9.11652 23.3499
13.0217 24.4261 47.214
11.407 12.6814 25.3636
22.5964 35.9077 48.9719
11.9601 18.0541 29.16
14.1993 27.6228 47.9197
11.0663 13.0845 17.2119
10.0705 19.5236 34.1742
12.5118 22.3755 39.6267
12.6224 19.9977 30.4012
5.14039 10.6382 34.2878
23.1155 35.7982 48.3327
10.5405 16.6423 26.8494
13.2614 24.7487 42.3769
12.1978 19.6392 32.7566
10.0396 18.7624 44.4195
33.0441 60.8873 89.6018
13.0636 20.7547 37.9838
17.1225 31.7217 51.5079
10.9676 22.2654 46.7172
13.9606 20.5713 30.7094
14.849 30.9901 52.2009
11.0008 21.2577 45.8903
14.4847 21.6945 27.6909
3.61303 9.56791 25.0742
6.44954 9.47483 19.1825
7.40546 10.3357 16.4572
7.20574 13.1878 17.9598
4.03379 11.589 29.993
11.0702 21.1833 42.5706
13.3514 20.967 33.7074
13.316 26.2257 42.8919
6.04383 8.81901 16.3097
7.43817 15.4056 30.8387
10.4855 19.7341 34.5784
7.29405 14.3668 28.1065
11.0775 26.4666 53.1824
6.68464 8.67133 25.1069
11.392 16.6634 23.1557
4.93553 11.444 31.8739
11.8335 19.8454 36.9692
14.5358 24.125 32.0601
9.0587 26.6654 67.2789
15.6493 19.9938 29.1668
6.01146 11.8129 30.8096
11.078 12.5593 12.0713
7.80762 21.6624 54.4878
24.4969 45.8038 73.9744
15.0583 30.0535 59.1578
16.9644 27.1371 37.6165
5.94938 9.77803 15.9791
10.4667 28.4743 58.0225
8.62774 13.7718 26.6328
6.2198 12.845 30.2549
10.8737 23.8016 57.9442
18.4888 25.5319 28.1706
7.52224 18.9533 38.9966
13.0812 27.3503 45.0869
5.04385 13.5842 39.9355
11.54 19.0462 34.3065
6.51729 12.734 33.2364
14.6213 32.0992 73.6934
19.8767 32.1428 56.9413
16.5678 29.9154 47.5585
10.2769 22.3587 49.3797
13.5329 23.0256 38.9847
10.9062 21.4441 32.3076
2.88343 6.46643 20.0624
8.27917 19.0999 43.0394
10.9207 20.729 34.4789
5.55716 11.7007 33.8635
15.3192 31.4301 59.8445
12.5779 21.061 34.3919
7.61177 19.2337 44.4626
8.95265 16.0542 37.7121
13.6109 24.9857 40.3016
7.11712 12.8762 24.5506
5.50171 8.70189 15.4266
5.5333 9.78456 14.2589
4.99059 13.0223 29.6072
8.8472 18.3852 30.6416
6.78152 16.7397 34.1367
8.54913 25.1357 58.0472
6.1683 9.80598 27.3303
7.87459 13.3382 25.8758
6.33254 12.5844 30.4514
11.8764 24.1631 42.0798
12.7566 32.7752 67.8809
7.7294 15.729 41.5108
7.25271 9.92507 21.3477
8.84656 18.8888 39.2414
12.009 25.5958 45.7933
7.6145 18.8215 46.1317
6.94359 9.97657 23.0217
7.18835 12.5344 22.5778
5.39757 13.2495 33.0929
8.59434 15.1419 27.4938
7.57313 16.9751 27.5128
2.74825 8.10144 33.3352
12.6484 26.3971 48.2459
10.6355 26.3505 62.9808
9.39776 12.1166 19.6302
6.79471 17.2072 38.7907
6.92143 12.1756 27.3761
5.60154 8.07069 12.5666
4.54739 14.0638 40.7473
14.3215 32.6059 69.9908
10.7397 15.1561 21.8921
3.45195 9.40919 32.0862
9.89297 14.5122 21.4501
7.99724 19.9816 39.6938
6.7547 13.6843 31.1382
6.38018 12.6019 31.4622
13.3813 31.5675 63.7359
11.0427 20.1516 38.1819
9.06921 18.9136 27.4401
3.665 13.5008 37.7546
6.28762 14.6482 42.6414
12.0644 24.587 44.18
6.72882 15.4342 32.6099
5.29948 12.4802 31.1721
7.25359 21.3284 72.3677
17.9112 26.4478 30.7474
6.69468 17.9484 33.0935
3.4899 8.86124 23.4002
6.51116 18.1616 42.5923
6.01102 13.8523 39.118
8.44409 15.7678 29.4928
5.82903 13.4854 37.9848
12.3779 30.5657 58.1112
10.3504 28.6944 69.1052
6.97553 8.73071 19.499
4.96328 10.3632 28.1459
9.64703 22.2332 38.7351
5.05439 13.026 31.2277
4.87284 10.6817 29.2046
7.56175 16.868 33.8682
4.46883 11.3452 36.6096
8.75289 20.5914 50.1686
8.71471 14.2696 29.096
9.4517 23.5643 41.0534
6.69105 23.5651 65.1752
6.62145 9.67749 29.899
7.02095 12.6188 22.6846
4.52685 9.81418 21.6436
7.0369 24.9404 68.2632
8.06715 14.6402 43.7386
9.60149 16.4708 33.2064
8.42991 20.7053 48.0115
8.21192 17.5454 37.6878
7.85084 19.2515 46.0466
6.70557 17.5739 54.8747
10.2965 16.8789 29.5754
5.36287 11.675 29.2229
7.47365 21.1343 54.9389
8.3696 16.2975 44.0156
8.09371 14.6711 46.5528
17.9944 38.5756 53.3517
6.80177 24.1736 70.605
12.8687 30.7833 70.5289
12.845 32.8482 78.7255
10.5623 20.182 47.3474
6.72299 10.3278 24.9418
10.0716 28.9391 66.394
8.30304 14.8233 37.6096
10.3221 27.6589 66.0191
8.65319 11.9463 22.3402
9.78821 24.6775 36.201
3.37144 13.4411 39.3416
7.15258 21.0296 56.1262
6.74834 13.478 33.5107
5.9275 12.8188 38.4847
8.7802 19.1116 40.2639
9.6024 27.1607 59.5643
7.95919 17.2884 35.4971
7.72127 27.4685 80.6956
10.631 15.39 25.2285
4.22001 11.4569 36.2556
11.3238 30.9744 63.211
6.74932 11.1074 20.2907
6.84175 30.726 102.913
16.3309 28.9413 48.7067
6.111 12.7518 21.0154
4.75476 18.5515 53.9526
6.64877 15.0493 39.0524
4.08891 6.17246 16.9486
5.77086 19.3697 59.2176
11.3615 28.217 61.1651
6.69256 10.957 19.3528
4.16412 17.3072 62.221
13.3145 32.9256 69.457
8.28646 22.427 61.4406
8.13642 12.0301 17.7978
5.33745 18.5328 41.4071
3.13405 8.50488 31.3233
3.65525 5.70893 24.5318
8.28796 19.674 35.2
5.1131 14.5172 37.5417
5.65847 11.4409 24.7846
5.44191 17.5026 35.657
1.63381 2.84808 16.2864
3.65912 8.2686 20.4044
4.14914 12.8142 36.5033
5.10069 9.88729 20.9976
4.37087 12.1922 29.2848
6.8332 23.4803 57.7383
5.62922 11.9671 28.5862
2.72419 9.43818 41.6672
5.68395 8.7352 30.0342
9.45813 23.4977 43.8698
6.99668 17.0862 33.765
5.96228 20.4323 51.0623
5.93486 12.9411 18.9348
2.77205 15.8653 52.7318
6.40809 13.1389 28.7907
4.82189 18.5625 51.3581
6.59959 25.3095 94.911
11.7601 19.0847 42.8789
6.59602 14.4912 41.649
6.68414 13.5306 24.1214
5.52755 16.9546 39.121
5.01722 11.9222 23.3707
3.07599 8.18771 18.8997
3.55363 12.0162 25.4847
5.20421 24.8704 80.9457
7.80625 13.6 32.1363
5.48316 16.1713 40.2259
6.13889 22.2884 66.8763
5.86602 10.481 35.1596
5.53907 12.4605 36.8838
6.57723 15.4169 27.9117
3.46993 11.9575 38.5594
6.2191 15.7074 42.2758
5.16435 11.8397 33.3771
6.75158 18.261 37.5561
4.62095 16.07 51.9932
6.21493 12.0578 27.1601
6.01087 21.2228 46.2906
3.72828 15.0942 58.9195
5.06254 4.84227 21.5893
6.18024 14.8733 30.753
4.78085 11.5699 16.6852
2.07219 9.55402 28.5182
3.73136 11.6788 31.4261
4.27319 17.7787 69.2987
8.76206 17.7886 43.7431
5.54067 10.0338 25.149
5.52357 13.4994 23.8927
5.22716 25.7058 68.8514
5.14084 12.8742 47.3468
5.58306 12.513 56.755
12.8285 31.2823 44.4813
2.78514 15.1404 60.7419
7.01834 17.1878 52.0218
8.01793 21.6959 55.8824
6.08172 12.0754 37.0572
8.7714 30.2623 76.3792
5.26018 6.82116 16.9261
3.80918 13.1294 34.427
3.07587 7.15366 24.6079
5.04931 17.369 56.7368
7.84467 20.6968 47.1454
6.33741 23.6025 71.2538
6.74233 11.4242 23.7078
2.90273 10.8724 40.7327
6.29333 15.4493 35.3972
3.37014 10.9786 43.8433
6.35817 13.4295 29.3771
6.27669 25.8635 72.0714
5.47326 10.5623 40.9954
6.42419 11.9257 15.5974
3.24119 12.132 29.1595
5.79002 22.3027 48.8854
3.66781 18.0273 67.3418
5.34443 9.78943 45.1763
7.86419 18.751 35.3411
4.2173 17.2873 57.3503
5.51101 9.31815 18.1969
3.34728 14.5551 44.4765
5.32535 19.6321 62.8963
5.08935 8.15359 28.0475
3.92716 8.80509 26.9105
4.75516 13.7456 28.3665
3.00873 17.5252 78.2995
7.80291 10.5156 29.4375
5.38026 13.4873 36.8483
5.46398 13.1221 24.5974
3.47376 9.65535 15.5358
2.38607 8.6331 18.962
4.1205 18.0212 38.965
2.04799 8.24978 28.076
2.80305 11.1882 39.1311
3.30424 7.7173 38.274
6.29824 17.1898 37.8272
3.14566 7.50468 23.471
4.31888 15.5204 33.6121
2.51109 13.0851 62.7643
7.35716 19.2976 49.7631
3.92666 7.74559 40.2451
8.0824 24.202 46.9175
3.82397 14.868 54.3306
4.898 8.99034 24.2165
3.35526 11.7757 48.3378
7.25758 19.2486 35.9804
3.00705 10.5624 28.5688
2.748 12.9444 59.4771
7.80248 22.3391 55.662
4.17285 9.6511 37.6048
5.13602 13.7026 40.2831
5.22526 15.518 30.8218
1.96256 6.32554 28.025
4.45713 14.76 36.9599
2.81725 9.3875 45.7418
4.94545 8.06239 21.5278
3.95558 14.7043 40.7128
4.24807 15.1397 62.9134
7.99414 17.7254 19.7346
1.47334 12.1274 54.1901
5.53574 11.6778 28.5688
4.63652 22.0961 73.6349
5.89092 13.3043 45.0339
4.95217 12.5251 36.7967
4.03332 9.72551 32.7902
5.59378 18.9745 55.9525
7.20398 23.7091 48.0262
2.23857 8.25865 37.922
3.17859 6.2203 26.0272
3.7512 9.35225 20.6626
2.65565 10.4334 28.3799
2.32632 8.44637 37.1514
5.48217 19.8881 66.1698
6.74876 15.6845 37.8073
4.54331 15.1009 34.3443
2.10572 4.04841 15.7754
3.54651 18.9619 54.77
4.19639 11.5879 43.4139
4.39932 7.90619 16.0343
2.73437 12.1659 29.7668
2.47524 17.5077 103.675
11.4233 26.7853 60.9439
5.09341 10.935 27.2312
4.18797 18.4315 50.7956
4.16075 19.83 93.0451
7.28526 12.2278 64.1547
10.1409 27.2704 64.4203
6.38327 14.9661 27.585
3.01037 10.8673 22.6162
2.00333 10.8053 44.1101
4.13872 9.84523 32.0396
3.94701 13.8974 44.5259
4.72087 16.3396 63.2957
6.52053 13.7269 38.3997
5.98228 21.7857 42.8267
2.839 12.6471 45.4967
3.08506 5.53435 37.4408
6.20828 18.5318 38.6475
3.99219 21.0423 79.6521
6.53851 11.0442 23.0432
2.7171 8.48462 24.0703
2.88088 9.01793 19.3251
1.70555 8.75648 40.7955
4.09499 12.1787 29.6623
2.41287 8.90486 31.3437
2.35304 9.09281 42.4923
3.73951 10.848 56.414
6.68307 16.7368 44.7129
5.6018 19.9072 65.3535
6.49253 17.4586 52.9471
6.05226 15.129 21.9655
2.63267 13.5933 32.808
2.02371 7.79624 31.2051
2.85514 8.88682 33.8683
3.63115 13.6992 56.082
6.24635 15.5883 39.7335
5.8324 24.5035 49.1874
2.20206 8.67301 46.3393
4.54153 11.7248 45.1719
6.41187 26.0752 83.1611
7.17861 22.2386 64.8825
4.98529 9.88678 19.9795
3.08633 17.8271 48.6796
2.90797 9.15601 42.6847
4.57026 17.0043 55.8743
4.73237 13.353 43.0904
4.5491 19.4012 60.0724
4.09145 11.1756 54.1477
4.5683 9.56312 44.53
5.88818 15.0676 20.0825
1.72412 10.7613 39.6184
3.55362 14.9703 65.3384
5.49806 12.3104 41.0833
4.6564 16.3287 55.1351
4.48967 6.72651 18.8826
4.25444 20.6501 53.5236
3.51213 12.4584 51.4272
4.19205 6.94905 13.7824
2.23253 11.4602 40.6021
3.8027 11.2867 23.1623
1.5082 4.85668 20.5911
2.31864 7.47403 17.2186
1.58481 10.1883 46.5876
3.95255 12.2178 33.7493
1.95274 3.20373 16.1629
1.8989 6.40195 30.3521
3.61906 13.2087 36.2872
2.72738 7.9721 22.6534
2.20461 8.39848 34.82
3.35578 7.95355 16.9024
2.21215 11.9116 46.0256
4.21749 15.4963 71.0357
8.63865 34.8198 67.7061
3.06738 10.9486 43.9469
2.86273 9.59154 62.9538
6.80181 18.8594 41.1217
2.88735 8.42977 40.0078
5.12178 21.6748 46.6664
2.3483 9.80438 43.0787
3.76558 12.9558 40.3943
2.38769 8.54007 56.1659
5.13126 9.16911 17.8198
2.3928 14.1454 57.8993
4.21745 9.44965 31.0336
3.50843 14.1555 45.6715
3.39821 12.8181 66.0856
5.77237 12.8005 28.6992
2.61796 8.00533 30.2057
4.05963 20.771 59.1995
3.91026 10.4401 25.0446
2.8249 25.1185 109.716
6.81438 13.8808 59.7269
5.42661 18.8724 91.2779
6.89353 7.28635 16.8783
3.18808 13.3681 36.0942
3.23522 8.49826 17.2018
1.77342 10.3635 41.5395
3.25114 11.3902 62.1579
6.18954 17.6772 45.4406
3.04363 5.17138 21.5691
2.60381 7.41052 19.7469
2.56783 9.82231 26.6227
2.97633 14.7083 59.2573
6.23242 23.3939 45.974
2.30256 9.25825 43.707
3.4962 9.89524 32.8084
3.76745 21.2268 70.8006
4.49565 7.60243 16.075
1.61641 9.04384 40.9301
3.49253 11.4205 21.6349
0.886166 4.23344 39.7464
4.08584 11.9383 23.6442
1.77204 6.45391 22.5363
1.93484 7.739 22.3598
1.6807 8.63206 43.1159
3.18706 6.92695 25.3638
2.76333 10.5873 43.3502
3.98366 11.8489 30.0613
2.37819 10.0322 32.6263
3.05183 12.0122 33.735
2.42757 8.93996 31.0704
2.45702 9.50144 35.2781
2.76565 11.7105 42.9393
2.8515 9.20672 71.3965
7.47341 24.4284 44.8605
2.48462 7.80473 47.0995
4.26489 11.5245 29.9519
2.94397 12.2127 38.882
3.32553 15.072 44.5646
2.4746 6.39719 26.8446
2.67767 12.3621 44.963
2.44647 4.26815 39.934
3.99206 9.79221 26.7276
2.56817 8.59344 25.8659
2.56152 8.40854 28.083
3.45963 18.628 43.5573
2.38701 11.929 55.3304
3.5071 7.1363 25.9746
2.5722 8.36743 26.6524
2.13235 8.06365 35.7813
4.27574 21.8147 64.6283
4.3361 17.984 60.2739
3.49079 5.3025 22.5819
2.04548 5.07115 12.7425
1.11015 5.516 37.3906
3.97779 13.0563 27.7466
2.03227 10.1625 32.4208
2.28852 8.20995 21.7941
1.39734 5.54959 26.8298
1.91503 7.33983 44.9931
4.58622 18.5687 47.3763
3.09847 13.6106 78.4439
6.10524 12.1763 18.6051
2.49004 15.2757 26.3791
1.98394 22.194 96.2334
5.73844 14.7223 57.5158
3.26718 4.46365 43.5738
3.88979 8.03387 28.922
3.25182 16.9683 52.3253
3.04542 6.9188 45.745
3.69135 6.26495 18.0098
2.29204 8.82912 21.1629
1.81622 7.45933 18.1816
1.57204 9.53751 20.4634
0.966557 3.21606 26.5219
2.66955 11.024 33.6343
2.46459 9.58885 33.0584
2.4954 7.36935 26.2155
2.12252 9.83292 44.7994
3.87962 19.9442 55.0993
3.07329 9.08049 42.3464
2.81408 4.34021 14.2404
1.422 9.59989 59.545
4.74039 17.2644 62.1151
4.34151 9.83698 32.6744
2.85835 9.7372 21.8532
1.32696 6.06139 44.3684
3.55659 9.96859 50.873
4.34525 10.693 20.2131
2.17515 10.681 24.5295
2.30465 16.2978 54.8519
3.4433 9.90185 33.0237
2.59087 9.65705 31.9403
2.31001 10.8925 36.6851
2.1797 7.11165 43.4424
3.41639 9.02848 37.0408
3.41442 12.369 23.8479
1.87079 14.1898 64.0752
4.65825 15.8735 42.3437
2.45352 6.85079 32.9306
2.35847 4.77302 16.8256
1.63492 9.78791 40.1013
3.13069 11.9918 49.5644
3.85686 13.4591 25.7426
1.35422 6.91103 35.0166
2.77959 13.9457 59.2207
3.85894 9.72818 38.4725
2.89694 9.3221 25.3931
1.68458 9.43545 52.9896
3.73333 7.85462 28.9579
2.91816 11.6192 26.215
1.69443 6.94106 28.8252
2.42026 13.2782 60.3836
4.16633 8.66008 32.8027
3.28304 18.1234 65.5855
4.40382 11.5961 25.73
1.47328 3.8442 20.3216
1.99512 10.8875 44.8083
3.40708 11.4977 50.8282
4.40807 21.908 54.9402
3.10114 12.2924 41.4802
2.21874 8.83071 90.6323
8.08489 27.0367 35.9315
1.54941 13.3939 70.186
4.26653 11.1731 62.0873
4.672 11.9458 44.2756
3.41005 16.0374 75.2672
5.29365 12.0342 24.8585
1.77409 5.26035 27.9255
2.50218 9.39312 22.2212
1.54699 4.89289 12.3852
1.21074 7.19971 17.1362
0.991454 6.92291 44.9213
3.29218 7.85106 20.5212
1.72116 10.1218 39.4712
2.75162 10.3953 40.2374
2.70004 9.01457 33.6144
2.46165 9.86547 45.8467
3.39677 10.855 37.625
2.57097 4.84144 27.5436
2.90744 16.7372 64.1612
4.89871 18.8057 48.907
3.03991 9.04479 16.9113
1.33644 14.4166 56.5852
3.27877 7.58934 41.926
3.23054 13.2485 28.6756
1.66843 10.8613 61.1649
4.01404 7.96528 40.1072
3.87777 21.2235 71.9529
4.48577 11.9116 41.4245
2.83267 8.18842 16.9058
1.22252 9.16849 45.4407
2.82768 5.20665 18.0321
1.95905 18.7386 69.693
4.06438 7.55546 26.8885
1.78106 12.0718 86.6895
6.26041 14.2976 28.383
2.24013 10.6501 31.9127
2.03819 8.60896 41.8377
2.87047 7.63905 26.4137
2.4009 14.2768 35.8875
1.87101 6.40747 47.8974
3.49555 11.0105 35.4217
2.945 16.591 28.7222
1.22504 8.33298 59.8685
4.04676 14.9148 54.1085
2.99464 6.03207 46.2467
3.35936 6.43372 41.2627
3.68498 16.9902 35.121
2.09216 10.4626 62.5496
4.57411 14.0446 35.2197
2.32729 6.76031 13.1877
0.882889 4.91657 17.2068
1.22008 6.23032 44.2917
3.51554 13.3242 34.9204
2.06146 6.79298 27.0606
2.25147 11.5719 25.6988
1.49231 13.7781 60.5775
3.69823 11.9813 54.09
3.56422 8.31217 34.1455
2.55211 10.4615 44.2969
2.71107 7.10667 37.9464
2.98634 14.5007 66.3385
4.88904 22.5209 69.1586
4.20032 14.6467 40.8319
2.3781 5.75046 21.4636
1.19288 4.74214 47.969
3.4569 9.56819 27.5507
1.8768 9.26073 58.5108
4.06916 10.2869 24.0556
1.50987 5.68204 27.6121
2.17645 11.0241 51.5168
3.64945 14.3197 56.3573
3.75584 8.78057 46.2248
3.90635 17.6856 35.6349
1.71781 4.62985 25.7854
1.91738 10.7104 48.4656
3.2238 8.95803 24.9318
1.75253 10.1518 29.9136
1.67764 5.4049 40.9823
2.88397 9.78623 48.7478
3.4956 10.6343 47.1513
3.77222 17.2096 28.6046
1.31037 3.34943 15.599
0.946198 4.41607 26.1034
2.07455 10.6415 28.2263
1.69575 10.9599 67.109
4.59828 9.09097 17.218
1.45643 10.8 37.7405
2.27585 8.4922 26.1798
1.67663 8.40286 35.6204
2.20332 5.19264 24.7575
1.74564 6.18317 19.1218
1.24313 6.45645 22.0001
1.34211 2.95739 20.2439
1.55976 10.9181 57.866
3.94317 9.25079 41.239
3.16364 15.8318 48.5665
3.09896 9.5982 23.9965
1.65559 10.0698 42.6088
2.59711 8.13239 29.6617
1.90144 5.57347 20.3725
1.26559 5.48865 51.543
3.88919 13.157 18.9423
1.16441 9.09129 46.6129
3.10654 11.5766 46.0651
3.03913 8.94458 17.9151
1.28221 15.8255 60.673
3.37589 4.19286 20.7642
1.61149 8.23191 42.2804
3.22892 20.5122 50.3866
2.70777 6.88066 32.0787
1.94894 7.03626 43.4491
3.05354 11.4648 24.7061
1.68404 16.3333 85.9773
5.09197 9.656 42.402
2.85653 7.5748 39.489
2.99194 13.0285 42.7708
2.66637 6.58267 33.0214
2.2853 7.8349 21.8332
1.54102 6.61472 22.9821
1.58535 11.2853 34.1831
1.75258 2.67102 24.2494
1.74561 8.12182 19.51
1.29968 6.06628 34.3096
2.33311 10.8174 34.0192
2.08524 5.33272 16.7499
1.18527 7.98334 43.2304
2.93931 17.3176 60.7111
3.46972 9.58843 52.6285
3.61682 12.7809 32.9651
2.00088 7.84114 49.3489
3.43089 18.2179 75.1869
4.60071 8.19158 13.8029
0.956077 7.95385 43.3728
2.80045 10.1387 25.0374
1.50462 7.3548 25.509
1.42513 2.63676 34.9049
2.58965 11.8617 42.8691
2.95729 14.1463 44.1337
2.66158 10.1173 50.9407
3.17383 11.0603 44.7111
2.93111 11.7712 25.4538
1.66163 9.584 26.3488
1.64243 6.95154 48.2169
3.10577 5.05718 37.7312
2.91071 12.7884 30.1111
2.10235 13.4804 34.3311
2.04044 10.3701 32.287
1.8609 5.23093 44.9515
3.26027 15.6628 31.2257
1.68254 10.0346 52.256
3.17274 6.19836 35.1177
2.49986 15.6114 60.3248
3.6694 9.42213 29.4061
1.90928 15.3556 56.0779
3.32474 11.417 50.1386
3.0196 8.4351 30.6175
2.13011 10.6359 34.1987
2.2328 12.3388 38.8836
2.38909 8.35814 21.0922
1.20818 4.04407 26.8447
1.80796 7.96404 52.3647
3.42979 7.8782 17.3125
1.2176 7.93661 35.9575
2.13374 5.67253 25.4555
1.6438 9.53876 42.1839
2.58315 11.4507 53.2956
3.47144 10.8788 42.7318
2.59458 13.5828 70.017
4.22806 3.38552 53.1341
3.7843 16.8829 53.0165
3.43796 9.36698 35.2333
2.30559 7.53792 35.4226
2.41808 11.4824 60.865
4.15932 13.0749 25.3673
1.68403 17.8022 54.7554
3.47286 18.5174 75.3498
4.55022 7.14918 39.8805
2.57943 10.6779 53.2283
3.37686 15.7982 46.4323
2.84143 11.28 32.1263
2.07919 7.69218 35.4942
2.27201 6.48045 19.5581
1.19282 9.6602 37.2408
2.29363 4.94296 45.9137
3.13233 7.20295 13.7596
1.03579 13.3598 55.2677
3.30324 6.93255 20.1223
1.28874 10.3423 41.7414
2.57273 10.0172 53.7843
3.44027 8.90318 37.0755
2.44086 12.2146 41.1243
2.61252 9.94162 26.9188
1.52518 5.00406 23.241
1.51471 5.14026 26.3142
1.64916 3.95338 14.7803
1.04538 5.23763 39.5367
2.55909 10.4859 28.063
1.83893 6.2067 12.2751
0.760114 6.35619 16.0525
1.04876 12.1907 51.5803
3.30572 10.2279 20.1803
1.09831 2.48889 23.2831
1.45179 6.56132 34.435
2.20157 12.753 46.9963
2.81823 11.5146 43.2369
2.63969 7.04742 28.6623
1.82808 6.07972 64.6435
4.25771 11.0522 24.7347
1.53135 11.6171 33.3539
2.05094 7.22228 39.0993
2.46209 15.8247 34.4041
2.00075 7.38522 49.1284
2.90287 8.07048 29.2216
1.94259 8.10366 25.7417
1.58196 6.98036 42.3412
2.61608 5.16525 19.2243
1.33697 11.1001 52.9749
3.23266 7.82282 39.6616
2.7166 6.90811 24.9524
1.51316 6.33776 20.5903
1.35787 6.00795 36.4314
2.34816 5.93069 36.9862
2.55345 20.5651 56.8745
3.44682 11.3727 28.6724
1.82598 9.14166 44.1502
2.58966 5.30846 24.5843
1.59181 12.1221 27.2955
1.62765 3.5423 39.1629
2.45654 15.6031 36.9959
2.24425 4.26927 26.6236
1.75452 5.22104 30.3671
1.86889 6.66303 29.1427
1.93305 13.6606 47.7454
2.95884 11.4031 56.1524
3.51779 12.1194 66.1618
4.16871 11.4525 48.8332
3.06212 11.3904 25.0989
1.45161 8.79646 40.4633
2.40723 10.2682 22.3409
1.36551 6.28281 50.9327
3.16776 7.31545 41.6266
2.50928 13.8686 49.9433
3.07603 22.1461 79.5186
4.97335 11.3709 31.8773
1.99346 0 0