# pn-170911/RbIIR-41-RbII-1280-1959.psd
# Power spectrum* (dif=0,1,2) (really just |FT|^2)
# NOTE: only the first half! (symmetric)
# weeks: 1280-1959
# 334 clock-days, 4 excluded
# PSD: 1441
56734.9 1.01494 0.0237834
2.15747e+06 52.8367 0.0476651
3.19731e+06 56.936 0.0452688
816657 15.9725 0.0465655
505161 14.5325 0.046951
327091 9.20853 0.0434494
227020 9.10191 0.0439709
158154 8.22391 0.0452775
122216 7.42323 0.0490451
102575 7.80253 0.0494045
75683.4 6.68033 0.047736
74357.7 7.48008 0.0470235
49486.9 6.63841 0.0516093
51651 6.09597 0.0495847
42404.4 6.79369 0.0520289
39993 6.71688 0.0462343
31102.6 6.17447 0.0499469
29930.6 6.17303 0.0567159
29140 6.2865 0.0610966
23351.1 5.3216 0.0527652
16583.6 6.26885 0.0581259
24401.5 6.67662 0.0587571
20503.1 6.66851 0.0672408
14850.1 5.49067 0.0595095
13373.6 5.82441 0.0590095
12452.4 5.8868 0.0629342
10692.9 7.15637 0.0814905
11205.5 5.55914 0.0667118
11080.6 7.08399 0.074023
9178.89 6.60421 0.0773815
7658.69 6.55954 0.0789642
8534.08 6.40035 0.0762887
8686.3 8.28025 0.083273
6792.43 6.79385 0.0776141
7590.41 7.18855 0.0868585
6830.27 7.05796 0.0914481
6217.5 7.07257 0.0912659
5970.84 6.76935 0.0865658
5679.34 8.0719 0.0947504
5612.88 7.62376 0.108658
4918.28 8.02027 0.119486
4214.03 7.7974 0.105362
4788.74 8.9251 0.11869
4260.58 7.23997 0.123308
3955.15 8.38332 0.125666
3937.03 7.78179 0.116592
4126.5 8.35971 0.119503
3992.3 8.25754 0.14161
3389.84 9.19002 0.156279
3417.84 7.68542 0.134691
3630.55 8.14107 0.156713
3601.09 7.72878 0.132329
2982.77 9.03537 0.169413
3000.94 8.77127 0.17193
2956.36 9.28995 0.16556
3020.17 7.21813 0.143526
3028.77 10.2231 0.195951
3038.57 8.47195 0.185339
3047.21 10.4753 0.204803
2632.48 8.6402 0.201851
2588.7 8.24923 0.18288
2697.69 9.12277 0.204237
2606.39 9.2056 0.217477
2764.94 10.2285 0.245388
2645.4 10.9773 0.278693
2476.91 10.5144 0.264322
2391.08 11.1599 0.307373
2510.46 10.5762 0.275318
2193.65 10.791 0.290612
2128.51 10.4119 0.296206
2025.42 10.8796 0.335023
1831.9 10.6047 0.318063
1787.88 10.6827 0.334293
1604.51 10.2555 0.3416
1768.6 10.9104 0.338429
1853.25 11.4566 0.386877
1725.94 10.9321 0.350048
1718.31 11.3236 0.373778
1580.98 10.5445 0.352984
1637.3 12.0804 0.457029
1488.39 12.2432 0.461586
1399.89 11.0518 0.394348
1414.8 11.4909 0.442986
1216.39 10.74 0.44225
1372.49 12.3542 0.452151
1422.77 11.5572 0.446553
1100.2 13.4291 0.532071
1234.97 12.7869 0.540081
1239.35 12.7827 0.527275
1129.66 12.4002 0.537151
1022.99 12.6242 0.573072
1233.07 10.8305 0.493414
1132.92 13.4624 0.588469
1045.75 10.9087 0.479668
1125.83 12.1317 0.58145
1169.69 11.9887 0.578915
1095.73 16.2138 0.769629
1159.78 13.3985 0.664452
1085.18 13.1629 0.671506
884.068 13.0708 0.702303
984.066 12.6181 0.673571
1225.58 13.8142 0.750168
990.228 14.6485 0.776866
983.465 12.7023 0.671246
1020.89 15.0359 0.831406
942.865 12.3526 0.680193
803.282 13.9681 0.772126
999.933 13.6823 0.773964
872.072 14.3194 0.843003
863.014 14.016 0.873791
782.44 13.792 0.890323
933.549 14.6876 0.871347
927.257 13.8687 0.889865
690.425 16.3076 1.06956
810.731 15.3165 1.04136
875.509 13.2994 0.884951
632.677 14.0354 0.953002
675.569 13.6087 0.929441
749.243 16.019 1.10272
683.333 13.0572 0.920689
803.113 15.1432 1.10456
649.564 17.3954 1.23621
646.036 13.7683 1.04823
830.015 15.6375 1.17295
733.204 16.3306 1.21415
693.568 15.0769 1.17734
656.796 13.9406 1.07046
569.517 16.4433 1.2964
591.97 14.8055 1.16842
586.43 15.2189 1.26728
603.492 15.1133 1.26002
607.724 15.4961 1.31952
577.187 14.8467 1.31403
628.533 16.9055 1.49968
608.726 15.976 1.45575
631.787 15.8333 1.41014
629.303 15.6314 1.46993
550.691 16.8155 1.55556
523.47 16.3996 1.4837
519.576 14.6183 1.37794
582.798 16.6811 1.63887
588.156 14.9256 1.45278
492.992 15.6833 1.55086
550.232 17.8191 1.80192
563.602 16.6976 1.74885
494.716 15.4589 1.61208
451.852 15.2699 1.6273
517.53 14.9253 1.59077
467.601 14.78 1.58607
476.358 14.8301 1.6005
515.547 21.0968 2.32074
453.363 14.9022 1.63074
491.065 16.2567 1.78378
500.028 17.29 1.93596
475.638 16.5626 1.93124
446.623 16.8453 1.92147
448.836 16.9037 1.99698
498.189 17.3733 2.0687
406.578 17.1652 2.06326
420.301 17.2266 2.11979
402.593 17.3307 2.09228
372.336 17.2202 2.17914
417.067 16.8272 2.07213
434.215 20.816 2.63034
465.087 16.4383 2.07721
454.666 16.6956 2.15154
378.887 20.3152 2.60698
346.951 18.7637 2.56091
437.156 16.7228 2.23579
349.262 16.3263 2.14473
369.576 17.8425 2.44907
286.63 14.8735 2.07179
309.413 19.7524 2.73064
377.025 17.9882 2.56243
350.809 17.2169 2.52729
307.796 19.4677 2.83626
342.707 16.3663 2.43579
380.175 17.6608 2.67258
335.844 19.7903 3.0075
374.903 19.6083 3.0107
372.858 20.6483 3.10656
380.49 17.5077 2.88133
298.24 17.8412 2.70407
341.122 17.669 2.87317
360.927 18.2659 2.91819
368.118 18.8334 3.08299
349.7 18.6176 3.00238
347.314 16.2745 2.80608
316.077 17.9505 3.07534
291.967 18.2873 3.09455
308.579 16.8708 2.88804
357.223 20.1378 3.53856
310.353 21.3094 3.63487
323.723 16.9542 2.90069
310.96 18.3066 3.29202
297.455 16.8336 3.0332
290.68 16.7687 3.05414
357.832 21.137 3.84607
268.396 18.4791 3.39643
265.218 18.2079 3.348
275.611 17.5218 3.21017
254.455 16.4599 3.21426
258.868 19.3548 3.71264
296.618 18.2278 3.55382
299.939 20.8408 4.15923
247.352 17.8064 3.43073
281.911 18.0576 3.66381
278.415 19.705 3.87408
241.906 17.863 3.73868
278.675 17.9814 3.77026
249.928 16.9662 3.47121
292.183 19.7438 4.15146
266.077 18.7636 3.97716
263.707 18.7374 3.86377
274.17 19.2485 4.03518
274.212 19.7749 4.4002
266.226 19.5179 4.38321
262.517 20.3752 4.48321
259.687 18.7736 4.23329
264.318 19.088 4.37008
248.529 18.7633 4.27591
263.086 18.8859 4.36918
244.394 18.2413 4.31813
284.708 20.7434 4.89882
279.831 18.8965 4.40166
240.132 19.0981 4.47964
259.763 18.5474 4.54653
240.898 19.6412 4.76492
214.136 17.7914 4.48777
232.934 22.0658 5.42199
242.554 19.9859 4.8759
210.609 17.2151 4.37832
229.95 17.9968 4.60532
220.403 18.7467 4.72795
206.402 17.6413 4.58798
195.858 16.5303 4.32494
194.362 19.2424 5.172
231.73 19.2145 4.97406
229.36 19.5209 5.11586
221.825 22.4337 5.88759
190.101 19.5042 5.27182
197.777 18.426 5.04354
205.391 20.7257 5.63899
181.654 19.5716 5.45414
169.171 17.5963 4.80966
189.992 18.4426 5.1889
195.459 21.3908 6.05655
168.439 18.4935 5.22632
177.864 18.2977 5.33344
206.876 19.8652 5.53317
181.14 17.1202 5.129
205.725 19.6237 5.78467
176.085 19.2389 5.89388
183.963 19.3087 5.74518
195.262 21.3308 6.51961
163.406 16.7646 5.08485
178.787 16.9518 5.16663
193.353 20.7682 6.56263
175.47 17.7453 5.50017
166.262 19.5306 6.04969
184.798 19.597 6.32627
172.352 19.324 6.15349
157.618 19.873 6.34348
163.841 20.8339 6.72154
171.007 20.8003 6.66514
163.467 20.3609 6.7396
191.559 18.4048 5.97322
190.045 19.0584 6.28038
141.609 19.1246 6.4038
174.838 18.2683 6.31806
175.005 17.7646 6.02966
178.029 21.4455 7.17667
152.562 17.8012 6.2646
164.306 20.0586 7.05719
152.254 18.4292 6.30335
175.012 18.6635 6.35385
141.728 18.7962 6.645
167.088 19.1043 7.03556
141.724 18.7011 6.56862
156.28 19.8442 7.36537
135.462 18.2209 6.52984
137.927 18.06 6.79862
155.353 18.4508 6.67089
135.98 18.9003 7.15576
123.989 16.9189 6.48363
107.559 18.4248 6.92988
107.236 19.7063 7.47359
163.359 18.4862 7.22798
128.318 23.3907 8.72059
100.839 18.2671 7.06587
129.979 18.9701 7.31788
110.606 18.2414 7.15536
125.155 19.9712 7.91115
135.911 17.3093 6.69061
131.419 18.169 7.3468
137.343 20.9588 8.3399
143.913 22.3816 9.27988
116.109 16.7038 6.86764
124.496 20.0551 8.16763
149.438 17.5792 7.00947
117.991 17.3999 7.27204
135.298 18.3433 7.69847
117.103 18.0273 7.8251
127.436 18.861 7.82443
129.666 20.0944 8.4318
132.286 18.2493 7.85508
131.35 18.9911 8.07439
108.028 17.8926 7.86214
115.857 21.6884 9.42325
154.228 19.7482 8.52276
136.595 19.2543 8.53197
115.683 18.7173 8.45326
119.495 19.6949 8.9506
115.936 19.3259 8.68622
110.318 19.0986 8.52645
121.721 21.0744 9.39755
115.435 18.5229 8.6858
111.698 18.9163 8.74081
104.663 17.5996 8.39992
132.624 19.2758 8.94694
114.106 20.1453 9.35441
115.973 18.8474 9.15844
129.736 20.3574 9.81361
119.63 20.643 9.75863
113.148 18.3251 8.80469
113.747 19.6596 9.42553
103.712 18.8478 9.09603
115.861 19.4493 9.44263
96.8818 16.5993 8.31406
93.8371 19.3144 9.45664
103.335 20.0691 10.0089
92.1838 19.2127 9.71918
97.5283 20.8504 10.1735
96.0756 20.1149 10.4088
94.8409 19.1579 9.51827
111.387 18.4495 9.49291
90.2289 18.9563 10.011
90.2163 20.6867 10.4444
102.373 17.9846 9.54114
110.292 18.7947 9.75919
90.6779 18.6806 9.92023
94.6864 19.2247 10.3158
101.095 21.1302 11.1811
99.9275 20.6907 11.1511
90.1947 16.4596 8.83684
97.0496 17.4615 9.50862
103.616 18.5259 10.0141
94.3432 18.1221 10.0312
101.031 18.4299 10.1218
103.279 17.4276 9.54502
103.612 19.059 10.6902
98.285 19.2274 10.7446
98.7374 19.4212 10.3805
102.914 18.7852 10.7812
105.633 18.8208 10.9009
116.161 19.0053 10.9933
99.786 19.8188 11.1688
103.115 17.6918 10.0932
97.8302 18.8572 11.1704
94.9862 16.8921 10.0159
99.7731 20.4781 11.7166
86.7906 18.543 11.1037
95.3969 19.7165 11.3389
95.7261 18.398 10.9855
90.5337 18.4191 10.7906
80.1306 17.8107 10.5885
91.3793 18.717 11.3768
88.0741 20.0049 12.2028
86.0185 18.0666 11.3209
84.0804 17.4725 10.7992
85.4953 16.6719 10.2077
87.5419 19.3407 12.0102
83.5156 18.4387 11.4595
81.6844 18.3655 11.8668
72.5197 18.8616 12.3419
91.8985 20.3138 12.3804
86.8243 19.5766 12.3171
74.9349 19.5672 12.861
76.5 17.4505 11.0033
86.4554 18.5099 11.9013
82.028 20.4312 12.824
76.8748 17.3808 11.6667
80.6262 16.7874 11.1341
82.545 19.7601 12.9772
78.1088 21.6527 14.2217
85.598 18.5064 12.8151
86.7615 18.1106 11.7822
73.5314 16.64 11.4252
84.0711 18.6928 12.4399
91.9331 18.2869 12.1895
83.5026 18.2487 12.8256
76.8315 19.1214 13.2089
83.9978 17.6824 12.2218
82.8957 19.0364 13.2209
75.4802 19.2601 13.467
82.7324 19.3418 13.9374
74.8352 19.2256 13.7132
84.2429 20.5824 13.9755
72.2562 18.1732 12.8383
85.5098 18.6067 13.5704
78.6805 16.4896 12.118
69.5186 17.8031 12.9463
79.87 19.0317 13.752
83.6119 19.773 14.3714
69.4598 19.5264 13.9145
65.4205 18.2318 13.6436
76.9915 18.1178 13.338
76.7306 17.1075 12.5704
74.1382 18.3465 13.8036
66.9496 18.8822 13.8977
73.2881 18.402 13.948
78.4754 18.4676 13.6524
76.6614 19.8938 14.6216
78.1532 18.1794 14.2305
67.6539 17.321 13.2881
64.842 19.4991 15.2541
69.0302 18.1528 14.2037
66.3301 19.0884 14.7604
71.6767 18.7619 14.441
64.6301 16.6089 12.4019
62.4815 18.5829 14.1587
66.4658 17.5863 13.7523
62.4785 17.289 14.2036
65.2177 17.9874 13.8783
67.7839 16.5008 13.1599
62.7934 19.8752 16.3858
63.291 20.195 15.7304
64.4529 19.6378 15.6564
70.2251 19.098 15.8159
69.1177 18.3588 14.7687
61.284 17.308 14.3643
66.5243 18.8513 15.402
76.5641 20.227 16.5221
64.5273 19.1414 15.9442
65.4683 19.3611 16.2861
70.8567 17.3562 14.0659
65.3035 17.7186 15.0845
64.0445 16.9754 14.2987
67.3924 17.8239 14.6188
67.4933 19.141 16.9649
69.4893 18.6529 15.677
75.0549 17.9728 15.5514
72.0898 19.2601 16.5383
66.8824 19.5546 17.1001
58.4928 18.6789 16.4083
66.0522 17.7678 14.7611
57.2166 17.2444 15.4662
61.0123 18.4707 16.4636
55.2023 19.1298 16.8847
58.4121 18.2304 15.5394
59.0025 17.7629 16.0099
56.523 19.1776 16.9684
70.0813 20.2238 17.9549
65.9067 19.0562 17.6248
48.952 17.4392 15.6129
57.7867 20.4955 18.4074
75.8932 20.7093 19.1854
54.1944 18.3847 16.7095
61.5134 17.6521 15.9126
51.2093 18.451 16.7905
52.9374 18.9187 17.5947
62.483 16.7232 15.7908
52.8132 17.2637 15.7489
50.9326 18.647 17.5817
50.3003 16.8991 15.5942
54.6365 17.2519 15.9471
50.3027 16.9211 16.4753
54.6949 17.9396 17.4769
59.5579 19.1018 18.482
64.6027 17.9992 17.0378
50.2999 17.9956 17.1229
56.5355 17.8909 18.0836
54.024 19.5939 18.8494
58.3076 19.0997 17.8223
57.0098 16.6068 16.5593
56.6988 18.9578 18.3041
51.0441 17.503 17.4629
48.1612 17.2088 17.1511
54.5369 18.5506 18.6414
62.2357 17.9381 17.5894
50.9937 21.0896 20.5357
54.766 17.9992 18.876
55.6452 17.7008 17.9574
52.6667 17.7678 18.0431
56.0066 19.3235 18.5189
60.3787 17.9393 19.1523
46.2682 18.0661 18.4388
51.5313 19.8271 20.5777
54.2383 19.9778 19.6019
44.4527 16.0255 17.3488
51.9977 18.4579 18.7272
53.9148 18.4686 19.6622
51.8653 17.7621 18.1774
48.541 17.176 18.3707
61.3027 18.7347 19.4559
50.1112 15.2605 16.2658
50.1662 18.1365 19.0553
52.0446 17.8484 18.9589
54.4892 19.5543 21.0289
57.0072 17.8714 19.2477
50.455 17.0471 19.12
49.4531 18.5747 19.4621
47.9537 17.3532 18.6383
47.3218 17.7946 19.5333
50.6768 19.2354 22.0605
48.0594 18.5166 20.2328
46.5788 18.1484 20.0512
48.2896 19.8417 20.8498
45.2958 17.8002 19.9714
51.5397 16.0568 17.0113
42.4533 16.7092 19.3274
53.7816 18.3788 20.7261
49.4105 17.5382 18.8946
48.4607 19.1539 22.6858
49.6532 17.8942 20.1246
45.1056 16.8602 19.1205
48.9948 18.5612 22.0071
48.9697 17.5963 20.5806
45.8658 18.0759 19.7571
46.6541 17.1934 19.9112
44.8139 16.9252 19.9116
51.16 18.2014 20.8377
44.5208 18.3467 20.7739
47.8694 17.6358 21.0691
43.6429 18.3776 21.4493
47.5708 18.546 22.8511
46.8564 18.3877 21.2549
52.4193 16.3829 18.3589
45.5947 17.6515 21.5978
46.4649 17.5091 20.4567
46.4441 17.5048 21.4263
42.1645 18.1946 20.8978
45.869 18.0491 22.5731
45.6391 18.2585 21.2206
43.0766 17.689 22.2053
43.0353 18.2488 22.1965
45.3544 18.1376 23.1363
52.7432 17.3163 21.5434
44.0597 17.8194 21.7333
50.3897 17.3095 20.7151
45.5024 18.5863 23.2047
43.2145 16.6527 20.4076
41.9844 17.1814 21.4405
40.64 17.3549 20.7808
41.5331 17.351 22.3802
43.5786 17.4436 22.0291
41.4438 16.8742 21.1229
40.5595 16.694 20.9789
49.4298 18.3077 22.3979
39.5537 16.4855 21.4733
38.417 16.238 21.6087
46.0794 16.4075 20.8857
36.4136 17.0038 21.9549
35.6466 17.5284 23.6528
45.1373 18.3988 23.1862
43.4669 17.2154 22.3941
36.0401 17.9206 23.4134
48.4093 17.6772 23.2503
42.4655 17.8483 22.5242
43.4622 16.3457 22.8416
38.3316 17.0504 21.8728
40.648 17.1381 23.1083
43.0835 18.5122 23.33
45.6326 18.4551 25.4558
44.1082 16.5318 21.5593
43.0348 18.554 24.2776
40.9096 19.8426 26.7845
42.7024 16.8193 22.5154
38.4459 17.9268 23.7495
42.7133 18.6113 24.7048
40.7748 18.773 26.774
39.8337 19.4093 26.6151
40.9456 19.539 26.6879
33.6416 17.2814 23.6668
35.5353 18.7346 26.4494
57.6014 18.3814 24.7499
35.6795 22.864 31.0267
33.3252 17.6652 23.5198
39.3606 20.0185 27.8195
36.4468 16.9091 24.0288
38.4319 17.3462 25.5857
38.405 16.5568 22.9593
37.5872 17.8251 26.3197
37.8348 17.8909 25.3315
38.7249 18.5997 26.3124
35.274 18.2966 25.2784
34.7819 16.04 24.2483
36.5635 19.3293 27.9004
29.731 17.1228 23.6936
38.6502 17.8824 25.9403
36.2577 15.8342 22.4221
35.0369 16.6412 24.4342
31.3253 17.5567 25.2011
39.8987 18.5863 26.5961
36.4489 17.4118 24.9986
31.9539 16.3879 23.658
31.6063 19.3728 27.7817
35.9496 16.6319 23.6314
34.5636 15.7935 23.8828
36.8625 17.1941 25.2229
32.3423 16.4653 25.3375
34.2572 18.2805 26.2486
34.054 18.2348 28.1626
36.4747 17.4263 25.8518
37.556 18.2634 27.3935
33.4688 16.5854 24.8563
27.8411 16.9093 24.8344
36.413 18.8435 28.7865
34.0977 17.0362 25.8867
37.0644 17.7953 27.3661
34.981 19.2856 29.3855
38.7978 17.219 25.3545
34.187 17.0381 25.4883
33.2423 15.9318 24.485
32.7874 17.3487 27.2501
30.3627 17.2262 27.9296
32.6205 18.0224 26.3158
32.1783 17.5242 28.6317
34.0443 16.8583 26.2845
27.752 16.383 24.9143
30.5542 17.9062 28.0126
34.5072 15.1855 24.5424
31.1318 16.4142 26.7261
29.7515 18.1534 27.3217
28.624 17.0065 26.3274
31.0096 15.1085 23.8785
32.7103 17.2394 27.5614
36.774 17.8563 28.9085
31.4335 17.3469 26.9947
28.3557 16.9927 27.1519
33.4162 17.0327 26.8531
33.1126 16.7038 26.9113
28.7606 16.3668 26.2141
33.2102 16.897 27.4403
35.5994 18.0712 30.3402
33.6837 17.9913 29.0199
35.7887 19.0838 31.3706
36.0205 18.23 29.1116
34.4175 16.6826 27.1063
30.2464 16.1791 26.4857
28.9917 15.5277 25.9758
30.9258 17.8126 29.8315
31.871 15.8072 26.436
31.8644 14.3378 23.2925
32.0932 15.9608 26.3317
35.2669 16.4868 27.7854
31.6675 16.5588 27.8048
30.3484 15.8473 25.6066
33.0272 16.2806 29.2262
27.4311 15.3262 25.2134
33.9248 15.915 27.2325
31.9872 15.3007 25.3051
29.0189 15.13 26.3181
29.9791 15.9463 27.4754
31.5173 16.5193 28.0907
31.0894 17.1695 29.703
31.0957 15.4897 27.0885
27.056 15.6475 26.9738
30.7574 16.6933 28.0801
30.9578 16.2613 27.8001
29.8931 15.3153 26.2943
29.2152 16.468 29.6759
25.3079 16.6864 28.0678
33.2568 16.8985 28.9549
29.8369 16.8552 28.8009
26.3368 15.0604 28.8441
29.0879 15.9909 26.3562
32.1532 16.9027 30.8436
28.4475 16.7528 29.1186
27.6022 17.2628 31.3278
31.5676 16.0177 30.2657
32.571 17.6806 33.7526
31.1306 20.5667 32.3221
29.3693 17.7581 29.3545
29.2012 17.881 33.4873
25.5996 16.0355 29.8336
29.9569 16.3427 28.5569
30.5685 15.9633 29.7373
27.1782 17.577 31.5143
28.2113 14.7141 27.7944
27.911 16.2536 29.0622
29.4127 17.2449 30.3255
24.3209 15.1673 28.7701
28.1433 16.7851 29.8075
28.652 16.8235 32.3135
30.1572 16.029 30.1281
27.8244 15.5662 27.3184
31.4676 15.274 28.5126
32.1466 15.7296 29.5258
28.529 15.5102 29.8482
30.6295 16.512 30.7234
28.8511 16.7869 31.4454
26.7855 16.2474 30.1858
27.1844 16.4451 30.4446
26.7441 15.6843 30.1543
26.3821 16.0295 29.8345
24.8551 14.7065 29.4811
26.7631 16.6191 31.3718
29.6099 17.3156 31.1255
28.9962 15.4583 30.8355
24.9122 15.6881 29.5801
28.4733 16.5889 32.9071
26.6029 17.8729 33.1079
26.5437 15.634 29.4637
25.658 15.6895 30.5717
27.4301 15.8441 30.0971
29.6346 15.7025 29.7993
24.2302 15.7769 31.0427
27.5782 17.4301 32.3923
26.9133 14.5434 28.5152
23.1464 15.122 29.3314
25.8983 13.802 26.0062
23.8554 15.9509 31.8873
21.6959 14.7812 29.5119
26.0172 15.0501 31.332
27.3268 17.0961 31.6525
29.2792 14.4158 29.2688
26.4817 16.2666 32.9795
22.0889 15.9357 32.8191
28.5201 14.8464 30.9851
27.2078 16.7885 31.8113
26.6695 16.171 32.0368
26.7548 15.876 33.6437
21.4608 15.1273 28.1859
24.5488 14.7175 30.285
25.5058 17.3332 34.7164
27.1076 16.9431 33.0046
26.216 15.1546 32.0104
26.3834 16.955 30.6908
29.1269 15.7906 33.3599
26.3808 15.4872 32.0057
25.0587 15.554 31.2757
25.431 15.6027 34.871
32.0199 15.3372 29.6699
27.2899 15.8044 33.7024
25.2643 16.2791 32.3811
25.1568 15.0782 32.6396
24.6641 15.7569 32.981
25.8538 15.5301 32.6204
22.9027 16.1233 33.5042
29.5088 14.8282 31.5434
26.9626 15.4953 31.2172
22.0599 15.1537 31.5748
27.5933 18.0916 36.159
29.6367 15.4727 31.7522
21.5922 14.4756 29.5528
22.7878 16.8686 34.0076
22.2693 14.1476 31.5613
21.0385 15.6659 33.3204
22.2634 13.6765 30.9648
24.0085 16.39 33.2784
21.858 16.3734 34.7649
19.7408 16.3585 35.0453
23.3379 15.8846 34.3631
21.8593 15.1703 32.6636
23.0212 13.8675 30.1659
25.9436 14.8088 32.7355
24.6691 16.1468 34.7014
21.6109 16.6225 36.0747
22.6525 16.0507 31.8395
23.2303 15.7618 36.0309
26.5155 15.7589 33.7067
20.3734 13.9351 30.1852
21.4418 14.9887 32.1137
23.0355 12.885 27.6662
21.3324 15.38 34.3368
23.8529 14.9138 30.896
24.7468 16.1751 37.9978
21.9574 16.852 33.2777
24.9159 14.4428 33.2642
24.2944 14.5831 32.0987
20.8291 13.7116 31.5701
22.2733 13.8987 31.9817
27.5598 15.0526 33.4034
24.1114 16.991 38.3795
22.2622 15.4201 30.9839
21.7884 13.7781 32.8246
23.1722 16.1339 37.1064
22.5816 16.9278 37.2081
26.8873 15.4933 36.6798
23.658 14.6585 30.5197
22.4679 15.3043 33.1894
27.1393 15.5768 35.2255
25.7035 13.5279 32.707
24.2264 14.3265 32.0099
27.6183 15.1255 33.9486
22.3135 14.0029 33.2676
28.0452 14.2905 32.4609
21.9437 14.4316 33.1833
22.4425 16.2743 36.4366
23.8273 14.2113 33.7424
22.5136 14.4988 33.0423
21.97 14.1083 32.2597
22.6842 15.7043 33.833
20.0835 13.9108 32.4559
21.7888 13.508 33.3268
21.4037 14.609 34.5066
20.433 13.3835 33.4604
22.3236 13.6621 31.2112
21.7929 14.228 34.0237
20.7025 15.5166 35.6649
24.0984 16.1175 35.8894
23.2346 14.3072 32.2503
19.6629 14.4927 33.6623
19.1438 14.9162 35.5255
22.6154 16.4105 37.7472
22.0541 14.5759 37.4882
18.2138 13.9287 32.7556
21.4246 15.216 35.1143
25.2797 14.2088 35.4723
19.8409 14.107 33.8147
22.2564 14.0069 33.3985
19.6558 15.2539 35.4546
24.2373 13.5209 32.3918
20.7886 15.1176 35.2215
20.2532 13.4977 33.4835
23.9804 14.4342 33.5873
22.3074 12.3088 29.81
19.6742 14.3883 35.0353
23.1227 14.4891 36.7856
20.0175 14.9393 36.8651
21.8902 14.6256 33.668
25.6601 13.9147 33.128
19.8518 13.4455 31.9576
20.6029 13.0456 33.1089
22.4316 15.4042 39.087
21.1399 13.979 33.524
24.0666 13.8803 35.7065
22.7499 14.3216 35.3647
20.3335 15.8982 37.2167
19.9958 14.6674 36.9035
19.3752 14.7079 36.5084
22.3508 14.4514 35.1872
19.9672 14.7748 39.0709
20.758 14.1709 37.5052
20.2754 14.8395 36.5335
22.3485 13.5364 34.2611
19.162 16.56 37.9079
19.0939 14.5795 37.7844
18.0443 13.2801 33.1688
19.1639 12.8338 32.6875
18.392 13.6282 36.2107
21.6658 14.9874 37.0943
20.2473 13.0377 34.2922
18.9766 15.5391 39.308
25.5545 14.4694 33.9828
23.6525 13.4014 34.1168
18.1378 13.567 35.8984
21.7481 14.3487 35.6695
19.4888 13.4335 33.3681
21.9774 14.3303 36.4001
24.6507 13.4822 34.7324
19.6388 12.7551 31.8293
21.7989 16.2565 40.7469
22.5563 14.9888 38.942
22.4158 13.9256 36.4826
20.6011 12.887 32.5425
22.2679 15.2429 38.8391
20.3842 13.8898 37.0553
22.03 14.0863 35.8574
20.382 13.0773 34.1998
18.7099 15.234 39.4081
21.771 15.158 39.1889
34.5648 14.1165 41.7278
20.2454 15.9733 38.9171
22.9344 14.3094 38.6585
25.1804 14.2876 36.0241
24.1515 14.9574 37.6774
21.2574 13.5813 36.3086
20.6014 13.9874 34.8315
21.5471 13.3069 35.2028
19.6118 14.4625 38.1499
22.1027 13.7491 35.1451
17.681 13.4295 36.2296
19.164 13.0354 35.2497
18.2238 12.9343 34.0369
16.1074 14.4216 38.1622
19.6364 13.6615 39.591
17.8329 14.3156 38.66
19.6152 14.9647 36.6722
20.3196 13.9548 37.62
19.9554 15.0351 40.1992
18.2037 13.826 34.3431
14.5655 12.7472 37.0701
17.0843 12.3276 33.7728
19.0803 13.2969 38.9555
16.5077 12.927 34.4054
16.9988 14.6906 40.1468
16.869 13.1609 34.8124
17.8742 13.3504 36.7815
18.4791 13.5517 39.2262
19.1919 12.2434 32.6228
17.7567 12.7797 33.5594
17.0038 13.756 36.4373
15.9503 13.6308 39.0288
20.8465 13.7797 36.4116
17.7183 12.8224 35.6036
19.3731 14.1803 40.2113
19.6111 13.0745 34.8434
23.6025 14.1054 38.4498
18.5477 13.8162 38.8652
20.3659 15.0348 39.5526
18.1063 13.1858 39.603
19.1644 14.2201 36.5905
17.283 13.1232 36.5247
18.3567 14.8347 40.2249
20.6784 13.266 35.7843
16.2182 12.4479 36.9255
18.7857 13.8898 39.3016
19.7111 14.0431 37.8371
17.2485 12.7486 36.8102
17.8783 13.5647 40.3694
17.1848 13.9459 39.7916
18.0579 13.2994 34.3833
17.4181 12.224 33.6863
20.0373 13.0435 36.8624
17.3872 13.9217 39.2214
17.8458 14.14 38.5715
15.7471 12.8082 39.2884
17.5849 13.9311 37.0223
13.3986 13.1074 36.358
16.8758 12.5137 36.1603
17.4115 12.7927 38.7709
17.0215 14.3105 39.8277
17.4195 13.8767 39.8721
19.4485 14.3493 40.93
19.0311 12.4633 34.9883
15.0842 13.938 40.0622
16.3145 13.2231 37.5923
19.2497 13.6059 39.6108
18.0689 13.2826 35.1246
17.8687 13.514 42.1712
19.6829 13.3058 37.2575
18.9467 13.7339 38.6638
18.9671 13.0259 37.3489
18.7357 13.2894 39.8087
17.9303 14.5114 40.7082
13.7163 12.7754 38.6918
17.0894 12.5584 36.2837
17.9146 13.4601 41.7104
15.555 12.078 34.1764
15.6752 11.5215 33.4514
17.2344 13.0982 39.4312
17.9269 13.5968 39.688
17.7954 13.8506 38.5956
16.5237 14.4097 42.3526
17.1869 12.5855 38.5052
19.9332 12.2622 40.0935
18.519 14.1231 38.8401
16.8833 12.421 35.8015
15.6782 12.1902 34.7676
19.447 11.4307 33.4869
16.794 12.4963 40.1319
17.8083 13.2585 38.0718
16.8979 13.0496 39.6834
16.8315 13.4803 37.5565
14.5173 12.3143 36.9525
15.0997 12.7667 41.356
15.898 15.0332 43.0741
17.7588 13.5389 45.6063
15.7662 16.416 44.8169
17.0414 15.3864 45.1887
18.24 12.645 38.9905
17.8442 13.7354 39.4242
16.9956 12.79 39.2285
16.0172 13.2633 38.7045
13.0814 12.9313 40.5323
15.2883 12.1002 37.5743
15.638 12.7493 40.1846
16.6742 13.5496 38.0067
13.0208 13.3356 41.2784
17.7163 13.4049 40.025
14.8973 11.6729 36.027
15.7641 13.1429 39.906
15.563 12.083 41.4404
16.7527 13.4828 38.0692
16.0222 12.2591 35.022
16.1263 12.4802 38.5599
15.9931 11.9263 36.0254
16.7342 12.4047 39.1334
17.1348 11.6913 37.0892
17.7836 13.3322 40.731
15.8359 14.3754 40.7494
15.1816 12.6492 39.9676
16.9526 12.6868 42.5306
17.803 12.9312 37.0176
16.7999 11.5806 38.1594
17.9578 13.7973 39.166
15.944 11.6179 35.8609
17.642 11.9082 34.9366
16.1556 12.6102 43.9051
16.2708 13.6184 42.8165
14.6005 12.4531 36.3218
15.8251 13.0468 38.8599
15.4558 12.4422 39.0308
14.7628 11.5372 38.5947
14.284 12.1935 38.4554
16.0272 13.2676 39.5578
14.4318 12.4916 42.7559
14.4239 13.7299 41.7894
15.6792 13.0609 38.9914
13.0919 13.0381 40.1482
14.8642 12.1703 43.2022
15.4126 13.1693 41.8173
16.8681 13.4437 40.604
14.9308 13.4237 42.8368
13.5795 12.7214 38.3732
16.3161 12.5387 39.4224
14.5018 11.0068 35.3134
15.6311 12.4737 38.5665
14.8348 12.2355 40.4837
14.0496 12.255 37.8294
15.0281 11.3854 37.1274
14.9664 12.5589 42.0394
17.6522 12.5498 38.3399
16.3519 11.3322 37.6793
17.1304 12.8649 37.2614
17.743 12.3754 40.6308
16.1831 12.4288 39.4827
18.8253 13.3161 42.9157
15.8458 12.0536 40.5998
19.8452 11.9044 38.3086
17.1209 12.584 44.5073
17.2653 13.6799 41.0924
15.1208 13.2745 40.6822
14.6678 11.743 39.5657
15.5756 12.6682 39.7043
15.0245 11.5082 36.9987
16.2936 12.016 39.0486
15.4797 11.2268 37.5009
13.7683 11.4417 35.0481
15.5928 12.4685 40.725
19.4079 12.9424 42.6606
14.3321 12.9352 43.172
17.3107 12.3914 40.3541
16.8815 13.5104 41.7543
13.7662 12.4707 41.4676
14.5894 12.337 39.5549
17.6414 11.7654 37.6572
14.7069 12.4284 43.3564
13.559 13.4901 45.5209
15.8665 12.5391 38.3415
15.0531 10.7157 38.861
13.6645 11.1291 36.9384
15.0692 11.8168 34.5443
16.4789 12.0852 39.9397
12.477 11.7483 39.9899
13.7647 11.9062 41.0026
15.0831 12.5155 39.446
15.1202 12.0171 39.9364
13.0291 12.5089 40.3013
12.581 12.7149 40.2874
14.3643 10.9508 39.9747
14.3713 11.3958 36.7551
14.7715 12.2943 40.2325
15.2179 15.1433 56.7283
14.9627 14.5538 43.343
15.8114 13.0331 41.1479
14.9714 12.9436 41.0578
13.2669 12.349 43.0441
14.1367 12.4076 40.903
16.6667 11.3446 40.3434
15.1086 12.388 39.5844
15.5986 12.3683 40.3876
15.275 12.5387 43.4321
14.6699 12.1704 41.8418
14.8441 12.4597 39.5798
16.9463 11.3647 40.1342
15.725 13.3761 43.5171
15.6102 11.6463 38.7184
16.1177 10.8091 39.0971
16.0737 11.7135 38.9617
14.0748 12.0096 41.843
15.6384 13.4293 45.14
15.903 13.568 42.229
15.9739 12.6635 45.1786
12.8664 12.5004 39.7253
14.4413 11.5379 38.6339
13.0611 11.2278 40.4207
12.2669 12.9933 45.0475
13.9466 11.5768 42.3785
14.0055 12.7151 40.3672
15.1272 12.9552 42.7584
13.5514 13.0475 43.3676
13.2197 12.4701 39.3586
14.3219 12.6628 45.7939
14.7012 12.4461 43.3168
15.1161 12.8338 42.5227
11.6287 12.2362 41.8044
12.8687 13.33 45.6601
16.3543 13.9397 45.6685
12.2487 11.7969 42.1669
13.5776 13.0599 45.1577
15.068 12.6615 41.4375
12.5197 12.2613 40.2201
12.9188 12.1981 43.7215
13.5351 11.7633 45.6641
15.6316 13.1502 41.9855
13.8041 11.8912 43.6045
14.9803 11.6727 41.1389
15.4768 11.9541 40.8075
15.5361 11.8411 41.0592
14.7799 13.3853 47.774
17.2062 12.5071 44.2336
16.2851 12.6287 42.8286
14.0036 12.3384 42.968
13.3824 10.5729 40.3483
14.7507 12.8855 43.3143
13.9183 11.7891 38.4258
12.9214 10.7188 38.4339
14.4031 11.912 37.5826
15.0883 11.7313 41.9145
13.7095 11.0119 42.7482
14.6941 12.7412 43.09
15.2568 12.541 43.4527
15.4864 11.2383 40.7711
13.7563 11.7913 41.5823
14.0195 12.1175 44.462
13.8874 11.6322 39.478
15.4889 12.7179 41.6327
14.8961 11.5846 43.0713
15.3302 12.2076 41.6084
16.6097 10.7994 39.9429
13.8175 11.7943 43.9088
16.8136 12.7055 43.4708
15.2165 12.8709 48.4903
11.7688 12.9635 45.4184
14.1445 12.9172 45.1912
13.2168 12.2846 39.4674
11.8622 11.1288 39.882
13.628 10.345 39.2502
11.6057 12.3794 41.8845
13.7468 11.1838 39.5148
15.2922 10.6039 37.9547
13.97 11.8993 39.8439
13.464 11.4594 42.6352
14.1153 10.78 40.4513
13.0243 12.1916 45.7742
14.1575 12.6333 43.1554
14.8155 11.2643 40.1907
13.5121 12.6124 44.6371
13.5863 11.3201 42.9757
16.3412 11.8077 44.9255
14.9772 12.7302 42.8746
13.8331 12.1179 41.6484
15.4386 11.4895 43.7501
15.1664 11.476 42.7701
15.431 12.2756 42.8549
15.6989 11.1089 39.1305
13.6148 11.979 42.2306
17.4592 12.8541 44.8504
26.6429 13.0561 54.0139
13.8785 13.652 43.2896
21.657 12.4697 43.6042
20.8316 10.9054 41.3315
17.5454 11.9647 43.1511
16.7525 12.813 48.9508
17.4591 11.36 39.1948
14.6625 11.5303 44.6786
15.5587 12.9594 43.8799
13.7602 11.2773 42.5085
13.1928 11.9345 40.7319
15.3897 10.8465 39.2889
11.3908 11.8015 42.3601
12.9064 10.409 40.9072
13.482 11.4986 40.7394
12.9273 11.1922 43.1002
12.0572 12.0973 43.6786
12.9742 12.3461 42.2103
13.2574 11.7822 41.3859
12.3019 11.31 42.6067
11.2012 11.4908 39.8563
12.647 10.1958 38.1991
12.2051 10.5051 40.5073
12.818 12.0278 43.7827
12.2615 10.8686 38.6018
11.9903 11.3554 43.2588
14.2481 11.5936 41.9243
11.285 11.7514 44.4037
13.5463 12.3425 44.3439
16.2719 12.1562 41.9104
13.235 11.133 42.0219
13.1249 10.89 39.7911
15.2363 11.2323 42.3701
14.4235 11.9501 42.6163
14.6304 11.7321 43.7394
13.9724 11.5992 45.5524
14.9846 12.4215 45.0053
13.98 11.2003 40.8755
14.0338 10.6049 40.2138
13.0234 12.2984 45.6639
13.4039 11.8976 43.289
12.8199 13.0744 46.5
13.5894 10.1085 41.4164
13.8703 11.4463 44.2599
11.0811 12.5872 42.0157
12.9358 10.0017 40.0032
13.8937 10.6322 41.9954
12.8223 10.7932 38.8041
13.5758 12.4435 41.3097
12.5298 11.8989 44.0817
12.624 11.1828 42.0619
12.3863 10.184 40.9921
14.374 11.9123 48.1215
13.4384 11.8527 41.6499
12.5618 11.1011 40.0518
13.3418 12.3341 45.3853
14.3309 10.1858 39.188
11.1274 11.9871 40.7321
12.4514 11.8939 46.5326
12.9179 12.8699 48.9516
13.2836 11.2746 39.6861
12.1067 11.5973 41.4271
12.9569 11.0002 43.6271
12.4559 11.2135 43.1258
11.997 10.9387 41.5217
10.4748 12.1 45.6597
12.9898 11.0878 43.8469
11.9375 11.789 41.9088
11.2891 10.2641 40.4264
11.5727 11.185 39.4127
12.8307 10.8018 42.1757
12.2866 10.4732 40.1818
14.2262 11.5476 41.4854
13.755 10.9796 42.4218
10.3379 11.5539 44.5499
13.1342 11.6161 41.9774
12.4141 10.7669 45.8355
11.4716 12.185 45.2494
12.7901 11.4551 41.5361
12.3318 11.5408 42.1167
14.1258 10.114 43.0093
14.8717 12.4395 45.232
13.543 10.9822 40.8651
14.8904 10.9714 45.3697
15.9359 12.2727 42.8856
12.5023 10.8955 41.4704
14.6694 10.2569 41.6975
12.5527 12.4955 44.5389
15.692 11.6038 44.3009
14.1303 12.8147 42.0128
13.1829 11.4053 46.9064
16.919 11.5979 43.0613
14.9206 11.3765 42.8841
11.1292 11.6318 49.2662
13.3792 11.2575 36.6051
12.0869 9.94713 41.8443
12.8387 12.2666 54.918
11.5535 13.4047 45.5251
11.2011 11.3845 44.3945
12.1301 11.2986 42.8411
11.4182 10.816 44.6656
13.1671 12.4441 42.4981
10.9872 11.4809 44.6152
9.31264 11.0933 40.7096
12.6761 10.2154 40.3657
12.5482 11.9079 44.4779
10.6643 10.0407 40.0116
11.363 11.8296 46.6359
12.8081 12.5027 49.4862
15.3319 11.1144 40.6299
13.2635 11.4418 45.9914
12.838 13.2142 46.6378
14.5784 10.592 40.3108
11.9784 11.9395 45.7611
13.1751 12.1833 43.1451
13.6316 10.6775 42.3822
11.9982 10.2918 41.5927
13.5753 11.2687 41.3362
13.1064 11.1833 47.8241
13.5699 10.886 43.3147
12.4254 11.1151 43.5084
13.6174 11.281 39.5093
13.4102 11.5298 42.6005
13.8316 11.4629 48.2946
12.8032 11.852 40.3428
12.0145 10.9456 42.8946
15.2932 9.43184 40.2566
11.9202 11.8499 48.8505
14.3162 11.726 42.5662
11.8301 11.7205 42.6921
12.5196 10.8361 43.872
13.7556 10.4031 40.4111
11.981 10.7155 42.751
11.6848 11.5085 45.0319
13.1034 11.1985 43.8048
10.834 12.1403 46.3687
12.733 10.7346 41.3447
11.4225 12.2924 47.7195
11.0683 12.4026 47.9768
14.3642 11.7595 41.9161
9.68596 10.8752 44.6401
12.9937 11.1312 41.5413
11.9451 10.5526 43.1905
10.5246 9.91468 40.0542
13.6219 10.9124 45.9336
12.458 10.7481 38.855
12.7914 11.4512 46.2015
13.1385 11.1827 39.0862
10.3083 10.2142 41.7028
13.5173 10.9889 40.4754
11.3475 10.1983 43.6557
12.2549 11.324 41.7945
12.55 13.3563 52.2155
12.605 11.094 44.747
13.2595 12.0921 46.757
12.3007 12.1674 41.86
12.5828 10.6409 46.0588
11.9654 11.8135 44.6105
13.4656 10.6284 45.021
12.7986 11.9016 45.823
15.2503 12.2387 48.9248
11.46 12.143 47.1986
12.9738 12.9116 44.4905
12.8135 9.83755 45.0222
12.2531 12.7257 49.3901
13.5192 11.8949 42.906
12.2822 11.4251 44.7658
9.9725 10.8646 47.8965
14.4212 12.0556 43.5394
13.6113 11.9163 48.862
10.9475 10.6043 41.444
12.7824 12.1045 47.1202
13.0279 11.5823 45.5878
13.1761 11.0409 42.2566
11.0031 12.2903 42.591
13.0572 10.2867 43.4945
12.9215 11.8743 49.5371
9.77798 11.9112 46.4361
14.0115 11.7203 47.5685
13.0881 12.084 45.1135
11.0512 11.3219 45.9326
13.2526 11.5465 39.2366
11.8493 11.5137 48.2748
9.35017 10.2919 44.8175
11.4045 12.348 42.4215
10.6997 11.3448 47.7505
12.531 10.6224 41.9421
9.7914 10.6692 39.643
8.51286 11.1485 45.4078
13.1878 10.9877 42.6983
10.9597 10.3141 42.2462
11.3518 12.4541 45.5815
12.2366 11.6519 58.5544
11.859 13.361 42.7668
11.5914 11.6382 45.47
12.0497 11.938 48.6352
11.2519 11.3792 41.1536
13.0442 11.2816 44.093
13.3436 9.9839 44.4442
12.7841 11.0061 40.5758
12.7596 10.5094 42.3621
11.5979 10.671 40.1811
13.7328 11.6932 42.6126
12.7339 10.8494 40.8334
13.5356 9.63115 38.7027
13.4913 10.4383 46.1401
14.1701 10.9803 42.9557
14.183 10.8729 42.4537
14.0362 10.3567 40.5286
12.3843 10.5848 41.3251
12.9866 11.3556 43.988
12.0192 11.4317 48.6848
13.9164 11.3007 43.3057
11.464 11.8779 47.0054
12.0702 11.6525 48.101
12.8182 10.5872 43.7037
11.1848 12.0742 42.8054
11.7661 10.6093 41.6471
12.7877 11.0935 46.096
12.5055 10.7249 42.8835
11.8488 11.959 43.4106
10.4119 10.4624 44.0974
9.68943 10.6001 44.0721
11.8896 10.9939 41.8485
12.3374 10.9681 42.402
9.20634 11.7812 45.3802
11.8848 11.0431 46.3025
13.2645 11.3052 44.7158
11.9339 11.183 43.4605
11.9573 11.5674 48.3301
12.5649 12.924 48.0179
11.7633 11.8589 44.9365
11.1699 10.1212 41.4653
10.1051 10.65 46.9893
12.821 12.0786 44.0007
11.104 11.641 46.4703
12.2085 11.2339 43.059
12.812 11.0438 49.0156
13.5453 11.6787 40.6732
11.1172 11.3232 47.4763
13.9693 10.7235 40.303
12.5185 10.3373 40.767
13.1209 10.6388 48.4217
11.9643 12.1069 40.6302
12.8187 10.8492 43.3706
12.3456 10.3603 40.6013
11.9547 11.1026 44.4825
14.7382 10.7504 40.5571
12.7939 10.7632 40.0264
12.2375 10.1214 42.2262
12.9463 10.3954 42.5173
12.3996 9.73665 40.3687
14.4925 10.7445 44.7275
11.4056 11.4377 45.9985
13.166 11.0709 45.8219
11.5863 11.9859 44.1395
13.9408 11.8785 52.116
13.5762 11.0468 45.045
13.2783 11.7279 46.6256
12.5852 10.5725 44.2423
11.7562 11.6011 45.9115
13.993 10.8665 43.6339
12.2362 10.8596 44.3514
11.0762 10.842 39.046
11.7796 10.5614 42.809
10.9598 10.9944 50.5027
11.748 12.6914 42.0405
10.1518 11.0284 47.2586
9.79078 10.2973 40.0436
10.3555 10.0936 39.6972
10.6534 10.5608 42.2011
10.5694 11.0518 38.9211
10.4154 9.9667 45.3821
12.3762 10.7527 43.5253
11.1297 11.9448 48.5963
13.1722 11.586 44.3496
13.4385 11.6216 47.035
12.317 10.6905 46.481
11.6936 11.8991 47.8633
14.5932 11.5882 47.1241
13.5665 11.0593 39.7155
12.7327 11.0167 42.2365
14.183 10.3934 41.1226
13.9236 11.5075 50.2025
16.4349 11.1078 40.2847
14.8528 11.7845 47.4891
14.5607 12.6143 49.754
17.596 12.3143 46.5043
21.2259 12.3228 59.6849
12.3534 0 0