# pn-170911/RbIIR-58-AMC2-1280-1959.psd
# Power spectrum* (dif=0,1,2) (really just |FT|^2)
# NOTE: only the first half! (symmetric)
# weeks: 1280-1959
# 298 clock-days, 220 excluded
# PSD: 1441
976.499 0.0966577 0.0820726
30534.2 0.34133 0.156517
287935 6.28415 0.168914
10046.5 0.431968 0.178369
80999.6 6.26332 0.16879
4953.97 0.521417 0.151841
6181.35 0.968519 0.184749
2159.25 0.468648 0.171205
2824.28 0.822559 0.177923
1636.41 0.542579 0.164909
1377.04 0.633972 0.168084
1175.7 0.637354 0.159339
972.964 0.635935 0.17426
971.582 0.699766 0.166745
787.807 0.708294 0.174727
691.943 0.731596 0.169547
702.462 0.755229 0.176163
643.264 0.764475 0.173366
588.805 0.896745 0.188635
576.13 0.918335 0.167502
522.548 0.959289 0.193686
501.657 0.950616 0.161955
521.187 1.0778 0.172601
439.249 1.04526 0.16516
463.846 1.22255 0.188747
459.823 1.31222 0.174831
429.453 1.33776 0.168848
357.971 1.23096 0.193379
418.003 1.40904 0.166807
418.596 1.51153 0.18958
370.023 1.47681 0.169134
395.632 1.7421 0.190089
343.037 1.52886 0.163896
340.692 1.64849 0.18315
312.25 1.7408 0.172341
379.749 2.08637 0.163667
324.756 1.94569 0.184159
340.143 2.11706 0.1793
283.709 1.84836 0.182579
338.217 2.35955 0.200651
301.04 2.24146 0.184424
314.896 2.45241 0.19076
291.146 2.39354 0.187355
273.823 2.40594 0.209638
276.296 2.43809 0.185164
316.397 2.97095 0.215035
289.61 2.7773 0.199303
276.969 2.86575 0.206771
289.797 3.09184 0.186527
296.978 3.24052 0.220678
261.051 3.06031 0.213266
277.61 3.36555 0.228691
297.296 3.74881 0.217392
277.075 3.55909 0.230308
271.243 3.60412 0.210034
289.872 4.05195 0.244889
268.249 3.90756 0.244729
272.079 4.20686 0.216639
297.524 4.58713 0.245123
232.572 3.90429 0.252331
258.253 4.17026 0.241285
264.829 4.56123 0.243043
247.849 4.59151 0.2771
233.477 4.3335 0.261276
213.24 3.97785 0.275552
215.435 4.17592 0.245199
238.381 4.75792 0.266514
242.777 5.25519 0.25474
222.365 4.82151 0.244489
220.908 4.92426 0.312925
246.157 5.56891 0.309238
214.012 4.94449 0.281838
206.449 4.99343 0.324797
257.361 6.40239 0.333197
230.876 6.03737 0.333018
226.986 5.84328 0.326259
240.173 6.33589 0.319201
207.992 5.81604 0.365082
231.607 6.64138 0.365341
181.551 5.24725 0.31915
228.55 6.64491 0.378895
215.732 6.6131 0.373709
214.273 6.596 0.37539
224.611 7.22389 0.419246
221.894 7.30569 0.374203
211.421 7.23079 0.433364
208.653 7.15193 0.442671
195.131 6.98914 0.422787
200.212 6.93722 0.412436
197.273 7.31115 0.478655
189.761 7.0222 0.436188
174.606 6.82465 0.439919
176.79 6.98728 0.465873
170.92 7.11626 0.437246
187.99 7.71372 0.479474
175.706 7.66555 0.487895
218.335 9.5389 0.578425
196.219 8.36584 0.543604
214.825 9.8139 0.606759
172.618 7.80631 0.544125
180.92 8.2632 0.535154
176.782 8.29808 0.572085
178.019 8.86415 0.599464
164.976 8.0821 0.590807
158.651 7.64173 0.557485
154.75 7.96951 0.588657
167.952 8.87136 0.616707
160.971 8.61445 0.613435
150.808 7.97347 0.574024
156.002 8.76882 0.664435
150.52 8.33313 0.676376
155.454 9.19603 0.654595
147.173 8.45467 0.66768
160.377 9.57678 0.677708
153.335 9.30184 0.770226
159.324 9.83045 0.740275
149.157 9.50761 0.796434
164.637 10.706 0.776883
153.13 9.86643 0.794438
146.947 9.34811 0.755186
155.206 10.6526 0.866969
166.131 11.5425 0.930391
137.711 9.57664 0.807773
136.852 9.72738 0.856669
134.238 9.46377 0.827842
152.683 10.8689 0.952832
171.472 12.9199 1.11321
127.776 9.60449 0.821822
136.047 10.6829 1.00731
147.083 11.6868 1.10733
140.664 11.0505 1.07998
134.373 10.7436 1.05487
140.669 11.2407 1.06136
124.253 10.215 1.01472
123.192 10.1283 1.00349
128.049 10.5333 1.02618
125.288 10.468 1.02601
125.994 11.1415 1.12098
124.916 11.0411 1.11184
112.576 10.3038 1.06145
134.33 12.15 1.28771
121.814 11.2409 1.20454
119.394 11.2903 1.18955
120.565 11.6351 1.28609
121.213 11.9093 1.32774
134.961 13.3308 1.46367
122.409 11.9638 1.34697
128.706 12.6069 1.46896
130.731 13.6077 1.49842
131.183 13.5561 1.56187
130.388 13.5609 1.54279
128.075 13.4331 1.59669
139.293 14.4472 1.70217
106.773 11.5228 1.38273
98.9095 11.0915 1.37309
110.03 12.2736 1.59441
124.373 13.8335 1.71174
107.035 12.3517 1.5525
111.666 12.6885 1.55607
106.656 12.2801 1.6083
100.256 11.8172 1.50426
125.349 15.1789 1.97558
112.384 13.4014 1.73307
118.483 14.4357 1.83669
107.383 13.4411 1.79867
112.861 14.7432 2.12302
117.149 15.1291 2.11374
117.965 15.098 2.11408
117.75 15.1355 2.1641
106.751 14.4344 2.05302
102.689 13.6496 1.94394
99.9829 13.3276 1.84742
105.194 14.3377 2.06367
103.123 14.4834 2.13151
105.146 14.4902 2.11235
105.004 14.7269 2.19023
122.861 17.8325 2.66871
98.6236 14.1832 2.17607
112.426 16.8355 2.59911
96.1542 14.3852 2.25606
118.808 17.941 2.82298
102.19 15.1496 2.38901
100.883 15.2182 2.4184
106.702 16.5884 2.73729
101.036 15.8097 2.69388
93.8781 14.9981 2.52414
97.7895 15.2721 2.66254
97.7564 15.6857 2.58309
96.0397 15.8021 2.68128
103.23 17.0443 2.95611
98.7798 16.5914 2.96364
95.7054 16.3338 2.95647
96.9476 16.6267 2.92747
90.8812 15.7638 2.84053
91.2778 15.6331 2.85777
98.3015 17.8511 3.3573
91.4217 15.7283 2.91903
86.2669 15.3293 2.85347
97.5057 17.4021 3.26941
91.8131 17.5194 3.45978
91.09 16.636 3.14132
98.3292 18.6502 3.65868
96.1465 17.9459 3.51194
94.6175 17.7813 3.47185
102.748 19.3295 3.83901
89.4312 17.6696 3.59463
92.3961 17.9857 3.65149
91.9079 18.042 3.85312
107.137 20.9129 4.09068
98.4143 20.4384 4.2121
88.5453 18.1159 3.77496
80.1375 16.8505 3.73048
94.1858 18.7293 3.95546
93.4395 19.7 4.34138
87.4651 17.9635 3.8391
92.2391 20.1706 4.5309
95.6251 20.0969 4.31286
95.1483 21.1271 4.74156
76.1032 16.7057 3.81664
88.5895 19.6313 4.53613
87.0027 19.0653 4.28755
81.2637 18.4835 4.31945
80.5521 18.5461 4.3166
81.6985 18.6668 4.3649
75.7435 17.2915 4.06933
88.4332 20.5799 4.89189
84.092 19.7696 4.69682
85.1468 20.4268 4.8499
82.2545 19.0452 4.48111
76.4126 18.0491 4.33921
81.1764 20.1874 5.17757
84.1673 20.6721 5.07103
75.0798 18.8289 4.80586
77.3123 19.8548 5.18117
80.0456 19.6919 4.93962
74.5378 18.8722 4.92366
73.6714 19.1007 5.03048
81.2936 21.1307 5.60086
85.377 21.648 5.63135
83.0655 21.5069 5.86956
81.9277 21.0662 5.64964
84.5658 22.2117 6.14579
79.3803 21.1952 5.6973
76.8155 21.1891 5.88435
77.1732 21.4909 5.97971
84.6628 23.4436 6.54694
73.976 20.6408 5.7171
74.2856 21.3465 6.32264
91.9382 25.3304 7.08261
81.2632 23.2333 6.74911
78.5068 21.8047 6.34068
77.3083 22.5074 6.7083
75.0382 21.6961 6.53092
80.3778 23.5921 7.14928
76.7976 21.7809 6.38882
73.7436 22.177 6.7688
72.3089 21.4935 6.46638
69.4832 21.8118 6.81604
80.2908 24.2415 7.54111
75.613 23.7263 7.40272
80.245 24.3548 7.51534
74.6206 22.9896 7.10432
81.5961 25.1197 8.09163
85.6444 26.9928 8.4997
94.7877 31.501 10.3251
64.6961 20.0254 6.44891
73.0173 23.8529 7.96966
68.3272 22.1028 7.10851
75.6695 25.6364 8.57482
68.0745 20.901 6.76802
71.4796 23.4005 8.00473
71.4146 23.637 7.96189
72.6138 24.6648 8.31171
62.7237 21.4011 7.56561
73.2441 24.9645 8.66196
70.4199 24.71 8.84163
72.8354 24.282 8.48723
76.8468 26.6122 9.308
76.8587 27.5465 9.71082
70.3438 24.9514 8.94239
67.4235 24.4279 8.94932
74.292 27.3034 10.2384
77.6219 27.108 9.64137
59.8126 21.9269 8.39678
69.3498 24.8009 9.32171
62.8861 22.7006 8.36895
64.516 24.4102 9.40902
65.1944 24.7492 9.90429
90.5367 33.382 12.4299
63.7314 24.69 9.78656
74.4282 27.527 10.4026
70.8942 27.4321 10.8856
76.7251 29.4788 11.7009
74.486 28.3922 11.0231
78.8962 30.5691 11.9943
78.3829 31.1824 11.9813
74.7511 30.6482 12.7545
81.45 30.2146 11.2199
71.7969 29.3212 12.371
74.7151 30.1264 11.7063
70.0439 29.7052 12.6696
76.0279 31.4293 12.9935
69.0326 29.2775 12.5376
70.4304 28.589 11.9012
76.5153 31.0794 12.9262
71.1171 29.7602 12.7161
68.7419 28.6492 11.981
63.1346 27.1621 11.6708
70.335 30.6947 13.5039
60.5291 25.6045 11.0932
60.5979 26.5047 11.9176
64.0707 26.9906 11.6939
67.4549 30.0492 13.4255
58.9425 25.8867 11.6051
62.0044 28.4192 13.0748
66.0553 28.2563 12.4508
68.074 31.5171 14.8677
69.3998 29.9487 13.2627
70.7869 32.9352 15.6336
64.3363 28.9144 13.12
62.5906 30.0404 14.2412
55.9721 25.487 11.9333
53.5808 24.9361 11.9358
56.0178 25.7136 12.0469
65.5247 31.5213 15.2867
58.819 26.9103 12.9421
60.6421 30.2766 15.0013
56.1131 26.1412 12.3268
63.5438 32.2633 16.2033
58.9352 27.3926 12.988
61.6716 31.0522 15.5777
65.5459 31.9667 15.6174
69.3064 35.5012 18.542
58.2619 27.6736 13.2926
61.6281 30.9965 15.412
57.5277 29.2147 14.8566
64.4449 32.6997 16.3936
53.9638 27.5939 14.5336
51.0992 26.35 13.8301
53.2219 26.9672 14.3488
60.8559 31.9946 16.8883
53.5984 28.0578 15.0648
60.059 31.2307 16.3923
54.8377 28.5128 15.2106
47.6101 24.1497 12.8748
52.6478 28.7002 15.9155
53.1025 27.7365 15.0164
57.3153 31.1932 17.1137
55.4928 29.5168 15.6491
56.7933 31.93 17.9389
57.1222 30.8084 17.185
61.3582 34.326 19.8473
60.9411 32.7165 18.156
62.7146 34.4434 18.8898
53.1697 30.5396 17.7527
58.8056 32.7969 18.4938
57.2113 32.4224 18.7219
61.0129 34.0105 19.6832
60.3741 34.7578 19.4846
50.5355 30.7421 18.6764
51.9167 29.2282 16.9276
49.6978 29.6689 18.1557
54.4091 30.9961 18.0612
55.4049 31.6575 18.5247
54.7536 33.0589 20.6242
52.4266 30.6224 18.9235
69.1328 38.5369 21.0755
57.0634 34.8286 21.6644
62.4321 38.9532 24.1286
55.1467 34.1694 21.501
52.745 31.8312 20.3085
56.1634 32.5736 19.5596
61.942 37.8388 23.4932
51.3994 31.0639 18.9367
58.5961 37.1095 23.5702
52.8453 33.7209 22.0187
56.4915 34.8042 21.4391
49.726 29.8352 18.3937
51.6394 32.8916 20.7782
47.2073 30.1698 19.5863
44.6869 28.5881 18.5783
48.5241 30.5707 19.8115
46.8734 30.1996 20.0952
48.528 31.4493 20.8197
53.3381 34.8364 23.2543
46.5678 29.4631 19.0807
45.1441 29.319 19.5537
46.534 30.5239 20.1238
47.9439 32.6171 22.2771
50.9455 33.5493 22.5038
44.3345 28.8783 19.2746
49.3431 34.625 23.8292
47.7603 31.7985 21.4968
46.5329 32.8156 23.0156
47.2387 30.8766 20.9026
49.4781 34.3091 24.4141
44.4825 30.496 21.3506
51.7698 35.6881 24.7615
45.5337 31.0142 22.2159
47.4483 33.375 23.9631
46.194 30.6564 20.8558
37.8283 27.3488 20.1594
40.039 28.5963 20.365
40.322 28.7285 20.8482
40.5986 29.1691 21.3476
41.2942 29.7782 21.9932
37.8547 27.0386 20.0451
42.7109 29.3116 20.9699
45.3823 33.0754 24.2898
47.3155 34.4533 25.0467
40.4228 30.3353 22.8163
42.7287 31.2495 23.4922
40.0201 30.6558 24.0875
43.1208 31.5703 23.4084
41.4926 31.8357 24.3149
40.2207 30.4531 23.4664
43.961 32.4953 25.3752
46.4988 34.0737 25.1463
41.3014 31.3914 24.2107
37.5673 30.7357 25.0753
42.4154 31.6741 24.7369
42.0913 31.7946 24.0838
38.038 29.6072 23.6914
42.6223 32.7008 24.9661
45.2369 35.1255 27.2245
44.2675 35.0222 27.9403
43.2995 34.6194 28.0232
41.7625 32.1988 25.6201
36.837 31.2623 26.5573
39.2672 31.347 25.6751
39.3454 30.9254 25.4474
37.8401 31.4412 26.3537
40.8013 32.0945 26.7399
38.0076 30.3424 25.736
42.7007 33.3224 26.5759
39.9321 31.7832 25.4513
36.4842 30.1396 25.7137
36.8261 29.414 24.2801
37.9927 32.5416 27.9069
35.7122 29.1805 25.0802
40.1911 33.8435 28.5892
42.2608 34.9529 29.3376
35.259 29.8433 25.7479
35.1338 30.5895 27.3265
38.8128 31.9421 27.2576
37.1876 32.3278 28.8595
35.674 28.9797 24.8468
40.772 35.7892 30.6082
38.8587 33.1861 28.9559
34.3926 30.2032 27.9222
38.9249 33.5284 29.8763
40.5255 34.0112 29.0622
33.8615 30.6951 28.6586
41.3062 35.8727 30.9266
36.9026 32.0932 28.9917
39.7497 35.4862 30.8349
38.7561 35.117 32.4612
39.1862 35.8063 33.0463
33.4647 29.8704 28.0862
31.955 28.4187 26.7346
38.4495 33.8537 30.5839
39.0504 37.3579 35.1745
34.5416 30.7276 28.655
34.6308 31.6172 29.2576
38.372 34.8856 32.739
33.8938 30.6134 28.5316
38.042 35.2783 33.5176
39.2583 36.6565 34.3418
39.452 37.9453 36.5396
37.942 35.3475 32.84
33.6164 32.8186 33.425
38.6935 36.3153 34.1248
37.0958 35.8542 34.7256
34.4506 33.6088 33.4263
35.7856 34.334 33.6069
35.9914 34.0159 32.8691
31.8462 30.6826 30.4009
37.0027 36.3092 36.3424
34.1919 32.0039 31.2137
29.2184 29.5709 31.8084
38.6175 35.1469 33.136
35.9424 36.3062 36.549
33.5468 32.2159 31.7298
34.7953 35.2404 36.0746
32.2616 32.7323 34.8841
33.1152 31.6667 32.6502
35.4584 34.2756 34.6423
36.2134 37.1018 38.012
35.9723 35.7818 37.0939
34.1221 33.9843 35.0283
32.9578 32.2041 31.8814
30.947 33.1055 35.4037
30.2825 31.4252 34.8345
33.4324 32.3965 33.2543
35.0374 36.3089 37.9091
30.5525 31.0013 33.6351
32.1424 32.9289 34.9061
37.7729 40.1276 42.2016
32.1531 33.1064 35.5555
35.0788 36.5813 39.499
37.6508 40.3395 42.8339
35.2914 35.8981 37.7086
33.5715 37.0525 40.8504
32.7355 34.5427 37.1381
31.5505 32.6538 34.5975
30.4011 34.2748 39.8954
33.0675 33.4992 36.0685
32.01 34.4819 36.168
29.9988 32.7503 36.1202
30.2997 34.4814 38.9129
29.6224 32.7171 36.9889
32.5121 35.6625 38.6597
27.177 29.8108 33.557
27.3458 30.0573 34.0288
30.7004 35.0499 40.9247
29.0727 31.2005 35.3545
29.8802 33.3079 37.7267
30.4181 34.2853 39.5349
26.3875 28.0307 32.0334
29.9963 33.6434 38.385
28.56 31.3883 36.6241
33.2147 37.3796 41.6282
26.4591 29.03 34.3936
29.2379 34.1602 39.6397
29.5639 32.8682 38.4676
29.0273 33.1536 38.6596
30.2226 34.9671 40.2567
29.5674 34.7797 41.826
31.8239 34.3413 37.7954
26.478 33.1888 40.6233
28.3691 33.1269 40.4689
28.5283 33.4957 40.6466
31.0436 35.9331 42.307
31.5081 37.7087 44.1747
28.2499 33.9765 41.2999
27.6729 32.8332 40.3307
30.0514 35.7928 43.6198
31.1782 36.918 44.5657
28.8436 34.821 43.0157
28.6489 34.9568 43.6565
24.5785 29.1965 37.6471
28.0097 34.4696 43.2248
27.9298 32.6422 39.948
25.1766 29.7194 36.8233
29.4157 36.162 44.6905
26.0807 32.6801 42.3124
29.0199 36.1956 45.7847
25.5978 29.3865 36.1782
26.8594 33.6165 41.1939
24.873 31.0467 40.6851
27.233 32.8809 40.2968
25.1283 30.658 39.3032
26.0572 32.7826 41.0544
24.5063 31.7987 43.2101
27.1134 32.9806 42.4792
30.6342 37.765 47.1896
30.8949 40.9248 51.996
24.9328 32.9009 44.3656
26.5222 33.8507 43.9893
28.1829 37.2694 50.517
28.1801 33.8573 42.5935
26.9481 35.6028 47.7546
28.6149 36.8403 47.9515
26.6213 33.8039 43.4928
24.4688 33.2414 45.1311
22.4588 28.5293 39.1056
23.5808 31.0799 42.3575
24.9328 31.611 41.5107
24.9503 32.8945 44.4018
22.8506 30.6475 42.3523
23.5405 32.0675 44.415
25.0282 34.6589 48.405
25.0932 33.2078 45.4281
25.3125 32.1259 43.2571
24.6877 33.5056 46.5374
25.0981 34.4567 49.6842
27.8977 34.6594 44.0644
24.9743 35.2842 49.0607
24.5475 33.3622 46.2398
25.0829 34.0528 45.447
22.6126 31.3332 44.2323
21.749 29.9287 44.3681
27.161 35.8874 46.8852
22.1418 31.6045 45.6902
22.841 31.2445 43.9699
22.5294 32.6102 47.4848
23.3878 34.255 51.6019
25.1716 33.6386 46.8126
23.5279 31.3539 43.8211
26.5674 37.5737 52.4237
25.3583 36.3382 52.8942
25.7443 36.8322 56.0141
26.4865 36.7991 52.191
25.1212 34.8566 49.5984
22.4145 30.0009 44.0935
24.6374 34.5009 48.0643
20.9155 31.3711 48.9637
23.3877 30.8543 43.0203
20.1127 29.1616 44.4695
22.2324 31.6047 47.4093
22.5437 32.8688 50.0673
23.1146 31.6857 45.1695
21.2261 30.4618 46.1437
21.6417 31.1153 47.194
22.6971 30.9874 45.1286
22.3214 31.1708 43.1472
21.2306 33.4035 52.5793
23.7764 34.8463 54.5257
25.2435 35.264 48.8114
22.7191 37.3428 59.9484
25.7369 38.819 61.603
25.9315 37.2526 56.7447
27.0838 39.4269 57.3398
25.4086 38.2006 59.2175
26.644 39.2741 61.1503
26.9688 40.0663 60.4726
25.5957 38.6039 59.5862
25.1298 35.5957 54.5637
23.4537 33.9318 48.0768
19.8839 33.7135 53.2401
21.7088 35.808 58.4066
22.8313 32.3932 49.8888
20.7988 32.4032 51.6097
21.7755 32.6433 50.5783
22.3811 35.6926 54.7737
19.95 32.1376 54.3241
21.5295 31.9534 50.9172
22.1117 33.9926 51.8675
19.2132 29.787 46.5911
19.0695 31.051 52.4061
20.3775 30.5217 50.1858
21.6461 34.1184 54.6103
19.9565 31.415 52.542
21.8706 34.0274 53.6926
20.4709 31.6319 51.7205
19.4587 30.7697 50.1703
19.5129 29.7243 49.03
23.3324 36.6391 56.1921
19.7362 32.7173 55.2237
20.2426 32.16 52.7902
18.8163 29.7395 48.7619
17.4726 28.2888 48.9845
20.3394 32.9693 55.953
19.6363 30.469 48.465
18.2196 30.4395 51.5594
18.636 29.7285 50.267
19.3301 30.3603 49.4545
18.4765 31.614 53.0152
18.0404 30.853 53.5781
19.6017 32.9166 56.8215
19.0561 31.5525 54.7683
19.2965 31.9274 56.1586
19.2952 30.8088 54.0831
21.1612 33.8152 54.8933
18.9365 30.8297 50.8193
17.3112 28.738 49.5659
17.6548 28.2445 46.9774
17.7474 30.4243 51.5357
18.6634 29.889 50.4264
17.7701 30.7934 53.354
17.0909 27.3051 47.3535
18.4777 33.4787 61.8353
18.7045 29.9769 52.3957
19.6621 33.5142 59.2867
19.1393 31.5188 54.8213
19.664 32.9775 54.9654
16.3856 28.348 51.7213
19.3157 33.8081 59.291
18.0805 30.751 55.8595
18.5329 30.9954 53.659
16.6158 28.7764 52.8714
18.6539 32.6109 58.882
18.9413 33.1729 58.1239
18.409 31.0112 52.4621
15.4156 27.9196 54.7422
18.453 31.3602 55.3808
16.7713 29.1966 55.1761
18.4727 31.0647 54.0552
16.7201 28.8553 53.1589
18.0522 31.9706 58.1452
18.2575 31.9159 59.5109
18.0561 30.7075 54.5335
16.5668 28.1419 47.8089
13.8104 27.1398 53.7677
15.9456 29.0986 53.3059
15.3698 25.749 47.8505
15.9666 29.4547 54.4414
15.7526 27.4378 49.9278
14.813 27.2615 51.005
13.9453 26.7803 53.6202
16.8163 29.8899 54.2964
14.2469 25.2402 48.8825
16.0553 29.3275 54.5414
15.8094 29.4389 58.8944
18.64 30.6317 53.7346
15.7942 29.765 57.0736
16.1616 28.5895 51.8968
14.9228 28.4029 54.8846
16.6749 31.2859 59.4303
16.1813 29.4984 58.2215
16.9734 30.4665 57.2733
16.083 29.5494 55.4808
16.2949 31.4707 59.234
14.9585 27.6089 53.2638
15.1278 28.1904 54.4203
16.2874 31.6387 58.76
15.8914 32.3271 64.2123
16.0556 30.8668 61.7205
16.461 29.9985 57.9967
15.2653 28.6583 57.5701
16.616 31.9798 65.0843
16.7807 30.0319 59.1413
15.8885 30.0089 59.4757
17.1381 29.0923 53.4397
15.46 30.4765 61.3426
16.948 30.029 54.904
14.7508 29.1885 56.5136
14.6653 29.3621 59.3906
14.8925 27.77 54.7353
14.432 28.7852 59.9847
16.6133 30.9559 60.8032
14.3814 24.8652 47.6732
14.6047 31.2371 65.6667
15.3532 27.9255 54.1713
14.3515 28.1182 55.4462
14.7434 29.1061 59.0897
13.7402 26.027 53.9145
14.3393 26.0964 51.7255
13.4105 26.8796 59.0998
15.2169 27.8269 53.864
13.8538 28.5843 60.267
15.0785 29.2855 59.6368
14.62 29.8319 63.7734
16.0539 29.7432 58.3543
14.8171 28.9799 59.5836
16.3398 31.253 60.288
13.1639 27.1995 56.8502
14.2044 30.8217 65.5031
13.9792 28.8987 66.5962
16.0837 28.4754 55.4592
14.1646 28.8284 61.4111
15.0575 29.7596 58.8056
13.4916 27.1981 54.4104
12.432 27.0704 60.0225
13.5686 26.6066 55.8879
13.4801 28.257 58.7277
13.8838 29.0747 61.5932
14.0355 28.6847 58.4996
12.2456 24.7861 53.7055
11.9402 25.3963 56.4094
13.8249 27.6556 59.7457
14.6018 29.6277 61.597
14.0911 28.5326 60.6776
13.6477 27.3668 59.504
15.1412 29.6786 57.0927
11.9454 26.6137 59.9809
13.9913 27.6914 57.0608
13.204 29.2767 62.1754
12.6669 28.111 63.3474
13.7192 28.9889 62.8252
13.3272 28.7315 62.23
12.8906 27.8777 59.5528
11.9468 25.6385 60.4702
13.022 24.8694 53.4809
12.1703 26.8463 59.7421
12.4685 25.654 59.5573
13.1142 27.5466 62.2831
13.8478 28.4568 64.441
15.1322 30.4877 61.5948
12.4335 26.4166 56.8783
12.2593 25.124 53.488
10.8573 25.208 59.181
14.0578 29.5471 64.632
13.6185 29.8001 66.4564
12.3099 23.5946 53.0786
12.4613 26.622 59.7575
12.7716 26.2862 57.5459
12.3176 27.8909 64.3033
12.4965 25.8294 57.8395
13.0422 26.5567 58.6039
12.1199 25.6431 56.0186
12.8338 29.0272 66.4572
13.171 29.5882 68.3767
13.0012 26.5251 57.3384
12.0641 26.9264 61.677
11.6961 25.5527 59.8814
11.6769 24.0435 59.0659
13.4076 28.4326 64.4898
13.1724 28.9168 65.6259
11.8904 25.1772 57.6788
12.2015 25.5607 54.896
11.1744 26.0901 62.4902
12.1258 27.2684 65.0094
12.8663 27.1082 62.9163
13.025 28.4557 66.3444
11.8691 25.6786 60.7481
12.1023 26.9836 60.3797
11.8212 28.2397 66.3925
12.1896 26.4734 60.314
11.5049 26.4332 63.6413
12.4497 27.6254 64.7064
11.3076 24.8482 60.2636
11.8981 27.2082 60.492
11.2983 26.2093 62.5859
11.2734 25.2405 59.3911
11.4618 26.5313 62.8052
11.8171 26.5242 63.1917
11.3709 24.8491 60.3845
11.8628 26.1816 58.7062
11.0245 25.9656 61.6738
10.5522 24.1186 59.9981
10.8912 25.0924 60.6855
10.8702 24.3055 58.7997
11.1026 25.1718 63.0578
11.7289 26.6985 58.9793
10.4522 24.6161 59.5043
10.2491 23.4641 60.926
11.8227 27.6009 66.5478
11.466 27.087 62.1663
10.673 25.131 65.5554
12.1416 28.8029 69.3023
11.7738 26.3104 63.28
10.7894 24.3899 57.7868
10.5058 26.49 68.0107
12.381 28.3369 64.8386
10.6957 25.1382 61.7699
10.1858 24.1686 59.2019
10.6334 24.288 59.205
10.1867 23.9143 56.9382
10.3295 25.5377 63.5362
10.0982 23.2699 62.3844
12.1839 29.9147 69.3062
10.2551 23.4018 57.8499
10.1706 24.0132 60.1569
10.4844 26.4748 68.4547
11.15 25.7991 64.0153
10.8265 24.0255 57.6521
9.74436 23.5683 58.9476
9.33733 23.7801 62.212
10.5723 24.48 60.29
10.3636 26.4125 61.8129
9.83395 25.5961 66.202
9.87963 23.6725 63.4165
10.6117 25.4788 63.3164
10.1686 24.8439 64.7898
9.89864 22.9792 61.414
10.8699 26.8465 70.3861
12.0397 27.2219 63.0649
9.91925 24.5505 63.9564
11.2375 27.4063 64.6185
9.35885 23.059 60.0122
10.5851 26.9076 70.0311
11.1282 27.3812 67.227
9.73836 23.3363 64.992
10.8554 25.588 65.632
10.7705 24.9222 60.1989
9.02532 24.076 64.6075
10.0486 24.0979 62.0598
9.85719 24.2268 62.0055
10.1735 25.6354 61.7086
8.69323 23.2566 65.6833
10.1891 24.2096 62.5227
9.89951 24.8997 64.145
9.24319 23.6037 69.8485
11.7113 27.8915 68.2519
9.9444 22.8455 61.2012
10.4513 26.9359 63.9162
8.49855 21.6052 58.9838
9.45691 24.9672 66.8605
10.0667 24.0824 60.2144
9.34274 24.8068 66.5634
10.158 25.8409 67.6666
9.43733 23.1066 62.254
9.14952 21.1093 55.3146
8.76507 23.5806 61.8998
9.6917 24.5383 64.1549
9.37904 24.2333 65.9586
9.16831 24.4199 62.7762
8.42518 21.0587 60.4838
9.33949 24.5654 65.8853
9.68655 23.852 64.0669
10.1581 26.4233 67.9254
9.00517 21.6063 60.9408
9.17446 22.6429 63.1318
9.54252 22.7909 58.4414
8.94848 22.7948 56.96
7.81096 20.0659 58.9248
9.02453 23.115 58.9356
8.76339 24.9592 68.0134
9.17599 24.6334 66.6499
8.68877 21.996 65.6596
9.31136 22.232 60.1079
8.62301 21.4483 57.5107
8.7064 23.6973 63.5506
8.78748 22.0018 59.5201
8.23233 22.956 63.3396
8.54718 21.869 61.123
8.155 22.0256 67.8702
10.5641 25.9344 64.7005
8.72412 22.9719 62.7797
8.5525 22.6579 65.8096
8.61528 21.7957 58.9606
8.6417 22.982 63.0785
8.15467 20.7525 60.3122
9.04106 22.2342 58.6815
8.32403 23.8882 65.7824
9.15405 23.4156 64.2728
9.31302 25.2917 67.4032
8.82373 25.0087 70.3028
8.44274 20.8087 59.65
8.58011 23.358 64.3587
8.64398 22.2365 63.7495
9.23394 25.674 68.6986
8.64656 21.0593 58.9883
8.18249 23.5427 68.1283
9.08827 22.2826 60.3044
7.94331 22.5812 65.3741
8.92342 23.3527 62.4185
7.84586 22.6446 67.3463
8.25731 20.5538 59.2181
8.39611 24.2187 70.1668
9.7738 25.4411 64.7397
7.72547 21.1722 58.9876
7.11487 20.2466 63.307
8.02092 22.4712 67.2641
8.76394 21.9915 57.8131
8.21455 23.4846 63.3878
7.48502 20.7402 63.8194
7.86987 20.9203 59.9312
7.34809 20.949 63.7631
8.64817 23.8778 68.2151
9.24603 24.4221 63.5922
7.78767 22.4635 61.8823
7.72748 23.4138 70.4455
8.88582 23.8527 65.5307
7.89874 21.3493 61.6635
7.43174 22.3443 69.4844
8.6961 23.1847 66.7437
7.97984 20.381 59.475
7.74891 22.1691 65.4117
8.21735 22.0163 63.3742
7.88161 22.4647 69.2976
8.11973 20.5094 62.3962
8.85815 23.8915 61.5897
7.10805 19.3403 62.4359
7.90876 20.1467 56.9788
7.07169 20.2325 62.3422
8.01959 23.3003 67.2339
7.7366 20.738 60.8627
7.19727 20.1814 60.8507
7.62937 21.7342 63.3476
7.59679 20.7154 60.5461
6.737 18.8363 58.0293
7.33661 21.1937 64.6585
8.12759 22.49 64.3459
7.35077 20.2958 63.6247
8.04551 21.6756 59.9405
6.83798 22.0614 73.3154
8.72896 22.5061 63.9318
7.59337 22.2801 78.2988
10.3848 27.0934 66.293
7.09835 20.3031 60.2617
7.08875 19.9937 62.3293
7.39218 23.2351 77.0357
8.69418 21.7406 58.4705
7.33141 22.22 64.9579
7.70418 22.6993 67.1835
7.42974 20.3312 60.2186
7.32621 22.6516 71.2637
8.12095 22.5213 66.9337
7.46005 21.2612 61.1223
6.95119 19.6387 58.3006
6.73326 21.2028 68.0023
7.21712 19.8301 60.4807
7.01679 19.3144 64.5039
7.81292 21.6886 61.7763
7.23865 21.7814 64.2703
7.09438 21.317 65.5541
7.51344 21.1124 62.6734
7.41458 22.5443 68.9484
7.69236 20.9586 61.4383
6.99503 21.3355 69.4536
7.83344 21.9759 68.1825
7.2913 20.688 60.911
6.97862 19.4875 58.942
6.48003 19.0082 60.4345
6.60001 18.5193 58.0456
6.47942 19.5455 64.3385
7.45052 20.6617 61.71
6.6636 18.7448 62.8443
7.16611 20.4358 57.9713
6.24056 19.0007 62.7118
7.4284 20.068 55.6436
6.17088 19.3118 65.3145
6.82728 17.7567 58.3581
7.25649 20.4548 56.9503
6.31469 19.4156 60.6453
6.79698 21.7114 65.046
6.97577 21.5226 67.7327
6.73401 20.6554 68.3995
7.09081 21.2368 65.3165
6.83969 19.7636 63.7998
6.49219 17.9218 62.7569
7.49155 20.1097 59.1819
6.41184 18.906 57.7641
6.21124 18.3009 60.2231
7.09014 21.1543 60.2381
6.16994 18.1249 58.6251
6.43094 19.3079 62.5074
6.42705 18.242 60.2361
7.26245 20.937 61.8887
6.40027 19.2573 62.1665
6.32572 19.1176 61.4198
6.52072 18.9188 59.1714
6.39392 20.3963 66.1816
6.97671 19.9073 65.7025
6.80729 19.8895 58.9542
6.25355 20.117 67.7595
7.04542 21.577 72.1201
7.39864 19.56 62.5526
6.61876 20.4071 66.3886
7.29915 21.7838 68.6693
6.72391 18.2665 59.3426
6.75817 19.7222 59.7432
6.18514 20.11 67.9699
6.75625 19.4521 64.1076
6.35278 19.2793 60.6304
6.65986 19.8437 64.4532
6.56876 20.382 68.0189
6.90036 18.1724 61.0018
6.47595 18.2564 59.3892
6.30382 19.0858 63.3009
6.68304 19.3382 58.1339
6.1287 19.8482 63.5387
5.87823 18.2916 60.4767
6.308 19.1032 59.0941
5.92234 19.4442 65.2193
6.33904 19.2284 64.6191
6.73362 20.598 64.1511
6.00499 17.9933 59.6943
5.91338 17.8398 59.5689
5.68067 17.9163 60.699
6.6283 20.1991 61.3991
5.79951 18.8143 67.2333
6.77132 19.8619 60.5184
5.93073 18.3382 61.4676
5.91266 19.3124 68.7422
6.92904 20.0736 63.2526
6.12042 18.1913 60.4219
6.40579 18.7886 63.0949
6.29845 20.6581 66.5085
6.39058 20.6694 65.6631
6.05563 20.4344 69.097
6.3167 16.9007 60.3239
6.18393 19.4856 66.8454
6.9259 21.5198 73.1717
7.40606 24.7374 74.6774
6.94715 21.4521 67.201
5.80723 18.4495 64.8797
6.29232 19.4345 63.3495
5.98271 17.4799 56.4058
5.37466 16.4807 59.3691
5.87235 18.9339 61.5376
5.90758 19.5079 66.4639
6.2101 18.304 56.9819
5.34633 18.5469 68.0718
6.44825 19.3698 61.9432
5.7993 18.6082 62.236
6.01788 18.4441 58.9497
5.33763 16.0327 62.0871
6.55994 19.4361 61.784
5.8209 18.346 57.9622
5.41979 17.9211 61.3484
5.75586 19.0835 67.7737
6.24695 18.0506 61.9069
5.55743 18.3054 63.6065
6.06164 18.2114 61.2334
5.86104 19.1307 64.2289
5.62715 18.7343 62.0216
5.52643 16.7051 58.1074
5.57571 18.3168 62.6812
5.88082 17.5035 60.8041
5.81085 19.0471 62.1825
5.65253 17.8063 63.0826
5.66345 17.4746 60.2236
5.78659 18.7732 64.1273
6.0164 18.1203 59.0786
5.25446 17.8355 61.6815
5.37363 16.4022 59.6746
5.86485 19.2419 65.1338
5.72531 17.1292 55.7194
4.77588 16.5573 60.9805
5.98543 18.4112 61.6058
5.60755 18.9571 64.9031
5.76814 18.3936 62.0851
5.69074 19.2949 63.0662
5.27783 16.2071 60.8428
5.67392 17.5362 62.3656
5.78872 17.5152 56.9192
5.4777 18.2036 60.2178
4.93964 15.823 55.6058
4.93734 16.7635 55.4583
4.65847 16.1906 59.338
5.35332 16.4169 62.5717
6.06325 18.1917 57.6379
5.00213 16.948 64.026
5.71723 17.5484 60.0253
5.43278 18.7187 62.2396
5.59196 18.3459 64.279
5.49937 17.9598 62.1757
5.51632 18.7033 61.4514
5.04526 15.7885 56.275
5.24685 17.6644 60.5753
5.17137 18.084 62.9958
5.42522 18.7362 67.4404
5.33603 17.5044 63.2152
5.52216 17.5588 59.9872
4.95133 15.8667 58.3102
5.31923 17.1357 59.8771
5.15329 16.6441 58.9867
5.21376 17.8184 60.9776
5.03532 15.781 60.6622
5.71446 19.2042 66.7043
5.82723 17.594 57.119
5.16976 17.3522 58.1165
4.90833 16.9244 63.4896
5.57452 18.5519 62.6633
5.32124 16.403 53.7068
4.60826 15.5968 58.4759
5.1095 18.364 61.938
4.98203 16.3107 62.1348
5.45707 16.6921 60.3119
5.05485 16.1478 58.3678
4.95115 15.6841 60.0438
5.41587 17.0763 54.4776
4.77188 16.8938 59.8098
4.84322 14.893 56.2637
5.10383 15.7188 56.3067
4.78717 16.3528 59.8598
5.25374 16.4222 57.1889
4.73333 16.3951 61.0751
5.17958 15.8742 58.0696
5.24991 17.0882 62.2722
5.3387 17.1583 59.0584
5.03689 17.3406 59.897
4.87335 16.0218 62.8102
5.40246 17.1041 56.7079
5.01707 15.6365 56.3032
4.77814 17.3934 58.2581
4.76206 16.5602 58.9055
4.77651 16.0662 62.2661
5.15707 18.1192 69.5931
5.86998 18.1531 60.0623
5.03667 16.7961 56.7532
4.67954 16.4338 63.4177
5.54422 15.9433 54.7593
4.42923 15.7724 59.0354
4.92865 18.709 63.19
4.95015 16.599 65.8892
5.38921 17.8762 61.479
4.93871 16.2791 56.0675
4.57875 14.1289 55.6746
4.83986 15.3188 57.4556
4.74824 13.3398 49.416
4.48508 18.6823 65.9824
5.06559 16.4255 60.3761
4.80974 17.5003 59.592
4.84237 16.1826 59.1375
4.76818 17.1319 69.7802
5.71693 17.1941 61.7297
5.07449 18.073 63.8408
5.28372 17.4199 63.5206
5.23059 17.4624 64.7966
5.02641 16.7625 63.5339
5.18784 16.5365 60.0194
5.01698 16.5659 61.4583
4.91456 17.6713 59.6288
4.44923 14.3646 54.3563
4.63359 15.661 62.6999
5.05506 16.236 51.5421
4.21675 14.879 59.6791
4.56423 16.4268 55.9773
4.46171 15.4371 60.3413
4.90509 17.8116 62.2024
5.21879 16.5332 60.2713
4.78646 16.6072 60.1869
4.97832 16.1701 57.8494
4.59828 16.7177 60.6538
4.78111 16.9874 63.2673
4.98101 15.2193 60.5023
4.82699 17.1499 61.4531
4.86645 16.7305 62.7386
4.63254 15.9562 58.9782
4.71458 16.5935 64.0983
4.978 16.4891 54.7544
4.46251 14.5291 62.839
4.86968 17.1552 61.1734
4.77007 17.3361 64.4336
5.203 17.6676 63.7716
4.94047 16.5251 62.5022
4.98604 15.3983 52.3619
4.06907 14.0423 59.1262
5.09592 15.5845 51.9205
4.16393 17.0163 67.5145
5.27671 16.5269 59.5877
4.85819 15.7506 56.5876
4.3887 16.1879 63.3111
4.972 17.4422 63.7199
4.97368 16.8953 61.682
4.9475 16.3641 56.9848
4.34836 15.8961 58.999
4.551 16.0478 61.2056
4.52041 15.5247 59.6408
4.82568 16.3714 58.7579
4.42142 15.2223 59.3119
4.69069 15.0386 60.6315
4.79305 15.1936 60.1538
4.85993 16.3322 58.7339
4.66412 17.1612 62.0216
4.70475 15.7529 58.0408
4.47532 15.5698 59.665
4.65595 15.2835 56.7407
4.33107 14.7658 57.5675
4.65993 16.5844 64.6311
5.03603 16.1531 59.9232
4.91679 17.3885 59.3301
4.39867 16.5748 63.8689
4.75019 14.4756 57.7688
4.56792 16.131 53.5133
4.0519 14.3211 60.2034
4.70701 15.8297 60.071
4.51279 16.6103 65.3962
4.92904 16.8715 61.6678
4.69877 14.4572 58.0711
4.57173 17.1184 62.3278
4.63887 18.2346 64.9399
4.67731 14.7886 61.0375
4.81295 17.0523 64.8781
4.86558 16.4228 58.5567
4.60546 17.3578 65.6261
4.82141 17.2778 64.6327
4.88167 17.525 70.6132
5.00298 17.0051 59.7712
4.57188 14.2864 58.659
4.38695 16.2098 61.6922
4.82325 15.5637 59.7668
4.44952 15.9064 59.428
4.37101 18.7317 74.4617
5.37856 16.7117 60.3151
4.74328 16.7144 65.3413
4.59443 14.9634 56.47
4.28243 15.3583 64.1633
4.72429 15.5423 56.2186
4.30377 15.7439 62.4496
4.83981 17.58 61.8892
4.50558 14.8378 64.0818
4.94741 18.0964 61.414
4.37746 14.9 64.2367
4.93092 17.8864 67.6041
4.97072 18.099 69.2122
4.99984 16.9456 59.8488
4.45951 16.4137 62.429
4.70058 15.8586 56.4699
4.01557 15.226 58.3594
4.34709 16.216 66.5085
4.83009 16.1123 60.5318
4.45028 17.1079 66.5708
4.88127 16.1881 62.7466
4.69328 16.2448 62.4846
4.54523 14.8678 54.7573
3.96003 17.1713 72.7548
4.96789 17.1312 59.8944
4.37791 14.593 58.8102
4.34633 14.5827 53.0888
4.05716 15.901 63.178
4.61844 15.0191 59.2283
4.44167 16.3801 55.8438
4.07608 14.0306 56.537
4.21531 15.7767 56.8077
3.8242 13.8821 59.7737
4.27484 15.8866 61.4158
4.35905 14.8947 54.1083
3.92818 14.3364 56.8512
4.24234 14.4623 62.4588
4.55703 16.9347 56.2069
3.94569 13.0558 55.9864
4.28503 14.9294 56.7585
4.16964 14.7572 53.5832
4.10593 14.5562 59.0261
4.2985 15.2457 58.8785
4.1494 14.9787 58.7454
4.31697 15.4345 54.5322
3.99142 15.3434 60.7083
4.2653 14.8679 58.5483
4.25942 15.3404 54.1142
3.88888 14.2711 58.7442
4.1969 15.2867 59.6015
4.37259 15.3405 59.1913
4.21412 15.755 58.6887
4.0768 14.8891 62.4664
4.34896 16.1057 61.718
4.15602 15.4371 56.0043
4.01611 15.0588 62.5694
4.31061 14.0941 53.672
3.96183 14.8177 55.8592
3.94663 14.3837 53.9303
3.98035 15.5264 60.8521
4.14641 15.2346 56.4153
4.04443 15.2541 60.423
4.25029 15.4449 63.4676
4.68029 17.101 59.1273
4.13461 15.5866 63.1015
4.48044 14.8297 59.0288
4.24328 16.4873 64.0042
4.445 14.7164 62.3025
4.3873 15.7256 62.8234
4.34325 15.6959 58.5809
4.20169 15.2444 57.6353
4.21021 14.2037 56.9477
4.15068 14.7389 63.8875
4.72317 15.1617 57.0529
4.38913 14.0626 56.0601
3.95166 14.0583 54.7546
3.89607 14.5368 59.0415
4.21273 14.1207 55.6506
3.98673 14.9194 55.2067
3.93661 13.7506 53.6121
3.88153 14.5446 53.3969
3.99402 12.955 50.8568
3.7581 13.9546 58.3399
4.31009 14.8743 58.6759
4.21733 14.6366 56.7019
4.03138 14.6237 54.7402
3.7961 14.0104 57.3704
4.20257 15.6699 60.4654
4.2517 13.4757 54.5921
3.94394 14.2925 58.2373
4.17773 14.4422 57.2221
4.06813 15.019 52.8916
3.61636 14.0837 54.8657
4.08481 14.0112 56.1658
3.82021 14.5261 54.8419
3.85828 15.8236 60.7068
4.26091 16.527 78.0884
5.36105 17.2219 56.2795
3.85906 14.6717 58.5186
3.9527 12.5122 50.0733
3.56085 13.9396 56.0751
3.94607 13.3749 52.441
3.78898 13.5662 58.3239
4.08189 14.2922 54.9306
3.8479 15.0529 59.1415
4.21403 14.259 53.8439
3.90335 13.9344 56.6023
4.12144 15.0295 53.1582
3.74359 14.1505 61.7885
4.20444 15.337 59.4186
4.21341 14.7331 61.7244
4.26122 13.8405 56.2552
4.04931 14.0126 53.3138
3.93474 13.2378 52.7575
3.59223 13.7458 56.3092
3.91485 15.8746 56.9545
3.90903 13.8119 57.7295
3.96237 13.956 55.6007
3.83168 14.5085 52.3363
3.63596 12.8614 55.5764
3.86541 14.568 59.057
4.03983 15.1191 59.307
4.1664 15.6581 54.094
3.71382 12.824 55.3149
3.83533 16.2036 67.0008
4.60243 15.0069 59.3145
4.20663 15.5796 56.1833
3.82722 15.4534 63.4641
4.34736 13.5658 53.9194
3.82686 14.1098 61.2952
4.31838 14.0602 56.0606
3.87569 13.8265 58.2179
4.02172 14.4418 55.5774
3.8152 14.1111 55.8259
3.82556 14.5912 54.7326
3.87621 14.9302 58.4103
3.92391 12.4769 51.8601
3.49393 14.313 55.6547
3.89709 14.4207 54.1013
3.75229 15.4606 55.598
3.84849 13.2731 62.0152
4.4448 13.9169 56.4917
4.08438 14.5717 56.4873
3.9243 14.3202 58.6736
3.97154 13.7036 54.6254
3.76307 13.9502 56.6253
3.79673 13.6315 51.2887
3.77315 13.9791 60.0011
4.18916 15.7159 56.7881
3.9394 15.5124 60.9244
4.24449 13.697 52.2092
3.64511 13.2144 56.3766
4.21287 14.9257 51.4564
3.46256 13.3702 54.6191
3.81304 13.702 53.1492
3.74782 13.8584 59.6769
4.17624 14.2185 54.2466
3.87189 14.0771 57.2233
4.02205 13.4609 54.706
3.98009 14.7229 55.1158
3.91187 14.2722 57.4992
4.01214 14.1944 53.6961
3.87044 14.6408 59.635
3.869 14.2926 60.8269
4.31313 14.643 53.3076
3.8269 12.9576 54.8706
4.04954 15.3363 59.5763
4.13707 14.6938 57.0014
3.81935 14.5494 54.5145
3.68223 14.8037 59.2182
4.27786 14.1164 54.6465
3.88958 13.3302 52.4228
3.55535 13.6995 58.0148
3.98186 14.3047 52.4541
3.60014 13.3423 57.7557
3.99526 13.2387 54.1018
3.7401 14.462 58.5262
4.15516 15.0732 52.5752
3.69885 13.1082 54.9408
3.74127 12.2855 49.8183
3.42719 14.2669 58.0976
4.13005 14.7911 59.574
4.19582 14.9155 59.8887
4.1196 13.3845 57.6635
4.02315 16.1729 56.8573
4.04294 14.3127 60.5726
4.31822 14.2295 54.2927
3.76281 14.5102 59.9812
3.97122 14.9291 55.3521
3.89703 14.5291 64.4554
4.4073 16.1791 60.3393
4.27794 15.3897 59.5439
4.05185 15.9457 71.111
4.7933 0 0