# pn-170911/RbIIR-58-PTBB-1280-1959.psd
# Power spectrum* (dif=0,1,2) (really just |FT|^2)
# NOTE: only the first half! (symmetric)
# weeks: 1280-1959
# 3 clock-days, 1 excluded
# PSD: 1441
2292.56 0.0479555 0.0244432
43985.5 0.533503 0.0104782
282456 9.23599 0.0103469
24909.6 0.188361 0.010593
73507.9 9.94386 0.0111503
7923.02 0.313886 0.0108365
14343.7 1.70401 0.00850238
8134.19 0.493515 0.0107305
6826.51 0.446375 0.0106379
3474.34 0.465165 0.0111919
960.86 0.188754 0.00989574
1847.37 0.503525 0.00955838
4022.69 0.943647 0.0114176
1240.07 0.123519 0.0099227
872.426 0.68856 0.0121229
3494.93 1.49257 0.0114861
852.847 0.388988 0.00781257
821.863 0.577168 0.0149415
535.231 0.463206 0.010891
914.895 0.80915 0.0117324
497.923 1.1734 0.00721866
1011.8 1.63518 0.0146209
1188.15 0.964135 0.012894
395.214 0.529618 0.0116453
329.874 0.285845 0.0107398
425.567 0.456502 0.0115536
469.165 0.343928 0.0119662
218.014 0.70453 0.0134276
612.975 2.57903 0.0141644
210.202 0.958436 0.0183847
290.462 0.675635 0.0147831
502.424 2.5298 0.0272184
258.075 0.998312 0.0192436
997.489 2.76094 0.0203818
246.907 1.52185 0.0235784
462.627 1.20044 0.0125998
264.078 1.44452 0.0215234
341.263 1.20808 0.0177059
241.111 0.93798 0.00548105
672.216 3.36748 0.0508703
196.626 0.312464 0.0125771
366.005 1.81393 0.00782542
235.248 1.31947 0.0200648
218.602 3.48325 0.0581006
19.1064 1.44537 0.0280937
344.062 2.3435 0.0224476
473.409 2.3846 0.0114968
255.444 3.50476 0.0651284
462.469 2.33551 0.0485649
267.859 0.915512 0.0182933
155.323 1.07876 0.0322126
116.889 1.03338 0.0352769
281.182 2.91317 0.0727127
76.254 2.49653 0.031634
308.574 1.66277 0.0413002
452.019 8.38475 0.133812
366.006 3.34014 0.0537143
121.095 2.439 0.023952
139.887 3.62595 0.0660946
293.458 2.90731 0.0395492
281.453 5.31246 0.083131
176.648 3.28476 0.0355735
157.198 0.773206 0.0276941
231.905 4.72126 0.104062
39.401 1.19393 0.0275549
552.682 8.21477 0.213668
185.848 2.4713 0.0409496
148.532 3.69139 0.117461
126.42 1.75188 0.0845508
354.594 5.32511 0.104978
133.409 3.96962 0.0889291
385.482 8.84465 0.184644
182.55 3.33185 0.0715111
64.6432 2.72557 0.105895
274.551 4.73532 0.121079
83.9043 0.879964 0.0289913
128.852 3.50797 0.133105
236.029 7.80188 0.164745
370.569 7.35918 0.277511
119.246 1.90166 0.0965558
157.512 3.06057 0.144536
165.351 6.86962 0.195199
274.097 5.60472 0.246491
184.996 3.72631 0.137964
325.385 11.5809 0.426923
270.591 5.9638 0.214208
127.106 3.46499 0.127084
199.01 8.8497 0.314169
312.343 10.3824 0.484671
84.4381 4.2457 0.179448
112.975 4.89763 0.131946
57.7532 2.75833 0.143475
167.684 4.49984 0.210719
51.2671 3.44023 0.172588
313.658 11.3078 0.389286
190.389 9.63526 0.395686
235.049 6.58101 0.266127
76.041 4.1036 0.195325
259.912 7.22317 0.365432
129.116 3.90791 0.237448
151.884 8.54124 0.369827
88.1109 4.36635 0.306331
95.0056 3.06398 0.140674
58.7553 5.0772 0.233064
140.814 5.65103 0.284703
111.584 3.57511 0.22733
239.315 11.5418 0.48638
227.074 8.89828 0.480834
104.987 5.38961 0.28569
304.738 19.1969 1.1492
91.2881 4.41831 0.362827
62.4076 2.16416 0.12008
254.707 20.1957 1.22167
89.2011 2.7377 0.127241
128.419 8.0884 0.469993
85.5706 8.37104 0.586805
229.194 15.6445 1.19476
36.9248 3.63282 0.312516
87.3359 6.98176 0.49021
99.6113 6.06947 0.574664
108.801 10.2505 0.702634
128.577 6.14252 0.507402
396.167 26.2259 1.57082
115.315 9.36888 0.680997
82.8209 3.87617 0.326345
123.975 5.94424 0.359018
67.8597 6.09844 0.38312
37.6159 3.34589 0.288691
259.126 15.3966 1.26589
177.477 11.6283 1.02952
125.739 6.56336 0.500715
94.4117 9.22873 0.899677
209.38 15.7869 1.13633
154.515 11.5793 1.12541
135.53 11.5853 0.921003
63.237 5.85727 0.508356
371.941 27.3326 2.51292
28.2243 3.06807 0.245561
85.9499 9.02893 0.821252
56.5287 4.22136 0.399303
89.9044 9.00418 0.752844
218.209 16.5119 1.42329
143.876 14.9187 1.3674
160.98 14.2805 1.53049
78.7651 9.67372 0.911055
173.65 14.5633 1.37659
229.456 25.1528 2.5315
136.114 18.1 1.92731
241.622 21.2611 2.34757
73.7392 7.91695 0.961819
66.2604 6.31538 0.521591
65.2433 6.90676 0.777395
125.155 11.0511 1.17477
92.3514 7.11125 0.792228
145.854 20.7296 2.30688
89.3493 14.7611 1.90871
171.338 18.7965 2.29659
70.726 4.86697 0.60095
171.764 18.0566 2.30257
60.1046 8.60576 1.11331
319.861 28.0498 3.2062
58.4008 8.42548 1.17024
74.5329 5.03282 0.676341
78.5541 8.46731 0.888212
53.2797 6.32636 0.659951
87.4363 9.05853 1.02131
40.7405 4.28725 0.591677
31.8915 3.48182 0.37457
105.586 15.858 1.99647
86.8506 13.6997 1.84255
120.993 12.9543 1.76482
57.1029 7.91102 0.932051
53.6658 8.60219 1.09604
101.046 14.2191 2.14877
159.514 17.467 2.32868
88.9271 15.6686 2.60462
50.7288 2.84 0.258537
99.8467 10.5888 1.45486
98.9613 10.536 1.73103
85.1958 12.5586 1.93461
223.287 36.139 5.12481
116.593 17.8195 3.00679
90.027 10.4262 1.40721
227.424 36.2128 6.28924
42.3077 5.20272 0.578275
87.3798 12.8949 2.49936
51.5063 3.65452 0.317364
321.504 46.8995 7.72568
97.6331 17.7449 2.94342
40.7285 10.8528 2.28028
263.065 43.3045 7.25587
128.447 23.1666 3.59334
88.9823 11.1618 2.08887
80.5811 11.4261 1.52467
128.471 27.2815 5.3037
84.3025 8.54754 1.39883
118.662 19.8241 3.39668
72.1062 14.1314 2.3176
9.48202 5.48627 1.41427
249.328 39.4244 7.0952
74.738 13.5117 2.70342
84.2492 14.251 2.37548
69.6198 11.5873 2.26211
115.122 24.4488 5.23125
51.6391 5.48344 1.05369
108.123 21.8453 4.13541
149.168 24.792 4.88915
22.8087 4.38258 0.773466
33.9227 5.60349 1.07555
167.575 36.2199 7.65942
97.5989 15.9901 3.69503
158.95 36.4978 8.20643
24.9218 4.36125 1.38013
124.897 27.0373 5.52572
130.612 24.1928 5.59733
77.7109 15.8943 2.56969
257.528 65.8823 15.5431
80.0249 22.3932 6.19805
32.5124 5.48264 1.20617
155.287 25.6129 5.68483
36.9893 14.3754 4.00214
182.075 32.3506 6.74698
51.6801 7.77564 1.05981
158.982 37.1289 8.96594
63.179 12.3432 1.89987
187.436 56.1964 13.4122
95.4436 14.9109 2.98617
49.7417 15.8554 4.36161
166.816 36.4383 8.89885
39.3289 6.39277 1.16773
73.8294 21.9094 5.77653
69.8755 18.4949 5.89569
166.127 36.1808 7.8463
113.726 34.6231 10.0511
172.648 38.8273 9.59813
138.642 44.081 12.3388
162.195 30.2177 6.81928
216.649 49.5331 12.2333
124.482 32.845 8.46878
37.1271 10.7914 3.15332
49.5469 10.2857 2.03113
31.6321 7.84283 1.95374
238.778 65.2948 16.7109
18.4899 9.82569 3.98055
68.8917 14.6065 3.46115
110.846 30.5996 9.48028
149.723 33.6769 8.11544
83.5424 27.6786 7.81243
81.8471 34.6079 12.5993
120.011 33.6008 9.87893
169.093 33.1082 7.39511
125.398 26.6856 7.11004
49.3918 17.0902 6.1395
35.5432 8.26492 3.3872
190.419 49.7192 13.1928
132.257 38.9224 12.1466
116.914 28.3514 8.2795
81.971 26.4184 8.78199
17.7808 5.49643 2.34627
99.2343 31.1472 10.2506
60.2613 15.5657 4.65914
175.787 49.335 14.3445
77.1691 22.646 8.97088
57.4666 17.5274 4.44113
23.2331 7.88889 1.96406
41.3851 12.9059 4.92085
173.084 50.9487 17.3853
108.644 38.8808 12.5426
26.7495 6.62234 1.28871
150.616 55.4849 18.2372
261.879 94.2471 34.1593
27.2656 6.43027 2.04798
59.585 22.0366 7.30252
192.811 55.9988 15.9955
89.3362 34.3412 11.9264
76.9508 21.6823 7.50326
69.9711 27.0116 10.3168
134.698 41.8359 15.4067
123.796 44.7847 16.7448
34.1386 10.2244 3.4489
12.5067 9.81296 6.11623
125.41 41.1498 11.6319
111.949 42.9089 16.0578
69.9786 22.4774 7.17
91.3049 29.7849 10.6238
166.596 61.8609 23.6243
53.9154 15.8402 5.78303
71.5184 29.5676 13.5636
128.416 47.5756 21.0475
112.595 41.1618 13.9803
86.295 36.0847 14.3623
103.428 41.0811 15.4743
27.3515 9.30889 2.72427
17.4496 4.98424 1.62987
60.0644 22.2078 8.80972
12.1936 7.26758 4.79078
52.5823 23.1168 9.66884
167.933 68.5303 27.9423
52.756 20.7827 7.54157
30.4842 9.76892 3.40356
67.8772 36.3872 14.7867
70.5816 29.2214 13.0568
50.1336 14.3701 5.0751
82.6151 36.1812 17.3664
84.5252 39.1589 20.1649
171.144 70.676 29.4176
71.5469 23.1916 6.5383
43.4125 25.9673 13.4711
67.9695 33.512 19.1315
94.0321 29.2502 8.99798
119.314 63.5923 29.7122
77.8829 27.4942 9.88628
49.4153 28.2004 13.9514
118.188 43.6717 15.0613
43.5017 30.6024 15.1171
45.6869 17.1053 7.56917
39.1033 24.1641 12.7142
60.5759 18.9459 6.45576
28.1987 15.3418 8.63912
47.5961 26.7703 14.3113
37.1988 8.64191 3.04793
73.2241 26.9152 10.7883
28.4891 8.59894 3.24616
37.3178 19.0245 9.61785
34.4924 14.96 7.52437
7.87953 7.11673 3.58028
45.61 25.6198 15.2442
19.854 16.1183 11.208
94.448 37.1098 17.42
40.823 13.2291 5.5993
63.9579 24.5277 8.20792
44.2516 28.5559 14.9517
105.707 47.4941 20.645
66.5987 40.4205 26.7887
113.485 56.5249 28.5111
149.855 70.399 31.605
21.9827 9.4575 5.24516
66.6485 31.0776 15.6396
89.726 52.006 23.7535
62.975 30.852 15.2511
17.0894 14.0273 11.6633
58.0105 24.6443 9.6426
26.1631 19.6967 10.2317
110.399 70.8442 40.2194
45.4099 25.8347 19.6264
89.2535 41.6263 16.8684
70.3641 51.8622 33.5028
217.842 98.272 45.3858
34.5843 22.4056 13.5788
56.1564 29.0475 17.8167
38.3118 20.3463 13.3702
53.0024 26.5241 14.8575
60.2163 29.8296 16.1059
73.3127 39.2404 20.6506
33.8519 19.9599 12.0517
45.1916 31.7088 17.6831
46.7646 32.0967 19.7844
121.731 70.8811 39.4426
62.1856 35.1664 21.5937
31.2426 14.3602 5.74926
21.6166 17.1922 13.1818
74.0422 43.6282 24.3416
57.0306 38.142 23.374
85.0856 56.9657 34.8503
35.5746 25.3285 17.7096
39.2276 26.7679 16.8575
56.9566 31.5289 22.6289
86.8035 45.4225 26.2062
75.7487 36.681 21.619
71.7471 42.8286 24.6676
57.3963 33.6178 17.4813
14.9597 6.98921 5.40297
41.7736 28.6745 18.3073
42.1076 25.6467 18.4946
105.044 79.8084 47.3736
69.584 47.859 33.3284
78.1355 43.8325 25.6907
93.1421 56.9994 38.2336
44.0814 38.5355 31.1732
101.496 59.1222 32.6807
74.7515 37.5195 18.2528
51.7956 46.8171 33.6657
35.4018 15.3486 8.99206
13.2334 10.2335 7.30789
33.2689 25.9533 22.1902
63.1479 42.5465 28.9844
63.8614 26.8594 12.7829
32.589 38.4921 36.7198
77.4454 29.5069 15.0761
52.6015 22.6171 11.4014
78.8529 46.5787 26.8236
54.8995 31.3334 18.4895
38.9511 29.7995 21.6773
53.5602 30.3423 17.4905
69.9163 52.8136 37.7268
51.0279 55.6626 47.1101
45.3737 57.662 67.0473
293.979 173.924 93.2087
21.7564 22.897 22.8209
67.9655 40.9165 25.2215
108.22 68.5947 42.9391
125.684 83.03 52.5856
82.8917 56.3886 42.9228
66.6941 57.3165 47.239
25.2693 16.9642 8.6042
26.1221 28.0136 27.6051
29.0043 22.6261 16.7883
24.6197 9.38699 6.31809
45.2504 28.1246 22.5306
66.6945 42.5885 28.2546
59.7636 55.5938 48.2493
120.179 85.1316 59.5334
46.2227 27.533 16.878
24.6087 17.218 12.5643
60.3632 56.6063 42.1621
47.0495 41.0393 30.1514
9.9227 14.3424 20.0095
33.8254 16.0881 7.42973
13.0668 7.78547 6.26587
44.5843 30.3647 22.4283
45.8859 41.7152 37.2677
67.1036 44.1789 34.7665
51.4261 38.2067 32.9686
33.9816 19.772 9.52945
11.8367 6.89099 2.2579
61.1949 60.8052 47.9538
28.9661 33.9785 40.3986
82.7805 59.3142 49.83
38.0333 14.9895 11.8152
102.173 76.7269 54.7644
43.4049 26.1728 19.4008
101.489 95.1146 70.2849
14.2975 11.2228 10.134
47.9496 60.5035 62.8292
60.0121 38.4574 35.0218
68.2896 35.2911 19.79
42.3013 31.9818 26.0064
83.2873 67.4094 49.9929
16.5753 26.2767 32.8606
32.917 42.1264 50.0126
102.271 63.4277 31.3578
19.1732 19.4853 17.7477
20.733 16.6923 19.9745
107.375 78.2995 48.1467
70.83 80.6512 83.0773
49.0125 35.8966 33.953
71.276 64.6471 59.0579
18.2511 30.4811 39.7343
37.6556 40.9436 59.2091
63.9659 33.2507 19.6294
62.6702 54.3224 35.3104
13.1026 23.8829 35.6572
101.105 73.1556 47.7799
47.5326 46.0144 42.1831
25.0971 19.9554 20.5794
60.2525 53.7665 50.2487
66.2768 57.436 59.4758
28.1084 18.35 17.7413
59.7683 37.2801 18.9391
60.6597 54.1766 37.2643
50.2764 53.1644 42.6382
42.9047 68.4328 79.647
20.2836 14.3313 17.6733
43.1039 60.3144 92.0017
115.122 78.0116 44.8304
21.8022 29.0354 29.7759
39.455 28.1572 18.9022
60.9148 69.3516 67.8404
65.2116 46.5522 38.9858
30.6358 26.7559 25.6823
36.4606 34.5692 25.5244
25.0604 31.6178 38.5618
15.2346 9.65966 9.89422
50.0726 55.0135 46.9601
56.6553 61.165 52.072
17.226 28.9745 39.4161
24.2158 15.6448 14.5724
12.2744 7.78199 8.87843
16.7373 5.83254 4.12048
44.2667 47.7669 48.2937
56.1221 47.1132 46.8636
25.5513 26.4079 34.3112
49.0049 49.0693 49.1808
54.8756 51.5303 47.8254
32.9969 27.2464 26.9568
41.9505 46.6745 39.9319
25.031 24.0964 28.2656
25.7782 20.9691 17.8541
7.76911 13.2814 22.819
19.9788 15.5503 11.9378
48.8229 50.6513 47.9081
46.8217 56.8392 51.1726
17.368 34.1711 48.6571
60.3492 62.7174 70.9004
74.8064 53.1984 41.1248
56.6928 53.574 46.8442
14.2063 23.5739 36.938
19.5761 16.4065 14.8128
28.3199 48.4092 75.19
82.2953 74.8397 63.459
18.7651 16.6701 14.7024
12.9777 22.1389 28.9721
26.6814 36.7052 46.394
35.5788 24.0863 16.5545
6.39683 6.01791 3.48574
28.499 38.9544 53.0155
27.344 25.3613 18.281
29.0773 41.5663 51.5888
36.6181 42.7361 50.1147
56.6968 59.4787 63.6661
51.7586 71.9309 90.879
26.7386 15.9891 13.4201
30.3831 29.2337 21.9445
17.9126 17.1022 14.3973
11.5465 21.01 34.4072
53.8455 61.5662 58.5403
44.6278 46.6757 48.5533
29.798 45.1788 59.9421
61.4478 71.7597 73.4632
33.1751 47.4632 62.0137
23.2497 26.955 29.8786
22.617 44.3238 67.7801
22.9798 15.653 21.4475
62.4033 74.9904 75.8806
46.8102 62.4844 92.8965
83.9766 76.1067 63.0387
7.84999 4.8962 5.74116
27.1446 38.2126 50.9593
15.5627 13.6212 17.1665
18.9215 21.4819 30.6437
37.1395 55.8515 65.4433
26.5626 25.3623 28.8778
27.4563 46.1638 77.0303
62.9098 60.113 68.647
27.1657 39.7323 67.2864
102.378 111.023 101.922
23.028 18.6621 19.8653
24.6018 26.2436 33.4458
16.9242 34.2374 56.5225
37.8266 31.5788 44.7382
40.4431 32.2465 20.1199
63.6481 96.2297 112.833
19.2874 17.5359 16.728
13.8693 34.0788 65.9482
47.4383 39.5398 39.7025
40.9968 64.1942 84.5718
47.6244 58.5945 89.3242
55.0677 50.8992 40.0855
8.26052 14.203 24.3818
11.3107 3.17987 7.39705
56.3594 70.8303 94.1481
68.3702 59.1242 38.7673
31.2941 43.3943 52.9393
20.6036 39.7042 61.8727
41.7237 60.7949 92.8156
25.9093 28.6208 34.6981
12.3227 22.377 40.6069
26.6521 22.3582 13.9977
19.613 35.0039 34.4124
19.997 39.1594 59.9321
31.6636 59.3682 102.147
29.9908 23.5413 22.1668
21.4392 42.9186 79.1675
30.7967 18.0875 10.9421
35.153 49.3353 77.8333
57.0435 67.7187 67.4425
25.5955 42.9355 59.1881
27.6494 40.475 57.5967
46.0099 65.1815 88.3941
66.1589 88.9436 99.8336
4.79075 22.8877 73.6245
55.1053 70.5901 112.617
64.4077 45.9983 27.9634
44.9386 70.171 85.1157
61.9724 84.5312 94.4245
11.6478 14.9762 32.0399
64.3437 94.7969 130.657
20.593 20.9469 22.156
21.2872 34.3832 60.1461
34.8872 56.6393 85.5205
40.8487 77.2661 138.046
61.9844 52.7154 53.9419
34.6378 66.8991 102.682
29.5362 31.4881 62.9226
76.4986 93.8855 106.552
35.0346 54.5905 91.6653
61.6401 71.4092 85.5763
10.5141 24.8961 67.7084
57.2437 51.3817 34.4756
29.7371 60.7124 121.837
67.4868 85.6291 74.9411
15.6168 31.6437 48.2451
13.6929 35.6097 64.8696
13.7387 15.441 46.3157
40.0573 42.0693 27.452
2.4179 9.23168 17.2794
11.1633 13.3616 12.9749
23.4184 42.53 71.5451
34.7282 63.4168 83.1494
14.1486 11.0572 20.7207
19.112 39.3512 73.7527
18.2116 18.1127 30.2408
20.9153 25.6733 33.0333
25.7727 30.2858 30.2894
20.8885 44.2522 81.3507
39.318 55.3859 78.533
43.645 52.3508 69.3667
28.8143 53.9012 101.543
25.6029 24.4026 22.2012
12.6532 22.3834 30.2362
8.68933 8.66598 13.3257
40.7978 76.3407 143.043
50.2067 65.9178 89.9253
36.6073 47.9435 52.6673
35.4685 60.7724 79.7423
10.3494 16.3267 35.5649
26.8671 46.3157 75.3779
30.548 61.3812 101.295
27.709 23.6835 27.5395
12.3546 15.5932 32.5036
18.8125 24.9341 45.2106
26.4011 38.7416 44.0015
17.976 31.1395 48.5271
16.2042 26.2827 41.9823
28.9771 49.4779 53.3425
6.7029 27.0672 70.5009
27.9783 26.4262 30.1378
22.1594 28.4839 42.032
16.5562 30.0835 45.4018
28.6184 60.8859 121.254
20.7198 19.3073 24.8895
3.91266 9.0104 33.9635
25.9243 30.9591 31.1655
4.87408 4.43918 8.14515
20.29 42.3016 73.7309
38.0214 67.3009 97.1754
22.417 26.2328 58.275
63.0385 99.2209 116.562
31.1754 63.3311 108.042
12.198 22.3134 37.7935
11.9379 29.7586 54.0119
7.6663 14.7867 31.1759
17.0869 44.4917 94.9428
25.4027 31.5089 51.2485
28.5707 35.2102 49.3839
17.1494 26.7564 57.2836
56.0799 99.159 180.841
29.9109 32.7307 33.9889
17.8047 31.0159 59.733
21.4201 36.7151 69.2749
54.5829 116.654 177.378
28.1471 30.1362 40.1022
7.78707 16.5986 34.8857
12.3905 16.1711 31.5588
15.2705 26.8333 49.178
14.859 18.209 18.5971
26.4254 69.7437 160.237
29.3513 27.8914 22.0129
10.5764 26.2254 66.7942
32.5517 43.1988 51.0606
8.52619 13.006 14.3564
21.4756 46.8136 78.9224
12.4029 25.6823 33.0789
9.20664 33.749 71.349
22.4435 42.7695 90.8507
15.7004 14.057 38.8414
29.778 44.901 80.7221
23.2852 32.7719 31.6374
2.32319 7.54711 23.3392
17.2787 34.5598 61.3158
4.82526 6.22857 26.0864
21.074 45.3065 90.7686
29.9878 39.2624 48.1408
35.3679 72.1083 121.427
10.5834 17.6509 22.2712
8.52706 24.6916 50.232
10.3643 42.067 110.922
26.2554 26.624 44.5852
11.6478 20.8691 50.6286
16.5899 23.2376 63.6279
30.8455 32.4192 35.5104
19.886 31.4787 35.6696
6.01037 11.7484 38.3465
40.4257 89.1893 149.509
9.30426 15.2685 40.3211
14.6646 23.0105 47.6582
16.59 39.609 121.623
51.9054 73.2436 88.5474
22.8482 52.1203 98.0268
15.2977 14.1772 23.4941
35.1809 92.7537 180.51
32.92 35.9203 70.1594
36.7166 70.4607 120.545
27.5516 53.2732 114.91
31.0591 50.216 84.5833
33.6161 68.3282 150.516
22.7421 33.1252 76.0676
24.3085 25.1806 63.8624
41.0212 55.1817 31.6761
31.5158 94.0365 175.788
20.7773 22.6095 37.7942
11.4966 34.4681 70.6425
12.5662 15.1789 24.5187
10.7907 29.082 67.9421
15.3677 18.2064 33.5918
5.64469 12.5319 39.3684
11.4352 27.0516 67.6991
32.5716 53.2089 107.76
28.2834 39.3765 47.9904
33.2132 78.9815 167.73
34.2642 46.5175 45.2455
7.82098 18.4536 32.303
14.2654 37.4707 89.3409
16.0682 27.9262 43.4327
14.6039 41.4003 88.6147
5.88836 12.0704 68.4209
23.1537 30.2394 27.5995
2.90703 7.008 28.4831
12.3222 20.323 49.2534
23.2113 40.838 68.4031
26.1299 45.8108 57.6972
15.1182 46.1565 70.6189
11.1493 40.6365 93.2494
6.29933 23.4966 90.1919
14.6546 8.92009 30.8668
19.0136 32.2226 74.0548
27.5667 39.2724 60.279
16.9288 34.4037 64.6044
10.0885 17.8343 50.9158
29.7782 73.1912 159.201
17.5691 14.2282 29.9001
22.3935 49.8222 68.9907
14.3264 25.4051 42.8245
9.97352 36.8584 81.2087
14.5428 26.4303 71.1875
35.1168 72.2783 133.409
23.0565 38.7839 75.4346
12.4757 24.3409 55.2839
3.41786 3.74195 33.7523
18.8223 33.4607 54.6285
15.458 43.1036 98.789
17.0795 23.7209 41.3346
10.166 18.4236 20.0683
5.28553 21.6422 77.9195
22.9906 34.1468 41.6318
3.79592 8.28018 18.956
13.1411 32.978 54.3443
10.0468 39.7224 120.585
11.5294 23.0666 55.9886
11.089 19.782 75.4257
24.0107 44.9722 60.693
9.21493 12.7858 22.1696
4.03318 6.01013 15.6832
4.24788 15.8374 63.4268
17.3082 26.6681 31.7845
5.24422 11.8268 25.9513
14.1436 42.7989 97.4614
14.5967 28.0695 66.0066
20.5023 55.1665 148.33
26.4811 41.6651 57.1817
12.695 36.3429 74.3307
11.7737 22.4664 45.6103
11.6289 40.0092 142.148
41.2365 80.8796 110.857
13.826 38.9716 91.8983
14.7998 36.695 105.879
31.5732 52.1782 77.7916
10.3034 26.2638 97.2619
24.7021 54.8401 95.1725
15.5125 26.4172 66.2959
19.735 61.3284 108.568
8.77381 26.2133 116.101
22.7555 27.1878 28.219
6.53972 14.3476 45.5045
17.1289 31.6002 39.3429
7.68559 27.2055 91.6549
35.7289 79.1571 150.75
15.4899 26.6098 46.0975
11.9414 46.6423 160.858
19.1104 25.4522 29.0461
5.63108 13.5943 29.292
9.50003 29.0377 48.0436
6.11243 29.4954 94.9198
19.8998 27.2368 40.4175
7.98361 22.3914 57.4281
16.2446 35.4186 79.2729
14.5388 26.031 42.7489
6.70687 22.0574 73.5579
15.2904 23.0374 45.1615
13.9137 44.6941 138.865
30.8276 59.1173 70.4363
3.59572 15.5849 45.6383
2.96025 4.19957 17.6829
10.4142 39.7252 90.3029
6.39149 7.85458 23.3956
6.9438 12.3585 29.477
6.5233 21.9996 93.4555
24.6909 47.9342 107.215
20.4608 58.8661 102.925
5.44357 13.044 90.0434
29.6407 46.2605 43.7732
11.7693 51.4474 114.041
15.1709 38.4417 119.301
13.0491 19.3192 65.5393
19.1867 24.8811 34.3442
7.02726 7.78295 6.06602
12.1412 38.9817 76.0958
10.1064 31.2768 55.8047
3.32118 21.8883 95.9189
19.7731 41.7337 82.113
10.0021 39.4662 151.96
22.3097 20.9213 23.529
13.1072 37.2093 137.639
32.188 67.9406 129.42
16.2404 28.6171 53.0628
8.11801 11.5779 15.4973
4.60454 17.1315 62.1515
9.10759 21.466 104.255
41.0919 105.838 153.228
12.5787 32.5277 60.9059
4.78521 31.3344 113.275
11.6603 18.2668 48.2012
6.70907 15.4963 52.848
10.2898 18.6587 32.7827
5.45872 19.1587 64.9099
10.3023 17.238 55.7519
17.4929 31.3236 81.7692
17.9193 38.7283 74.0945
13.3211 35.6642 64.8127
8.58465 21.1069 65.1736
11.1836 13.7151 14.0261
7.51207 28.8118 83.244
14.4889 43.3591 88.8195
3.60478 16.582 62.1299
10.9247 39.7948 189.48
21.9052 20.154 22.8772
20.9961 84.9105 223.882
22.876 21.7247 20.0632
13.0048 54.7048 111.895
13.6865 28.9909 51.9339
8.67664 32.4099 66.4661
5.73064 16.808 58.7881
9.9756 18.6782 56.3359
11.0753 22.5845 59.0142
9.93222 14.1142 23.0287
6.67215 34.019 144.947
20.7071 37.0912 65.8491
8.66966 30.5436 115.06
24.2442 57.349 80.7831
4.08423 16.2427 62.8575
13.9172 35.1034 68.5398
12.2213 32.2223 47.4666
4.02225 33.0082 104.621
10.3028 28.4047 153.228
22.9738 28.4369 65.2988
20.191 40.2644 45.8038
4.84214 20.5848 91.6084
32.7701 112.139 310.4
22.7684 26.1468 40.4177
4.50923 7.46741 31.2212
8.53888 20.5299 46.3027
11.3476 34.3102 76.0019
13.9042 32.9314 60.6657
6.84832 25.6459 72.8281
6.74163 22.8085 97.9529
13.6152 20.1727 45.9283
16.9576 55.5999 151.529
20.637 36.8155 56.1485
12.2845 45.4532 79.2073
3.78131 11.8652 24.919
8.75794 51.125 151.242
13.7521 15.9744 32.6714
7.2477 53.4804 239.256
38.372 62.387 109.375
7.45382 9.39909 14.9208
0.605132 3.93117 49.6717
9.39322 16.7088 24.121
2.95116 11.3317 40.5534
11.4795 25.497 58.1995
4.39429 10.8354 41.2024
11.356 30.7934 68.2473
4.59843 9.30416 76.146
25.0603 55.6188 78.9943
2.09202 4.45811 28.6985
6.16746 16.713 46.3349
9.03873 24.1645 54.3297
4.98582 16.4298 27.1731
5.72669 32.8439 139.806
21.5333 76.8035 212.75
17.958 12.7001 17.9282
7.07248 15.5507 29.4665
5.57633 19.5333 63.9923
14.384 40.6521 124.714
17.7718 48.2278 74.4304
4.24267 18.5618 64.5783
13.8193 46.1186 108.685
8.44994 26.1243 91.8147
4.97137 3.46057 74.4135
22.6893 76.6095 156.768
13.1606 21.2228 63.1127
5.11356 5.28132 7.10566
1.52629 6.19823 28.5634
8.36071 24.8192 59.8428
8.47172 20.6799 64.311
18.9013 78.7761 282.082
37.1057 75.0401 116.658
3.31256 14.4354 89.453
11.8896 28.3136 123.549
15.08 24.9223 54.6757
18.9545 76.8879 220.876
21.6389 39.6625 47.5341
2.59287 12.0178 54.9781
10.4659 19.6864 34.5039
2.70116 13.5938 64.1951
15.379 42.9126 64.6454
9.01594 36.5856 89.5364
4.0421 13.4803 45.8022
3.71678 7.25782 47.0988
5.50125 8.47252 21.2036
3.49786 21.4002 128.839
18.8374 31.6587 30.4027
4.92477 20.2868 62.7017
7.69832 16.1481 34.4321
4.84322 11.254 33.7399
8.10142 30.8702 121.43
13.4238 37.6872 79.6922
8.13471 15.035 46.8295
7.61848 25.6544 69.7435
4.4329 14.3511 110.372
20.5714 35.9849 33.9474
4.57198 20.1217 41.91
4.06369 26.8765 122.905
14.3179 43.3499 106.432
11.2772 48.6011 149.681
14.9132 53.0086 177.717
21.4054 64.5706 167.463
12.3314 14.3321 56.9329
9.01272 17.4943 100.367
19.2402 43.2264 76.576
5.99946 9.48823 40.7802
7.77898 19.569 87.334
15.228 36.1224 37.9988
6.75373 37.9846 142.075
11.5398 20.1231 39.3625
6.78287 38.9428 130.756
17.6446 44.9475 114.654
8.75734 14.8107 16.0717
1.17864 8.84139 34.4489
5.15249 16.8597 45.1435
5.2146 21.7023 74.1683
8.48692 25.987 67.104
4.61698 19.9416 63.6235
5.07717 16.6147 68.9182
10.999 20.758 43.1396
5.11465 13.4027 44.16
5.11437 15.2112 21.1802
3.25297 20.1426 52.6705
2.05206 11.8829 68.0879
5.26382 10.7794 99.1035
12.4346 27.2323 37.3866
6.77511 49.0681 194.098
20.5226 26.6829 40.7848
10.1113 50.6511 104.568
14.5688 62.2364 146.827
7.55774 20.861 81.5601
5.82187 7.46176 45.9427
5.15429 28.9939 140.758
14.4402 29.5984 104.468
9.90258 11.9889 122.946
21.8201 36.9169 17.8941
5.349 20.7819 57.3393
8.63254 30.5844 59.9514
2.00731 9.73941 43.7777
4.50885 7.7217 46.9575
5.59114 7.17772 11.8644
0.870846 3.65756 52.8713
9.47261 23.4328 35.3377
3.37301 7.1804 16.1278
3.40154 6.67918 10.3613
1.17364 12.4848 64.1089
11.4684 26.4796 76.446
10.6602 42.2767 141.076
15.004 38.3605 69.8162
3.00322 14.7276 85.7792
6.09878 7.76147 61.3225
10.1216 24.736 59.4741
8.7176 28.1886 99.8708
16.555 66.954 138.786
7.31929 12.1782 11.5353
0.722337 12.7031 54.4102
5.91986 28.3414 89.6331
7.87423 23.67 106.661
11.0589 16.661 32.0796
2.59406 10.3444 54.4811
8.55731 19.0404 36.5151
3.97885 8.19239 22.5305
3.23223 12.647 60.6967
9.04992 33.1293 59.7359
1.90701 6.95194 40.6931
5.28994 15.3018 64.8949
4.81092 9.46128 32.0911
7.08576 26.0489 44.6102
1.31884 14.8912 89.8386
7.89204 9.47344 48.8151
9.32704 23.4242 56.0215
9.28552 26.706 63.1228
4.20349 9.09173 58.2861
7.23222 18.4652 51.5138
6.65832 17.5223 42.8103
3.46709 12.5529 28.6776
5.41084 10.9519 17.6905
3.68526 19.7952 29.2626
3.04007 30.4006 135.924
10.1536 14.202 35.2316
1.44937 4.78655 32.709
3.95339 12.4364 41.2551
5.41752 15.4726 45.4827
5.64296 16.7235 36.5511
2.75657 13.0481 41.1526
4.55007 12.6338 42.4333
6.13904 22.8337 47.5209
4.05782 14.1657 67.215
6.33159 29.0774 72.0849
3.20491 16.9921 87.0347
9.86758 24.7354 54.2176
3.51645 7.19269 30.8808
4.70071 28.4752 148.909
13.7165 31.4419 120.819
13.638 18.9021 26.0498
8.07556 37.5165 86.0766
3.41275 12.5997 66.5198
4.58186 7.25816 38.2688
5.09638 22.6148 89.3845
6.92017 21.5415 58.263
4.77269 21.0976 122.256
14.5806 44.3182 77.6773
3.33115 20.9963 101.988
8.80154 9.20141 63.1212
11.9131 31.2074 94.4081
9.30438 13.631 67.5976
11.848 37.8109 139.331
18.9491 65.1769 105.805
9.33146 43.5289 139.901
6.73923 25.7168 103.339
7.98364 26.657 109.829
8.55519 19.1424 61.2466
6.32858 22.5659 66.2825
4.30291 19.0569 53.9265
4.38149 13.8706 31.3131
3.02034 14.0974 83.8614
7.45313 9.01024 15.8389
3.60047 10.1395 32.0895
4.542 31.1552 138.862
14.3388 32.7366 41.7332
1.02198 6.56601 40.702
4.56027 21.3809 87.888
7.43583 34.6233 106.555
7.64059 15.1443 24.3307
2.67099 31.5089 103.629
6.40644 8.67654 71.6152
8.15936 13.3715 64.3817
9.92945 25.3379 74.0709
6.71005 23.4045 55.4047
3.71705 15.6538 38.3444
2.6153 5.50965 35.551
3.82049 12.3613 45.8846
4.31003 17.518 34.9603
2.69201 15.1465 59.8388
5.06199 16.7838 72.6588
6.25381 7.99293 43.3016
7.51698 31.0708 104.615
8.20984 10.5577 57.0486
9.57999 45.3578 147
10.1413 16.4064 20.2962
1.31003 7.8141 30.9302
2.69643 5.9128 25.8856
4.6272 20.8203 75.4828
7.22652 17.9169 55.2682
4.66464 23.6048 88.4649
5.09452 7.58993 37.6257
3.44806 10.0366 27.0273
3.30131 4.21659 28.4834
3.81622 12.3809 24.749
3.51444 7.63119 7.89478
2.24907 20.6571 72.1393
5.563 15.5534 66.1274
6.03013 16.077 33.2568
2.02332 7.78547 25.4019
1.96742 5.48746 42.7414
7.07667 25.2499 67.584
4.47216 23.0947 114.721
9.4679 29.2829 58.6068
2.23522 11.6315 49.0868
4.88209 24.3522 90.7656
6.33861 19.2607 78.0172
6.56392 5.31261 19.7656
1.90086 1.61148 31.9935
5.52936 18.5168 46.8648
5.82721 27.8218 87.5248
5.92961 15.3459 23.0466
1.66443 13.4469 46.3849
4.23831 27.7844 70.6532
3.93826 28.0822 161.568
12.4927 35.9254 125.528
10.9188 10.5466 40.5811
6.6661 14.7279 39.0107
5.81836 29.9964 69.0883
5.04446 13.0856 55.1989
4.91486 34.68 196.596
15.895 19.3801 33.0536
3.84305 15.4823 49.7794
6.2848 20.6573 19.3614
2.21563 25.1602 89.4281
4.55584 18.0144 178.686
20.4791 53.5725 112.897
8.64355 33.9903 93.1023
3.88898 24.8165 186.178
18.6742 77.0525 200.217
9.77454 15.5425 65.3824
7.01661 30.3325 166.847
10.6225 16.3496 12.125
3.10051 34.2197 116.555
9.86319 22.7283 24.5696
1.33883 13.444 47.2461
2.65776 15.6229 66.4085
5.92254 20.0527 90.5923
6.68735 7.0014 8.55093
1.63231 12.4947 77.8377
7.35899 15.6077 42.3385
3.33926 8.76534 21.1469
2.42043 12.6254 45.1583
3.24254 11.905 37.3612
2.02934 6.62326 36.3643
3.2151 14.2424 35.874
4.41122 20.2154 52.6843
4.41487 39.0753 172.217
11.303 7.5471 45.4723
6.64222 12.2342 41.7619
4.92077 8.32087 35.6259
5.07261 26.0038 82.9902
7.44813 24.1373 89.2408
6.42035 30.2025 96.3645
7.93214 25.2493 53.4377
2.04054 10.8705 88.5539
6.52109 26.9328 88.0639
5.04554 10.9813 49.3353
3.54017 8.21146 25.0022
3.26446 26.9928 127.633
9.03374 29.8604 63.0988
5.67006 18.1622 58.8443
4.63492 12.2144 48.7586
2.88624 6.41493 36.592
5.13875 38.616 107.319
6.01557 12.3773 49.4925
3.62435 13.3141 104.223
11.2399 48.6549 92.7925
3.89125 7.07761 83.6282
7.96113 15.8701 38.0324
4.3236 11.2235 42.8407
2.81379 13.1086 76.7561
8.83978 19.7935 25.9011
2.62348 26.6556 87.1926
3.90166 14.5875 92.4818
5.32441 7.08963 76.091
8.11446 30.6133 62.6453
4.8879 5.8211 27.6723
3.73918 16.5163 50.3065
5.75205 31.1313 127.576
9.13481 15.1298 67.8952
6.64751 19.1102 31.1412
3.28021 26.8424 114.893
9.8274 46.7896 99.2679
2.60551 7.42438 126.242
9.32045 20.5267 81.0452
7.47491 27.139 57.3972
3.41785 16.5185 59.5121
5.24156 6.66726 34.9526
4.73829 15.0585 25.6138
2.00894 15.568 63.9238
4.83123 16.2455 50.9388
1.70012 3.45882 33.8839
1.97015 13.2995 117.339
9.08594 16.6185 31.4009
3.38887 16.7909 31.997
2.74591 12.206 10.3294
1.48839 19.4767 75.3822
4.78454 20.3775 49.074
2.53504 11.7456 70.7565
4.48014 1.51704 47.0252
5.48761 8.17209 60.7857
7.81818 28.7996 49.2558
3.98755 24.155 99.3213
6.74188 17.3322 69.2472
7.46771 44.0072 135.952
6.68168 8.6235 31.6845
3.69755 20.2582 139.969
11.3638 37.8222 38.3296
1.39419 17.0048 84.3597
5.06543 19.0571 120.566
10.7183 24.4596 69.9189
5.00152 13.8379 38.9786
3.97942 14.8245 55.0616
3.34603 19.7836 69.2789
4.29519 13.8917 22.9086
1.30881 10.122 74.9093
4.76633 9.27229 8.53289
0.294316 7.80633 57.8542
5.34806 23.9308 60.3801
3.15139 6.13053 81.1667
7.26445 13.8376 63.704
4.07593 7.88202 69.657
5.74599 10.486 42.3964
3.94858 27.0563 97.638
8.65028 46.4022 107.562
7.18716 9.22194 32.3094
2.97021 18.1464 52.1814
3.76667 11.9515 102.036
9.19707 33.5468 69.1358
4.11763 11.0605 96.6626
7.42152 31.2141 102.657
6.27683 3.5021 55.8386
7.09683 41.6377 115.369
5.99477 5.16716 38.8991
4.15502 16.0321 36.926
2.28213 8.51445 30.657
4.14404 25.607 56.3071
3.34935 21.0051 82.6247
6.50307 15.2673 79.3831
7.32285 24.5144 104.869
6.2307 18.6535 107.519
10.8198 32.7449 52.2644
2.36889 6.35004 99.1892
9.801 46.2822 119.039
5.04239 19.3333 201.754
15.454 31.2608 55.4559
5.14876 35.3785 71.0731
3.41528 14.9302 56.762
3.46504 27.0637 86.8751
5.02596 12.976 40.3918
3.2891 11.3683 86.6526
6.74192 19.3275 70.6878
5.23575 12.6604 53.0902
5.82757 35.5359 92.1639
3.68716 12.501 165.181
11.5219 24.8084 23.1613
1.59765 11.7041 46.5156
5.24523 35.9266 71.1217
3.93172 11.1168 95.676
6.49845 15.0045 13.2344
1.12285 13.294 101.272
6.13822 17.4634 28.7472
3.39315 20.2989 88.4609
5.30574 9.84696 33.1954
2.44995 16.027 95.8078
6.08914 36.0354 111.604
7.48234 12.2832 94.8882
9.08956 32.4361 80.1214
6.35314 16.565 28.3437
1.38714 8.22773 60.7536
6.31984 22.7841 53.3521
2.13316 8.24023 41.4079
1.49631 6.94159 44.1851
2.21549 6.61441 128.976
9.44896 56.1883 74.2389
3.73396 21.0395 83.2436
6.89069 64.4122 200.275
12.1371 65.0862 409.736
25.617 161.72 1188.28
80.3114 104.14 878.835
85.4184 314.787 224.038
17.1212 271.871 792.15
37.9389 110.032 607.146
34.4764 113.95 709.651
48.3504 153.596 677.36
41.4273 96.9493 318.607
22.0478 67.6647 67.3366
5.45169 84.8933 166.68
9.14974 37.8329 186.433
12.9636 20.4915 63.6022
3.92075 14.497 77.6959
6.31309 14.8215 56.6759
4.60594 26.6238 101.771
5.88026 9.70805 23.3548
1.4366 11.5988 41.4347
2.67387 6.7496 85.5357
7.53344 11.0287 17.1531
1.75569 20.3158 45.7819
4.07782 23.756 112.685
8.04239 22.0125 40.4364
3.05815 26.1488 140.914
9.24231 22.6376 101.859
6.10883 33.0979 135.215
9.93197 22.0007 55.4241
3.66822 34.8324 178.695
10.267 27.3809 135.563
9.69235 24.5152 51.9841
3.34141 6.86493 91.7967
7.27862 38.2278 153.785
11.0979 46.5469 120.125
6.48948 31.3787 61.8078
4.66437 26.3655 124.819
6.70527 9.50449 55.7466
3.40784 14.5789 167.846
13.8048 47.1492 64.3835
3.792 15.2087 160.611
13.4287 31.3632 27.5613
1.24082 4.75502 37.4189
3.55076 14.3879 73.1389
6.37164 47.4744 101.848
3.92502 22.9306 102.911
5.84948 7.57706 65.4724
5.0134 10.6799 12.7012
1.07258 8.1969 35.1163
3.17516 23.7554 128.495
5.66682 13.0062 70.6106
5.34342 16.5856 23.57
1.19406 9.80175 35.078
1.6387 7.81988 38.5962
2.14494 6.92352 36.9116
2.68696 19.5686 50.2491
3.5537 5.36169 29.3967
1.90927 5.58402 53.2612
5.5266 25.6775 77.6016
3.45205 9.81386 31.997
2.84295 5.4453 35.28
2.22298 15.5637 41.1948
3.42664 17.37 26.8736
2.25599 20.9123 114.135
6.83566 23.5895 111.731
8.31726 15.9956 83.2905
6.31474 21.5515 79.319
4.94428 9.95101 16.1049
1.33508 7.9055 21.8064
1.11918 3.9282 20.2736
2.03237 8.26222 45.8647
3.60809 19.2694 76.7066
4.23755 30.3198 173.725
10.4748 51.5719 84.4994
4.4392 7.91253 88.2364
6.94412 16.1059 53.6964
3.9026 4.54105 19.129
2.16268 8.65714 38.4497
2.79066 7.03457 13.2815
0.776342 8.7785 45.0292
3.63275 11.9484 78.1114
4.20153 19.4356 70.7442
4.36483 20.5968 62.7256
4.16952 0.895765 45.6675
4.15161 15.0885 59.5613
4.75246 12.8986 41.5455
2.26994 18.7151 39.4878
2.52742 17.1937 49.889
3.34796 11.5937 66.8624
5.14173 6.70026 29.9332
3.10544 13.7373 59.6994
4.08553 8.45425 24.7183
1.54976 5.27039 25.9535
2.18595 12.9002 45.982
1.79858 19.4635 90.7021
5.98789 10.4822 58.4842
4.32813 7.8315 48.3561
3.31958 23.5647 47.9129
3.70663 9.07654 53.5257
4.30342 21.6447 92.0292
5.91505 19.146 50.8499
4.34498 14.6004 23.3676
1.48729 10.5369 37.8809
2.5242 7.00755 36.6943
1.74015 2.77006 28.2593
1.28271 12.491 111.726
8.3916 48.5318 123.39
6.40146 8.71629 38.5908
3.56686 22.5556 103.098
6.33277 11.4059 141.114
10.5671 29.473 59.9616
4.59338 20.628 101.118
5.73829 24.4611 37.3154
2.46561 33.1018 76.7272
3.489 31.2038 240.51
12.694 39.339 121.585
8.75178 13.7696 66.5066
4.36787 21.976 44.832
3.34804 21.2041 86.2187
6.25324 20.3809 79.9821
3.37296 16.8462 82.8253
6.3722 8.61498 10.1917
0.656546 2.16719 40.6712
2.88093 15.0351 60.1844
3.39343 12.8139 70.717
6.16418 15.871 32.0854
1.94183 16.3151 42.5295
2.49603 7.22535 50.9253
4.08981 17.518 64.4359
2.7906 11.3454 54.3504
3.72002 10.6424 67.2108
3.90542 13.2579 25.6313
2.15124 18.471 61.2655
4.83845 13.7126 65.3107
2.76494 8.66739 12.5488
0.986919 4.18063 27.6543
2.68115 9.63046 31.7495
1.85744 6.90386 66.9534
4.44555 14.9017 24.5759
1.67109 4.3174 38.1805
3.29345 13.6196 32.9865
2.28322 4.11656 14.1218
1.9199 13.8076 52.9144
3.12934 16.7824 78.6665
5.1276 20.4199 77.4049
3.64702 1.61216 58.7957
4.05116 39.8606 206.692
11.7387 27.825 40.7021
2.06159 7.84429 35.392
2.24349 12.7018 46.1967
2.59786 20.7863 123.83
9.21244 17.5037 27.93
1.78379 13.1329 50.9067
2.94641 12.7442 6.91093
0.540405 5.87486 22.0436
1.71692 15.5277 52.55
3.33303 7.37445 20.3081
1.27613 7.51736 124.756
7.01507 15.9892 36.2768
2.27464 20.2884 38.6735
3.17382 4.13032 29.1951
2.62366 18.2295 118.759
6.33804 14.4427 15.072
1.22689 3.58545 49.7196
2.55775 12.0248 87.2026
5.28396 33.2692 62.5157
4.19981 15.9603 80.5178
4.29977 15.3365 20.6606
1.83116 13.5313 122.229
8.33935 3.82211 120.95
8.06747 36.5629 70.2207
3.89393 14.7588 12.4256
1.13092 15.3256 24.8697
1.09808 33.7556 69.8592
4.97644 24.1969 153.123
11.3602 15.3907 130.039
10.2672 0 0