# pn-170911/RbIIR-av-RbIIF-1280-1959.psd
# Power spectrum* (dif=0,1,2) (really just |FT|^2)
# NOTE: only the first half! (symmetric)
# weeks: 1280-1959
# 42163 clock-days, 6153 excluded
# PSD: 1441
982.361 0.205513 0.0291741
44011.4 0.790299 0.0477839
218488 5.52225 0.0480677
27508.5 0.944884 0.0476721
89961.7 7.50645 0.0491298
9156.77 0.794869 0.0479323
9387.69 1.69397 0.0475053
4580.54 0.789135 0.0476865
5460.89 1.56369 0.0481037
2925.85 0.761025 0.0475388
2989.83 1.20226 0.0477132
1918.42 0.82646 0.0475992
2232.5 1.2144 0.0484166
1495 0.870707 0.0485892
1562.31 1.21832 0.0491114
1219.93 0.969876 0.0478095
1292.39 1.34494 0.048986
945.353 1.03426 0.0485846
1151.93 1.44337 0.0493834
857.338 1.15895 0.0485291
989.53 1.5818 0.0514751
762.981 1.29507 0.0503508
843.471 1.67912 0.0524107
686.685 1.41297 0.0515084
793.824 1.88028 0.0533164
613.471 1.56065 0.0520135
729.233 2.0543 0.0543411
588.202 1.72589 0.0537353
693.557 2.29263 0.0563953
554.821 1.95367 0.0559002
623.945 2.39645 0.0585394
540.097 2.13966 0.0570738
623.698 2.68019 0.0621077
505.844 2.33419 0.0602261
565.554 2.8371 0.0631561
509.279 2.66074 0.0628438
568.193 3.22128 0.0673938
478.66 2.84108 0.0669412
535.581 3.36088 0.0706542
471.32 3.09597 0.0711106
522.552 3.6146 0.0761271
448.231 3.30306 0.0740649
500.057 3.85282 0.0796859
443.766 3.61474 0.0796948
484.443 4.12055 0.0850745
425.419 3.79988 0.0843055
466.879 4.38663 0.0923797
424.588 4.13204 0.0913349
451.994 4.61858 0.0981292
411.092 4.36413 0.097907
431.453 4.83128 0.10475
399.039 4.56154 0.104976
428.91 5.15223 0.114529
402.621 5.00077 0.114845
404.366 5.31367 0.121232
389.313 5.25279 0.124131
408.786 5.7215 0.132838
381.868 5.54465 0.132796
394.655 5.98632 0.143336
358.247 5.57218 0.139672
388.891 6.20735 0.153871
354.076 5.87409 0.151746
373.457 6.43884 0.165667
344.403 6.18985 0.164134
351.301 6.515 0.173991
338.852 6.52484 0.179458
347.462 6.86074 0.188124
329.388 6.71807 0.190709
339.509 7.07362 0.201784
326.886 7.03283 0.206789
330.893 7.36574 0.219873
311.627 7.17249 0.217496
327.201 7.6808 0.23486
303.535 7.28016 0.23149
318.655 7.92233 0.252742
298.421 7.59275 0.250213
303.159 7.97375 0.264513
293.061 7.8889 0.267544
305.403 8.41738 0.290888
286.311 8.17543 0.288488
285.197 8.31766 0.299733
278.827 8.37484 0.305819
279.65 8.66509 0.323093
272.549 8.59899 0.325717
276.896 8.96476 0.344848
264.408 8.72686 0.345477
264.329 8.939 0.359053
259.369 8.97174 0.366435
259.84 9.20199 0.382684
250.209 9.11299 0.387525
255.892 9.51665 0.409757
250.462 9.54368 0.414581
248.522 9.64883 0.432453
236.347 9.37578 0.42548
239.749 9.67074 0.450255
236.061 9.73308 0.460325
292.196 12.4525 0.58385
229.118 9.80027 0.477372
227.119 10.0241 0.50132
223.934 9.94816 0.503085
224.925 10.2485 0.529503
224.009 10.4351 0.547974
227.483 10.8316 0.576246
219.292 10.5805 0.575257
212.136 10.4387 0.576756
214.218 10.7705 0.602989
209.303 10.6819 0.610101
203.26 10.6655 0.618627
207.755 11.0992 0.652655
204.299 11.1755 0.671562
200.917 11.1077 0.676922
194.439 10.9631 0.682127
192.408 11.0994 0.699006
195.778 11.5733 0.739947
201.695 12.0778 0.787439
188.178 11.4381 0.755644
189.374 11.7366 0.784859
180.48 11.3471 0.776327
182.921 11.7519 0.813965
181.804 11.8432 0.835138
182.814 12.057 0.859575
177.689 11.9349 0.866133
172.447 11.833 0.873707
176.386 12.2668 0.919721
174.093 12.2585 0.928189
171.682 12.3205 0.952214
175.2 12.8341 0.999797
166.501 12.2868 0.973013
165.457 12.538 1.00906
161.885 12.3793 1.01089
163.638 12.7078 1.05299
166.665 13.1932 1.11071
168.778 13.4106 1.13868
160.592 12.9614 1.11819
158.513 13.0513 1.14254
157.917 13.2066 1.17744
153.657 13.0372 1.17309
152.888 13.0736 1.19499
150.804 13.1405 1.21481
147.945 13.1296 1.23682
150.606 13.6594 1.29818
146.042 13.3252 1.2874
144.897 13.3443 1.30304
145.1 13.6802 1.35736
150.638 14.4157 1.44551
144.226 13.8162 1.40057
140.072 13.7222 1.41576
140.967 13.9294 1.45562
140.714 14.2829 1.51782
140.151 14.1571 1.51268
138.216 14.2474 1.54305
137.613 14.2553 1.56176
133.98 14.1755 1.57633
135.536 14.5473 1.6429
134.154 14.5387 1.65391
133.988 14.7018 1.70226
134.607 14.9602 1.74075
127.215 14.4283 1.70587
129.612 14.8446 1.77601
126.602 14.6636 1.77513
126.229 14.827 1.81427
127.444 15.245 1.89699
124.458 14.9421 1.86695
123.908 15.1353 1.92366
125.296 15.5186 2.00129
123.284 15.3124 1.98794
121.185 15.3449 2.02396
123.534 15.803 2.09698
122.854 15.9624 2.14737
118.256 15.4224 2.09445
119.538 15.8718 2.18617
118.218 15.8338 2.19667
116.485 15.8692 2.23878
113.991 15.6043 2.22086
114.766 15.9801 2.30918
116.641 16.3582 2.37759
112.598 15.9716 2.34694
111.612 16.0395 2.39097
112.306 16.3684 2.46582
111.089 16.288 2.47692
112.459 16.6245 2.5501
111.496 16.6339 2.58686
109.153 16.5407 2.59475
111.458 17.0302 2.7113
109.113 16.7785 2.68469
108.063 16.8611 2.73896
107.74 16.9789 2.76589
105.677 16.756 2.77486
105.457 17.0257 2.85409
106.17 17.1091 2.88719
103.231 16.9903 2.89656
103.107 17.1053 2.97278
137.973 23.3746 4.00827
102.683 17.3068 3.03845
99.7711 17.2484 3.07872
101.547 17.6734 3.17673
100.698 17.629 3.17907
98.21 17.4212 3.18375
97.6621 17.6112 3.26497
97.4004 17.6613 3.30483
95.7679 17.563 3.30896
96.5414 17.8873 3.41417
96.5536 18.0682 3.4739
94.6359 17.893 3.48113
97.8702 18.7034 3.66276
94.6853 18.1357 3.58087
94.1976 18.2828 3.64387
93.7666 18.3172 3.69116
93.4915 18.481 3.75264
91.7896 18.415 3.79437
93.0382 18.6863 3.86283
91.3647 18.6546 3.90709
89.6203 18.4601 3.9018
88.2961 18.3063 3.89664
88.0888 18.5044 3.99357
89.5746 19.1799 4.1859
90.8566 19.2822 4.18544
87.7755 18.9296 4.17249
86.7473 18.941 4.2416
86.5096 19.0237 4.28101
86.6742 19.2601 4.36616
84.3067 18.8272 4.30519
87.0659 19.6939 4.55729
84.9517 19.2455 4.46015
83.7739 19.2396 4.53265
84.5966 19.4909 4.60302
83.0892 19.4059 4.64974
83.5605 19.6964 4.7472
85.3243 20.2253 4.91881
82.6092 19.7114 4.81652
80.9813 19.5867 4.82948
80.9012 19.6719 4.89539
80.4973 19.8368 4.99654
81.2458 20.1854 5.12682
79.6233 19.9746 5.11152
78.955 19.944 5.15021
79.7848 20.1925 5.21903
76.9058 19.6665 5.15974
77.1825 19.9696 5.29107
77.8686 20.2689 5.4238
79.2289 20.8045 5.57158
76.8206 20.422 5.53279
75.8249 20.1477 5.49759
75.477 20.413 5.63174
76.1521 20.662 5.74536
75.9409 20.7643 5.78979
75.5422 20.8042 5.85835
75.2477 20.909 5.93826
74.7025 21.0092 6.00924
73.9862 20.8638 6.02178
72.9993 20.7694 6.02449
72.1707 20.8163 6.13583
72.7332 21.0554 6.2219
73.144 21.2765 6.31958
71.6082 21.0079 6.2829
71.3348 21.1511 6.408
71.2386 21.1968 6.43971
71.0043 21.4162 6.58535
71.204 21.4651 6.61328
69.8497 21.4224 6.68498
69.4966 21.3963 6.69782
69.8472 21.4884 6.77191
69.0126 21.5469 6.87859
69.0297 21.7702 6.99458
69.7119 22.0909 7.11702
68.2644 21.7188 7.04727
67.0028 21.6212 7.09673
66.6914 21.6222 7.13933
66.6198 21.8322 7.29511
66.5814 21.8806 7.32755
66.6546 22.1326 7.48512
66.171 21.9914 7.44432
65.2091 21.9399 7.52079
64.4944 21.8465 7.56735
65.1193 22.1396 7.66764
64.6892 22.2522 7.82071
66.2073 22.8404 8.0192
64.1416 22.2391 7.88083
64.4489 22.4356 7.95994
62.379 22.0086 7.91695
63.0773 22.3676 8.08316
62.5367 22.3977 8.18343
63.4199 22.7193 8.33495
62.0401 22.4764 8.30685
62.172 22.5979 8.41082
60.7473 22.278 8.36332
60.6038 22.4146 8.513
60.9802 22.8395 8.8393
87.5358 32.4768 12.0618
60.7443 22.9676 8.87882
60.3921 22.769 8.85392
59.9998 22.9118 8.93414
59.3458 22.7191 8.94374
59.9137 23.2441 9.18248
58.811 22.8384 9.09587
57.9071 22.7077 9.08363
58.3122 23.0142 9.26894
58.7225 23.4013 9.4971
57.4339 23.0097 9.40747
56.961 23.0336 9.51695
57.2642 23.1921 9.58152
56.8691 23.2356 9.67655
56.6471 23.2612 9.72452
56.2373 23.2219 9.80018
55.6276 23.2034 9.83933
55.2024 23.1992 9.93485
55.4324 23.3655 10.046
54.7491 23.2383 10.0396
54.4885 23.2953 10.1666
55.0886 23.641 10.3468
53.628 23.1706 10.2369
53.824 23.3866 10.3822
54.2169 23.7078 10.5296
53.1845 23.4587 10.5382
52.8133 23.3738 10.5815
53.0205 23.6462 10.7318
52.0386 23.3413 10.6836
52.9149 23.8678 10.945
52.1375 23.7215 11.007
52.4914 23.9658 11.1348
51.6096 23.6807 11.1111
51.9495 23.9548 11.2706
50.9243 23.7495 11.2671
51.26 24.0163 11.4446
50.7696 24.0144 11.5322
50.3276 23.8713 11.5367
50.2006 23.8799 11.5947
49.644 23.888 11.6615
50.2609 24.2871 11.9389
49.6137 23.9988 11.8218
49.515 24.1907 11.9922
49.5371 24.3528 12.1798
48.8655 24.0917 12.1183
48.5878 24.0636 12.1262
48.154 24.0538 12.2317
47.9711 24.141 12.3662
48.2084 24.3409 12.4872
48.2751 24.4836 12.6244
47.1627 24.0965 12.5406
46.6623 23.9892 12.6004
47.2264 24.3713 12.8085
47.1242 24.5247 13.003
46.9546 24.5495 13.0414
47.0556 24.7355 13.2024
45.9373 24.3239 13.1118
46.1879 24.5119 13.2417
45.704 24.379 13.2618
45.7761 24.5459 13.4074
44.9449 24.3292 13.4025
45.3449 24.6482 13.6375
44.8916 24.417 13.5898
44.7482 24.4454 13.6282
44.8982 24.7824 13.932
44.4817 24.6542 13.9399
44.1139 24.5344 13.8872
44.0646 24.7182 14.108
43.9131 24.7826 14.2155
43.543 24.6065 14.1857
43.3119 24.6805 14.3123
42.6128 24.4428 14.2864
43.3667 24.8806 14.5539
42.3312 24.4261 14.3826
42.3451 24.7011 14.6763
42.4558 24.8313 14.7889
42.4321 24.9703 14.9867
42.4844 24.9555 14.9987
41.9507 24.8425 15.0385
41.7545 24.814 15.0684
41.6612 24.9802 15.2334
40.8697 24.6601 15.142
40.642 24.6579 15.2185
40.887 24.9893 15.5267
40.7749 24.8633 15.5086
40.9698 25.0854 15.6709
40.5757 25.2205 15.913
40.2639 25.0635 15.9306
40.4558 25.2364 16.0187
39.8655 24.9304 15.9368
39.2187 24.7933 15.9791
39.4978 25.0778 16.1756
39.096 25.0036 16.3305
39.1653 25.0099 16.3197
38.7566 25.0168 16.4946
39.1591 25.5446 17.4524
55.49 35.5697 22.3203
38.5273 25.3275 17.0198
38.3357 25.2632 16.9935
38.2012 25.0213 16.8002
37.933 25.1851 17.0143
37.6502 24.9664 16.9422
37.6599 25.1423 17.1768
37.7571 25.2801 17.3124
37.3577 24.9997 17.1215
37.1631 25.1995 17.4369
37.1968 25.3251 17.6485
37.0988 25.3307 17.6584
36.9225 25.2893 17.72
36.4538 25.2203 17.8066
36.3198 25.0879 17.7789
36.2895 25.4093 18.0885
36.3551 25.4598 18.1317
35.7278 25.2056 18.1362
35.9503 25.4353 18.3264
35.3393 25.1397 18.2053
35.6905 25.57 18.6019
34.9543 25.1649 18.4671
35.1086 25.3606 18.6625
34.8695 25.1829 18.6117
35.0646 25.5422 18.8941
34.5444 25.361 18.8975
34.4203 25.2712 18.8898
34.4045 25.4424 19.1746
34.2159 25.3811 19.1715
34.0333 25.4038 19.3469
33.936 25.4063 19.3872
33.9543 25.4788 19.4722
33.7504 25.3855 19.4923
33.8219 25.5888 19.7447
33.3657 25.4053 19.6782
33.078 25.4001 19.9036
33.3899 25.6742 20.0666
32.9753 25.4121 20.0205
32.7825 25.3282 19.9812
32.9796 25.5566 20.2053
32.2937 25.2958 20.1592
32.5802 25.5267 20.4612
32.5648 25.6022 20.5021
32.0924 25.4829 20.5791
31.9645 25.3175 20.5231
32.1787 25.7045 20.8654
31.3489 25.2687 20.6571
31.2964 25.1914 20.663
31.3392 25.4521 21.0419
31.0613 25.1375 20.8153
31.2001 25.5093 21.2555
30.981 25.3709 21.1783
30.5293 25.1315 21.077
30.946 25.5471 21.5115
30.6927 25.4603 21.5469
30.7083 25.5434 21.6527
30.3489 25.4516 21.7436
30.2797 25.3369 21.6713
30.2015 25.5453 21.973
29.8775 25.3207 21.883
30.1059 25.6344 22.2135
29.58 25.2248 21.9767
29.4484 25.329 22.1748
29.5291 25.4626 22.3792
29.2998 25.2576 22.2613
29.1784 25.4504 22.573
29.3106 25.4121 22.5526
28.7235 25.1657 22.4895
29.2766 25.6317 22.9191
29.0335 25.581 23.0077
28.5636 25.1987 22.8182
28.7021 25.4861 23.1199
28.7893 25.5387 23.2319
28.7476 25.7614 23.4913
28.3559 25.5956 23.6245
28.1332 25.3793 23.3635
28.3015 25.6099 23.6474
27.9771 25.6493 23.8654
27.8712 25.5253 23.8189
27.7228 25.433 23.7961
27.8327 25.7502 24.1878
27.3245 25.3622 24.0105
27.4582 25.5504 24.2045
27.1835 25.3943 24.2593
27.3304 25.5416 24.4137
27.1733 25.4675 24.3709
26.9283 25.28 24.3707
26.8907 25.4969 24.6412
26.5755 25.1917 24.4424
26.742 25.517 24.8853
26.5289 25.3158 24.7452
26.4144 25.3926 25.0134
26.3887 25.431 25.0709
26.5338 25.4816 25.1763
26.1234 25.6691 25.7622
26.0011 25.6519 27.1631
37.7105 36.0763 33.3099
25.9748 25.7772 26.1752
25.7706 25.5573 25.888
25.7534 25.5585 25.8642
25.4101 25.4313 25.9073
25.3011 25.2173 25.7353
25.269 25.2729 25.8472
25.1872 25.4196 26.0978
24.9324 25.1373 25.9181
25.1172 25.3588 26.2267
24.7934 25.1904 26.1423
24.6898 25.3407 26.4512
24.6901 25.3998 26.6018
24.4167 25.0778 26.2902
24.5586 25.3405 26.6645
24.5534 25.4742 26.9327
24.4437 25.4205 26.9401
24.2191 25.3596 27.0825
23.9548 25.1109 26.8994
24.0457 25.1857 26.901
23.8328 25.1943 27.1036
23.7194 25.1327 27.2036
23.6434 25.1266 27.2348
23.3933 24.9001 27.1561
23.3327 24.9049 27.135
23.3262 25.1142 27.583
23.2388 24.9778 27.4601
23.2777 25.0543 27.6182
23.1861 25.2414 27.9179
23.0159 25.0145 27.814
22.8609 25.0154 27.8782
22.7992 24.9709 27.9915
22.6289 24.9456 28.0604
22.8049 24.9285 27.9795
22.5652 25.068 28.3799
22.5106 24.915 28.1532
22.2622 24.8811 28.3591
22.2749 24.8711 28.4358
22.2326 25.0069 28.5972
21.9967 24.8815 28.6657
21.919 24.883 28.7867
22.0685 24.9579 28.8715
21.7516 24.8079 28.9048
21.9978 25.0852 29.1138
21.657 24.9025 29.1968
21.6513 24.8437 29.2779
21.5536 24.8388 29.2764
21.4363 24.6669 29.1703
21.2593 24.6769 29.3074
21.2649 24.7951 29.5079
21.2005 24.638 29.415
21.0067 24.6327 29.5644
21.0494 24.7373 29.7989
20.8508 24.5464 29.655
20.9984 24.8181 30.0596
20.7907 24.7123 30.0205
20.7953 24.7894 30.2486
20.4789 24.4821 29.871
20.6262 24.8195 30.5591
20.4354 24.5901 30.253
20.4757 24.7008 30.4771
20.5107 24.9023 30.774
20.119 24.4089 30.3145
20.0211 24.4229 30.4669
20.1436 24.6362 30.7369
19.9384 24.6117 30.9637
19.9081 24.515 30.7802
19.8979 24.5953 31.0906
19.8309 24.6421 31.1726
19.699 24.4705 31.1789
19.7387 24.5819 31.2023
19.5095 24.5315 31.4344
19.2765 24.231 31.1039
19.6183 24.7291 31.8047
19.3249 24.4575 31.6746
19.195 24.2498 31.3944
19.0296 24.2746 31.6931
19.1378 24.3889 31.7124
19.0952 24.5858 32.0997
19.033 24.6168 32.3019
18.8749 24.1913 31.7706
18.9335 24.5116 32.4408
19.0363 24.6214 32.5453
18.8555 24.4615 32.4404
18.6885 24.3503 32.575
18.5984 24.3271 32.5242
18.5675 24.2371 32.6152
18.5843 24.4036 32.7544
18.7043 24.3678 32.8209
18.2642 24.1585 32.719
18.567 24.4019 33.2282
18.3573 24.4349 33.2353
18.5358 24.1975 32.9996
17.9539 24.2364 33.4472
18.6168 24.743 34.4908
18.1357 25.0179 37.8646
26.8145 34.2222 42.2897
18.2154 24.9341 34.6379
18.2323 24.5221 34.2439
17.8273 24.2404 33.7908
17.9099 24.34 34.1649
17.6905 24.191 33.868
17.5572 24.0896 33.9092
17.3215 23.8606 33.6233
17.1958 23.8569 33.9764
17.5604 24.2759 34.4145
17.26 24.0383 34.26
17.217 23.9916 34.3198
17.299 24.178 34.5652
17.1975 24.0741 34.3119
16.8196 23.7533 34.3725
16.8787 23.8258 34.4179
16.7525 23.7192 34.4293
16.7723 23.8361 34.7164
16.6987 23.715 34.5444
16.6631 23.8575 34.8285
16.6379 23.8219 34.9327
16.5365 23.7505 34.8874
16.4708 23.7309 34.8944
16.2577 23.6478 35.1953
16.4929 23.7954 35.1723
16.3381 23.7662 35.2993
16.3522 23.7256 35.3658
16.1518 23.5788 35.2467
16.219 23.6537 35.4281
16.1399 23.8132 35.8545
16.1633 23.6608 35.6713
15.9783 23.4561 35.3312
15.8747 23.3261 35.2344
15.6614 23.2783 35.4696
15.6483 23.2718 35.6286
15.8473 23.5168 35.8599
15.6311 23.3434 35.7949
15.6893 23.451 35.9187
15.4062 23.1715 35.8764
15.5758 23.4373 36.0561
15.2427 23.184 36.037
15.3284 23.2038 36.0093
15.3024 23.373 36.5263
15.2168 23.1797 36.2248
15.1155 23.0535 36.045
14.9508 22.9075 36.0163
14.9089 22.9678 36.2946
15.0127 23.2119 36.8323
15.1481 23.3335 36.6183
14.9326 23.2733 36.9355
14.7927 22.9544 36.6606
14.9167 23.2487 36.9802
14.6761 22.9396 36.6847
14.6503 22.9781 36.9448
14.5991 23.0179 37.1671
14.5988 22.8925 36.9644
14.3948 22.7097 36.7229
14.4836 22.8673 36.9966
14.2592 22.7024 37.0634
14.3714 22.7784 36.9149
14.3019 23.0129 37.7299
14.2412 22.685 37.076
14.1301 22.7208 37.4765
14.1157 22.6117 37.1545
13.9089 22.5905 37.5071
14.0864 22.7388 37.6599
14.077 22.8799 37.8638
13.9028 22.6161 37.7946
14.0414 22.7511 37.6391
13.7735 22.5849 37.8577
13.7525 22.6172 38.0014
13.6662 22.3958 37.8312
13.6969 22.4441 37.7463
13.6781 22.5747 38.1238
13.5178 22.4238 38.0598
13.5633 22.424 38.0716
13.3384 22.2454 38.1641
13.4395 22.2873 37.9061
13.269 22.2388 38.2933
13.3832 22.2583 38.0682
13.2462 22.2418 38.233
13.2008 22.1941 38.4949
13.4383 22.7964 39.3856
13.1643 22.0918 38.2907
13.1361 22.1356 38.465
13.05 22.174 38.7762
13.129 22.3261 38.908
13.0145 22.1227 38.7272
12.9009 22.0594 38.7314
12.8779 22.0165 38.5939
12.7491 22.1599 39.2486
12.7925 22.1195 39.2467
12.6392 21.9012 39.1497
12.807 22.2898 39.6958
12.5664 21.9312 39.6859
12.522 22.7212 46.3121
18.9222 31.4604 48.6777
12.5985 22.25 39.8775
12.2729 21.7437 39.346
12.4306 21.9174 39.6866
12.33 21.6494 39.0776
12.2687 21.6774 39.254
12.2469 21.7543 39.578
12.1153 21.4601 39.3612
12.327 21.7275 39.6797
12.1367 21.5583 39.4181
12.1754 21.6526 39.5913
12.1417 21.7521 39.9263
12.1606 21.7118 39.911
12.008 21.6096 39.9459
11.9734 21.4926 39.6237
11.8252 21.4815 40.0815
11.8263 21.2507 39.4642
11.7555 21.3999 40.0893
11.9421 21.6737 40.1432
11.6988 21.378 40.1182
11.6598 21.3339 40.0321
11.6 21.358 40.1491
11.5704 21.289 40.2973
11.5818 21.3133 40.4661
11.6782 21.3287 40.1002
11.381 21.1785 40.3717
11.5665 21.331 40.4894
11.4005 21.1901 40.6557
11.5196 21.2905 40.4792
11.3254 21.2689 41.2185
11.6088 21.5478 41.1714
11.3835 21.278 40.6623
11.2197 21.1393 40.8358
11.2241 21.0861 40.7441
11.0993 20.9978 40.8984
11.1484 20.9586 40.5564
11.0239 20.839 40.6537
11.0677 20.921 40.8289
11.0054 20.8649 40.8134
11.0951 21.1348 41.3455
10.9367 20.7555 40.6118
10.8389 20.7121 40.8993
10.8237 20.6201 40.7555
10.8914 20.8242 40.8655
10.7413 20.7713 41.0613
10.5909 20.4874 40.7406
10.5299 20.4654 40.895
10.6442 20.8633 42.6759
11.2666 21.5516 42.0296
10.5273 20.4821 41.029
10.5568 20.6374 41.3971
10.5618 20.5667 41.2124
10.3984 20.5526 41.5054
10.5264 20.5784 41.5257
10.3804 20.5296 41.8699
10.5011 20.4647 41.393
10.3135 20.5657 42.1381
10.5526 20.6509 41.7483
10.2599 20.4836 42.0127
10.2915 20.2895 41.4744
10.2099 20.3467 41.6595
10.2127 20.4033 41.951
10.1618 20.3447 41.8869
10.0494 19.9976 41.4216
10.1415 20.3678 41.9838
10.0439 20.2875 41.9866
10.0002 20.2596 42.3471
9.9655 20.0763 41.984
10.0631 20.4109 42.3797
9.83803 19.9592 41.6782
9.81176 20.0125 41.9201
9.80254 19.9139 42.062
9.9291 20.2827 42.3303
9.74745 19.9459 41.9214
9.69295 19.9211 42.2798
9.79507 20.1562 42.4029
9.54877 19.7336 42.0566
9.576 19.7501 41.9886
9.65189 19.9876 42.3563
9.5094 19.7561 42.3724
9.50209 19.7844 42.3733
9.54104 19.6981 41.966
9.44674 19.7255 42.2719
9.42924 19.6909 42.3467
9.40513 19.744 42.74
9.38788 19.6545 42.3423
9.33159 19.6615 42.6867
9.37392 19.5903 42.4223
9.27437 19.4925 42.2632
9.21058 19.5463 42.58
9.2288 19.5894 42.8627
9.25983 19.6275 42.6594
9.08412 19.4497 42.9871
9.18125 19.6073 43.288
9.03452 19.3798 43.2958
9.01153 20.2959 53.2544
13.8686 27.7531 50.863
8.98905 19.7295 43.7826
8.99641 19.4457 43.0907
8.96116 19.3925 42.9941
8.847 19.2257 42.9601
8.93705 19.4034 43.1068
8.86745 19.162 42.6157
8.76952 19.0785 42.921
8.76373 19.0492 42.6928
8.78226 19.1744 43.2897
8.77027 19.177 42.9549
8.71854 19.0659 42.9832
8.65222 18.9678 43.0619
8.66025 18.7846 42.614
8.63461 18.9949 43.0202
8.6232 18.9759 43.1292
8.59072 18.866 42.7976
8.53258 18.773 43.0092
8.60603 18.9853 42.9759
8.4614 18.759 43.224
8.501 18.7669 43.0288
8.46305 18.8193 43.2969
8.42596 18.7752 42.984
8.36353 18.5401 42.8718
8.28685 18.6606 43.0862
8.29245 18.4974 43.023
8.26227 18.5665 43.1651
8.29939 18.6595 43.4761
8.3605 18.8132 43.7403
8.23973 18.4348 43.0669
8.25777 18.6265 43.2175
8.11752 18.4857 43.5311
8.14639 18.5035 43.4768
8.18299 18.5711 43.4904
8.09852 18.4418 43.3737
8.08502 18.4524 43.2816
7.97626 18.3362 43.3071
8.04808 18.4965 43.7256
7.95946 18.3105 43.52
7.90724 18.2052 43.7002
8.02913 18.3174 43.3739
7.92969 18.351 43.5292
7.84488 18.1784 43.6201
7.84198 18.1144 43.5553
7.96299 18.3482 43.698
7.80623 18.0458 43.2373
7.78047 18.1395 43.6061
7.77215 18.1911 43.9085
7.76047 18.1471 44.2064
7.80373 18.065 43.5692
7.72177 18.1443 43.6368
7.69282 18.0598 43.9207
7.67096 17.968 43.8112
7.65922 17.8981 43.6751
7.59446 17.8359 43.6644
7.68273 18.1095 44.1662
7.60572 17.8784 43.6641
7.56711 17.9367 43.8859
7.51118 17.806 43.6024
7.49001 17.8548 44.049
7.56563 17.8979 43.9176
7.45005 17.7523 44.0108
7.46202 17.772 44.0637
7.45191 17.829 43.9793
7.50125 18.0618 44.5608
7.35496 17.7208 44.0821
7.36267 17.6804 43.9723
7.30126 17.7763 44.5946
7.4034 17.712 44.2179
7.32758 17.6097 44.0734
7.32215 17.7608 44.4769
7.27153 17.682 44.5441
7.21592 17.5117 44.4323
7.28992 17.6385 44.2032
7.19137 17.6285 44.4999
7.23594 17.7673 44.7751
7.15518 17.3774 44.0801
7.16928 17.6376 44.6431
7.08023 17.3859 44.3492
7.14993 17.5555 44.623
7.07485 17.3938 44.541
7.07068 17.377 44.4663
7.11551 17.5501 44.5621
6.99834 17.396 44.7795
7.02763 17.3773 44.8645
7.06936 17.5675 45.2069
7.11927 17.492 44.8442
7.03427 17.5937 45.3694
6.98188 17.4236 44.7262
6.93623 17.4241 45.3244
7.00024 17.3854 45.2176
6.9804 17.3728 44.856
6.90174 17.4344 45.3961
6.93386 17.5763 46.0818
7.06136 18.0316 47.7271
7.03277 18.9853 60.2125
10.5799 24.8954 54.0576
7.13005 17.9901 46.7028
6.98457 17.8008 46.4196
6.85593 17.3556 45.8304
6.83645 17.2559 45.296
6.75633 17.2188 45.3107
6.71659 17.1519 45.1296
6.68322 17.0408 45.0956
6.70518 17.1966 45.3076
6.65297 17.085 45.3173
6.63301 16.9451 44.9371
6.5707 16.8815 44.8733
6.53393 16.9297 44.9985
6.48113 16.6847 44.5867
6.44478 16.7228 44.7813
6.49026 16.8664 45.1932
6.45379 16.7004 44.7895
6.44479 16.6484 44.9499
6.42675 16.6224 44.8466
6.44484 16.6324 44.6917
6.38963 16.6046 44.715
6.35847 16.6551 45.0906
6.37747 16.594 45.131
6.38087 16.5296 44.5561
6.35394 16.6233 44.7511
6.27906 16.49 44.8483
6.25652 16.3065 44.3007
6.23107 16.4429 44.8998
6.27624 16.4875 44.9553
6.21774 16.2799 44.507
6.17858 16.1978 44.2416
6.10899 16.157 44.5824
6.16675 16.202 44.2657
6.12742 16.202 44.5506
6.11636 16.2152 44.453
6.06572 16.2569 44.7155
6.02997 16.1375 44.6736
6.08498 16.2522 44.9042
6.07281 16.1521 44.9482
6.07943 16.2111 45.0006
6.01965 15.987 44.4839
6.02242 16.1735 44.8324
5.94378 15.9509 44.7004
6.01017 16.1343 45.0439
5.94718 15.8478 44.4663
5.95954 16.0947 45.0367
5.92833 15.978 44.6014
5.8929 16.0139 44.89
5.8921 15.9094 44.7565
5.90019 16.032 45.0199
5.87635 15.9595 44.9438
5.84825 15.9647 45.517
5.86941 15.9689 46.7175
6.4001 17.437 46.82
5.75369 15.7743 45.0476
5.81382 15.715 44.4454
5.74469 15.8827 45.2319
5.76715 15.6659 44.6338
5.71238 15.6725 44.6028
5.70416 15.7241 44.9494
5.70012 15.7592 44.9902
5.65928 15.5948 45.0418
5.71105 15.6104 44.7295
5.65844 15.5115 44.4586
5.64535 15.6305 44.9847
5.62475 15.58 44.7647
5.61875 15.5717 44.8629
5.63716 15.6728 45.1348
5.62447 15.4803 44.6933
5.61295 15.6025 44.8429
5.59673 15.5167 44.7867
5.54406 15.5367 45.0688
5.53253 15.4438 44.9957
5.53811 15.6097 45.5958
5.57153 15.4709 44.9253
5.51228 15.4628 44.9527
5.47185 15.3589 44.907
5.45996 15.3548 45.0615
5.4518 15.3617 45.1476
5.49404 15.4602 45.0082
5.41927 15.3358 44.9188
5.37084 15.1527 44.78
5.38116 15.2507 44.6699
5.35661 15.208 45.1197
5.42776 15.3037 44.699
5.31319 15.2549 45.2597
5.33654 15.1309 44.7979
5.31194 15.0981 44.6505
5.28696 15.2263 45.3381
5.37321 15.2709 45.4457
5.35055 15.3345 45.3664
5.30229 15.021 44.6
5.20824 15.0676 45.1685
5.24666 15.1427 45.4974
5.25337 15.302 46.2649
5.25983 16.6322 64.2673
8.3997 21.6104 49.9886
5.21051 15.3288 45.6066
5.22665 15.2204 45.6519
5.22451 14.9192 44.6233
5.15433 14.8927 44.8176
5.12882 14.8754 44.8142
5.18647 14.8249 44.8304
5.14905 14.931 45.0262
5.17775 14.711 44.674
5.11791 14.7893 44.6975
5.15879 14.8225 44.7633
5.04721 14.7426 45.1777
5.17627 14.9926 45.7325
5.09085 14.8002 45.1069
5.09452 14.6109 44.4265
5.00953 14.609 44.7316
5.07692 14.8417 44.9653
4.98119 14.658 44.9355
4.98423 14.582 44.861
4.98967 14.6401 44.851
4.94151 14.5313 44.6311
4.94467 14.5733 45.0946
4.97339 14.6705 45.2622
5.00308 14.7213 44.9099
4.88609 14.3779 44.4494
4.91867 14.6216 44.8566
4.90039 14.4903 45.1088
4.94006 14.4729 44.6121
4.9069 14.5816 44.9791
4.87306 14.5188 45.0252
4.88691 14.7006 46.2291
4.95592 14.5222 44.9144
4.87597 14.5047 45.1613
4.84549 14.4286 44.7709
4.80695 14.449 45.2188
4.82182 14.3515 45.1394
4.86587 14.4196 44.7691
4.74283 14.1807 44.5021
4.79387 14.435 45.168
4.78472 14.3975 45.2456
4.77585 14.2785 44.8618
4.71531 14.2166 44.8369
4.7132 14.2359 44.8615
4.7017 14.121 44.5247
4.71177 14.304 44.9491
4.6758 14.2205 45.1256
4.70818 14.1417 44.7896
4.68223 14.0411 44.7769
4.6809 14.1916 45.0977
4.67323 14.0813 44.7187
4.67986 14.1448 44.7952
4.67581 14.1634 44.7594
4.60567 14.0169 44.707
4.62822 14.0649 44.742
4.59302 14.0094 44.471
4.53249 13.9444 44.7859
4.58389 14.0378 44.9261
4.57635 14.0223 45.0187
4.58295 13.9735 44.6255
4.5324 13.914 44.4633
4.49922 13.9027 44.9283
4.51908 13.873 44.8313
4.56137 13.9496 45.1254
4.55938 13.8806 44.4965
4.49978 13.8089 44.3838
4.45264 13.8327 44.8411
4.50343 13.8618 44.4288
4.41585 13.7267 44.6463
4.47768 13.909 45.3075
4.48049 13.7824 44.9035
4.47756 13.7433 44.3324
4.41443 13.9484 45.3343
4.44253 13.6898 44.6741
4.44395 13.8507 45.0431
4.42863 13.793 44.9363
4.39035 13.7044 44.9348
4.41023 13.6734 44.4125
4.36873 13.6932 44.712
4.38232 13.701 44.7533
4.35325 13.5542 44.4783
4.33804 13.6462 44.5156
4.32088 13.6806 45.0877
4.34809 13.5553 44.7246
4.32853 13.5277 44.439
4.31649 13.6543 45.055
4.32177 13.5914 44.8152
4.31344 13.474 44.5374
4.30502 13.581 44.9817
4.30526 13.4929 44.7043
4.2835 13.4833 44.9474
4.3095 13.5571 44.4353
4.24029 13.5041 44.8197
4.25021 13.5597 45.0987
4.26624 13.5732 45.3228
4.25742 13.7095 45.4874
4.22839 15.3045 68.0039
6.87932 18.8456 47.5021
4.215 13.8623 44.8933
4.15096 13.4973 44.971
4.19143 13.4649 44.8729
4.22083 13.3763 44.5007
4.16217 13.2622 44.5537
4.16971 13.2934 44.4851
4.13755 13.2681 44.4914
4.15624 13.2464 44.5686
4.15022 13.287 44.6203
4.126 13.218 44.3284
4.10798 13.2083 44.661
4.14371 13.34 44.7786
4.1356 13.2024 44.5454
4.09299 13.2685 44.9078
4.1026 13.115 44.4637
4.0669 13.139 44.5833
4.11029 13.2817 44.8941
4.09394 13.1157 44.2198
4.02633 13.0673 44.4785
4.06972 13.1396 44.5473
4.09077 13.3553 45.9304
4.16518 13.3474 44.9705
4.04507 13.0913 44.6246
4.06196 13.4127 46.4175
4.18187 13.1974 44.4138
4.03069 13.1495 44.5972
4.01964 13.0754 44.8877
4.02434 13.0545 44.763
4.01961 13.0661 44.7992
4.00627 13.0244 44.4781
3.98359 13.0124 44.6222
3.98354 13.0087 44.633
3.98273 13.1452 45.272
3.99279 12.9174 44.4714
3.97083 13.0373 44.865
3.96608 13.0039 44.6532
3.93069 12.9689 44.6328
3.94964 12.9233 44.4327
3.92234 12.9022 44.551
3.91775 12.8714 44.6347
3.90881 12.8489 44.426
3.87457 12.7384 44.4417
3.88636 12.7916 44.2965
3.87783 12.7541 44.3394
3.88812 12.8456 44.3375
3.88411 12.9242 44.695
3.84887 12.7431 44.6484
3.87715 12.6412 43.934
3.84297 12.6583 43.7483
3.81605 12.7041 44.4093
3.84685 12.8175 44.8785
3.85383 12.7691 44.4926
3.85569 12.7062 44.4857
3.8374 12.6492 44.3138
3.83082 12.7228 44.2912
3.77706 12.7354 44.6479
3.81454 12.7217 44.3301
3.76604 12.6723 44.945
3.86429 12.7957 44.8086
3.81558 12.723 44.6659
3.86186 12.6815 44.5457
3.75256 12.522 44.219
3.80186 12.674 44.4021
3.74547 12.5965 44.4502
3.76838 12.5248 44.305
3.75598 12.6057 44.6271
3.77244 12.6964 44.9222
3.7971 12.6422 44.4534
3.74082 12.5966 44.7253
3.72908 12.5102 44.4351
3.7418 12.6055 44.5958
3.71224 12.5416 44.2848
3.70026 12.6051 45.0926
3.78383 12.6452 44.6691
3.69906 12.3782 44.1369
3.67969 12.4538 44.0318
3.6465 12.4556 44.2609
3.67053 12.5028 44.7049
3.70651 12.5529 44.5837
3.66908 12.4186 44.459
3.6671 12.5233 45.2079
3.72277 12.6044 44.9536
3.69207 12.5555 44.7103
3.65194 12.4336 44.6764
3.67554 12.6294 45.2007
3.69716 12.6054 45.1845
3.68565 12.7146 45.5596
3.72081 12.5306 45.0486
3.68188 12.5387 45.1192
3.72641 12.4895 44.7457
3.66849 12.6795 45.4103
3.7377 12.5726 45.3378
3.6793 12.7789 46.6842
3.87616 13.4462 48.7294
3.85458 15.1229 71.8963
6.05443 17.5924 48.9523
3.82964 13.4434 47.602
3.91297 13.0361 46.1637
3.70217 12.7097 45.4308
3.72537 12.5235 45.0437
3.59827 12.4892 44.9755
3.65348 12.3934 44.9042
3.60063 12.4983 45.1436
3.62477 12.4329 45.1798
3.59282 12.3526 44.7879
3.59235 12.3187 44.7778
3.57072 12.3388 44.7376
3.57151 12.2572 44.1473
3.49131 12.2607 45.2394
3.57485 12.2282 44.5238
3.51953 12.2488 44.63
3.53867 12.1349 44.1713
3.48096 12.1734 44.4428
3.49611 12.115 44.4673
3.51222 12.124 44.145
3.46424 12.0297 43.8615
3.44367 12.0343 44.1363
3.44549 12.0239 44.0653
3.44608 11.9575 43.7821
3.42032 11.9282 43.9442
3.44476 11.999 44.0954
3.43153 11.9529 43.8367
3.42971 11.9173 43.8813
3.44825 12.032 43.8866
3.40323 11.8897 43.6527
3.40317 11.9679 44.1845
3.41089 11.8651 43.9148
3.41431 12.0046 43.8614
3.4062 11.8676 43.5719
3.35858 11.8199 43.7287
3.39169 11.9264 44.3375
3.4139 11.8509 43.6471
3.3586 11.8449 43.8549
3.36567 11.7755 43.7952
3.36027 11.8735 44.1143
3.38513 11.756 43.6452
3.35688 11.8053 43.7999
3.35077 11.7823 43.673
3.34595 11.7539 43.6767
3.3431 11.8027 43.6326
3.33282 11.7294 43.5949
3.32293 11.5659 43.4413
3.31778 11.737 43.464
3.31786 11.7294 43.8332
3.3167 11.651 43.2116
3.30573 11.6965 43.7183
3.32035 11.7567 43.5115
3.31001 11.6536 43.3492
3.28163 11.6113 43.9167
3.31496 11.5955 43.4404
3.3122 11.691 43.6356
3.29346 11.5863 43.3054
3.29822 11.6632 43.7131
3.29605 11.7023 43.5496
3.26398 11.5751 43.8331
3.2715 11.5758 43.6137
3.2811 11.6264 43.5689
3.26737 11.5342 43.1028
3.23946 11.5075 43.0589
3.24416 11.6437 43.9055
3.2792 11.5497 43.4587
3.22955 11.4846 43.5483
3.26237 11.6146 43.2839
3.22253 11.4958 43.1562
3.21802 11.4963 43.2296
3.2142 11.33 42.9049
3.21487 11.5028 43.5816
3.23438 11.5705 43.3983
3.23844 11.5233 43.1589
3.18985 11.4458 43.3214
3.21268 11.4264 43.7313
3.24817 11.5198 42.8825
3.17521 11.4478 43.5002
3.19995 11.3956 43.3754
3.17614 11.4688 43.4253
3.19266 11.4201 42.9647
3.16241 11.3652 43.3585
3.193 11.3824 43.3079
3.19162 11.4691 43.3022
3.15815 11.3655 42.8487
3.13659 11.3783 43.5005
3.18495 11.3874 42.9114
3.13563 11.334 43.5504
3.19203 11.5882 43.6074
3.15151 11.2223 43.3612
3.18246 11.4546 43.0834
3.12563 11.3411 43.3999
3.14285 11.396 43.5498
3.18282 11.5668 43.3138
3.12355 11.5831 43.5558
3.16899 13.897 72.6054
5.23411 15.4303 43.721
3.14985 11.567 43.4902
3.16088 11.6965 43.8385
3.15362 11.2584 42.6107
3.0955 11.3029 43.3919
3.15206 11.3313 43.1893
3.13463 11.3538 43.4115
3.11391 11.2684 43.2157
3.12538 11.2905 42.9584
3.08363 11.0888 42.5659
3.07983 11.305 43.1498
3.11577 11.2882 43.3305
3.11586 11.227 43.1531
3.10554 11.2301 43.0252
3.11187 11.1792 43.0598
3.10128 11.2504 43.2141
3.1006 11.1463 42.5856
3.0437 11.1221 42.8823
3.08576 11.0857 42.4875
3.04471 11.0991 42.9426
3.08453 11.1163 42.8947
3.06087 11.0958 42.5646
3.04713 11.1355 43.0818
3.0711 11.0804 42.7592
3.05856 11.1268 43.0558
3.06064 11.0789 42.5086
3.00318 11.0416 42.9382
3.04747 11.1667 42.7131
3.02931 11.0029 42.7116
3.01159 10.9098 42.1485
2.9961 10.9594 42.6288
3.0037 10.9674 42.2596
3.00562 11.0329 42.6903
3.03667 11.0917 42.9408
3.0162 11.0025 42.735
3.04683 11.0275 42.6152
2.99844 10.9749 42.3381
3.00369 10.9339 42.6888
3.01783 10.9029 42.4912
3.02153 10.9838 42.1997
2.98505 10.8444 42.1512
2.978 10.9413 42.2769
2.98093 10.8577 42.3479
2.9826 10.8517 42.1623
2.98481 10.8958 42.0937
2.95273 10.9334 42.8421
3.00823 10.82 41.9093
2.95066 10.9738 42.9427
3.0325 11.0402 43.13
3.01014 10.9567 42.3008
2.9714 10.9355 42.4783
2.96948 10.7597 42.0794
2.95546 10.9084 42.5391
2.97705 10.8657 42.3822
2.97607 10.8825 42.4333
2.98145 10.8554 42.4186
2.96992 10.7879 42.092
2.94493 10.9207 42.3975
2.95443 10.8787 42.3755
2.94204 10.8555 42.3578
2.93793 10.8197 42.7188
2.9503 10.7711 42.2061
2.94169 10.8119 42.0056
2.90614 10.7418 42.2493
2.92368 10.8152 42.4075
2.93127 10.8861 42.2947
2.92314 10.7362 42.278
2.92599 10.828 42.0698
2.89697 10.732 42.1934
2.91946 10.7354 42.0457
2.89918 10.6769 41.968
2.89734 10.6825 41.7931
2.9001 10.7206 41.8595
2.87269 10.6509 42.0966
2.89928 10.6607 42.261
2.92493 10.7793 41.8926
2.90455 10.6471 42.1029
2.9061 10.7577 42.3234
2.90904 10.7601 42.2661
2.91644 10.7097 42.0428
2.89219 10.6264 41.6341
2.86731 10.6127 41.6162
2.86452 10.6131 41.711
2.87561 10.6826 41.9533
2.89077 10.6213 42.0199
2.88423 10.6639 42.0374
2.911 10.7375 41.7317
2.87422 10.7514 42.5884
2.92122 10.682 41.7749
2.85887 10.6217 42.2828
2.91288 10.7056 41.7961
2.85145 10.6593 42.0191
2.90373 10.6945 41.9695
2.87224 10.8935 42.3461
2.90006 10.9686 42.1116
2.87443 13.5034 72.6987
4.8496 14.1574 41.977
2.86159 11.0268 42.2018
2.88552 10.8443 42.4773
2.88194 10.7684 42.3263
2.90145 10.6853 41.9056
2.86681 10.7019 42.1394
2.8606 10.6818 42.1271
2.86973 10.5546 42.2616
2.87383 10.7287 42.2115
2.89266 10.6145 41.8641
2.84358 10.6212 42.3833
2.91298 11.0266 42.724
2.89069 10.6333 42.1081
2.89494 10.6618 41.8933
2.84533 10.5503 42.3398
2.91944 10.7083 41.8924
2.83319 10.5705 42.0804
2.89648 10.5092 41.5668
2.8164 10.5543 41.9763
2.88284 10.6053 41.8585
2.83346 10.5475 41.8181
2.84643 10.6421 42.304
2.84958 10.9679 43.9189
2.96783 10.7477 42.192
2.85464 10.5828 41.7804
2.81865 10.5036 42.1294
2.84754 10.7347 41.8531
2.8102 10.532 42.2412
2.86167 10.542 41.4372
2.79252 10.574 41.9929
2.82811 10.5902 42.1118
2.84083 10.5277 41.7968
2.80647 10.5282 42.0308
2.83054 10.5413 41.7927
2.79839 10.4848 41.8533
2.81984 10.639 42.1896
2.8384 10.5696 41.5786
2.80098 10.4555 41.4589
2.79251 10.4576 41.7562
2.81397 10.4708 42.0642
2.82526 10.4965 41.4808
2.80578 10.4889 41.7381
2.80994 10.4859 41.9505
2.80932 10.6197 41.7714
2.80466 10.5272 42.3417
2.83986 10.5468 41.8659
2.82703 10.5681 41.8554
2.79011 10.6467 42.293
2.84552 10.5943 42.0274
2.8128 10.6108 42.8495
2.87646 10.7174 42.0838
2.81791 10.4863 41.8494
2.80806 10.5873 41.8748
2.81136 10.5394 42.8141
2.87128 10.6748 42.246
2.82264 10.6143 41.8895
2.82371 10.5085 41.9855
2.81909 10.578 42.1879
2.81916 10.5371 42.3605
2.86841 10.6227 42.0258
2.79904 10.6603 42.056
2.82761 10.498 41.783
2.79812 10.5102 42.1312
2.83347 10.4745 41.822
2.80419 10.5969 41.9875
2.79835 10.5591 42.8645
2.84642 10.6226 42.3351
2.8181 10.4779 43.4097
2.89929 11.4633 43.164
2.88002 10.5127 42.1916
2.813 10.6718 42.2564
2.82484 10.5706 42.5201
2.84275 10.6539 42.282
2.82151 10.608 42.5645
2.82867 10.5768 42.1193
2.81802 10.6912 42.9674
2.88096 10.762 42.1208
2.81722 10.534 42.9362
2.88016 10.7924 42.8161
2.85671 10.6831 42.5125
2.83725 10.7005 42.7975
2.86384 10.6842 42.4521
2.83095 10.6734 42.7365
2.84132 10.6596 42.4514
2.84535 10.7668 42.889
2.86933 10.8125 43.4012
2.89567 10.8234 43.2984
2.87155 10.8516 43.1542
2.8574 10.9068 43.1048
2.87222 10.8565 43.6133
2.91137 10.9935 43.9009
2.92239 10.9397 43.8525
2.92862 11.128 44.7803
2.97327 11.4116 45.6597
3.03701 11.9077 46.3467
3.07622 14.2964 73.0652
4.74265 0 0