# pn-170911/RbIIR-58-USN7-1280-1959.psd
# Power spectrum* (dif=0,1,2) (really just |FT|^2)
# NOTE: only the first half! (symmetric)
# weeks: 1280-1959
# 81 clock-days, 456 excluded
# PSD: 1441
793.37 0.14859 0.114899
25820.1 0.280274 0.293357
345861 7.29289 0.34138
9070.08 0.439426 0.263421
59450.1 4.73672 0.411278
3523.66 0.445483 0.270184
5755.55 0.884495 0.292774
2192.76 0.49437 0.352682
2143.52 0.646161 0.359739
1142.53 0.475534 0.298544
1130.47 0.580781 0.344667
909.527 0.518932 0.283971
814.031 0.498102 0.311934
696.701 0.556688 0.305402
642.98 0.690943 0.368603
717.79 0.79464 0.29023
763.248 1.00265 0.349672
654.053 0.846431 0.26231
642.927 0.929922 0.287078
562.931 0.978058 0.28184
479.499 0.954415 0.336635
446.873 1.0357 0.292878
447.165 1.0538 0.318833
457.601 1.12062 0.324419
446.707 1.24736 0.331389
371.113 1.10603 0.279435
343.142 1.07889 0.29761
382.823 1.26402 0.304723
374.867 1.51341 0.338609
380.361 1.44222 0.341117
344.679 1.38582 0.36041
306.884 1.53234 0.314204
375.235 1.81234 0.329094
365.626 1.83286 0.290507
317.698 1.7366 0.354073
324.613 1.84292 0.279958
310.162 2.03526 0.266195
370.361 2.43118 0.367552
283.996 1.88369 0.320612
276.122 2.04698 0.302069
260.34 1.94124 0.296084
271.165 2.44614 0.348379
256.254 2.3462 0.308184
226.203 2.23562 0.377898
222.013 1.96759 0.281428
247.462 2.38681 0.328064
245.031 2.40272 0.299303
278.756 2.91464 0.38348
244.432 2.6513 0.299865
217.521 2.20322 0.401282
230.164 2.8898 0.335514
251.346 3.06822 0.393806
201.066 2.60004 0.354334
225.289 3.03384 0.373533
220.756 3.1464 0.367595
248.409 3.60066 0.350948
269.365 4.26787 0.358193
229.82 3.54702 0.405761
245.284 3.68806 0.288334
239.263 3.72445 0.356435
255.988 4.1841 0.459227
213.742 3.80854 0.342753
218.133 3.98936 0.417417
244.496 4.52584 0.394985
196.837 3.93925 0.359569
203.48 3.75678 0.36896
163.717 3.27383 0.359483
204.782 4.34928 0.457343
191.821 4.5816 0.348025
277.193 5.91487 0.430513
232.526 5.603 0.409481
166.339 4.08682 0.477219
196.205 4.84163 0.420399
195.672 4.60791 0.561048
185.596 4.41915 0.376396
172.835 4.37723 0.435561
197.516 5.54718 0.476336
188.133 5.47778 0.488855
186.506 5.26769 0.440461
161.903 4.64191 0.505478
190.833 5.88461 0.475307
172.55 5.24294 0.445517
166.176 5.21345 0.4427
163.756 5.12128 0.57471
170.645 5.65994 0.471177
179.824 6.10287 0.450042
174.103 6.03994 0.496918
189.624 6.69987 0.616063
221.448 7.95768 0.681351
181.357 6.54141 0.579651
189.985 7.45673 0.604272
270.848 10.4033 0.800318
193.506 7.49096 0.655312
147.961 5.97611 0.500089
148.305 6.09171 0.591978
183.943 7.5642 0.538185
207.825 9.20262 0.748695
141.75 6.16646 0.495592
156.262 7.47576 0.622376
231.981 11.0465 0.816006
235.338 10.5696 0.811369
236.69 11.6804 0.884986
283.225 14.2228 1.01293
255.262 12.5712 0.927623
239.44 11.9966 0.802545
270.983 14.1731 0.934838
283.161 14.4891 1.01058
246.57 13.2949 1.02156
262.84 14.676 0.927838
269.23 14.8645 1.08204
275.036 14.4336 1.07658
259.444 14.9573 1.11012
194.074 11.3413 0.860918
276.47 16.7356 1.12385
140.43 8.30804 0.671039
260.007 16.0595 1.39231
185.848 11.7553 0.936806
208.704 13.618 1.19614
131.691 8.4936 0.787065
240.861 15.6629 1.37037
166.301 10.7216 1.06359
218.67 15.278 1.31492
214.518 15.047 1.26686
267.753 19.3177 1.5517
238.826 17.1284 1.72147
283.524 20.1298 1.54124
213.565 15.6549 1.50811
267.509 19.8853 1.68818
149.808 11.5931 1.07307
237.093 18.8536 1.77555
164.219 12.4854 1.16174
156.076 12.2289 1.13586
161.235 13.2642 1.31897
150.666 12.2619 1.20266
209.183 17.1879 1.86584
172.8 14.9386 1.51349
225.077 19.2474 1.77684
208.876 17.6655 1.78032
247.931 21.673 2.04065
139.707 12.8438 1.55712
180.599 17.3192 1.83142
122.724 11.2671 1.32509
163.206 15.2088 1.62727
164.928 15.6649 1.63421
111.2 10.7835 1.19668
185.24 17.7772 2.00139
111.361 11.7869 1.47919
141.987 13.5442 1.59438
127.3 12.7012 1.45344
131.315 13.1352 1.54208
132.47 14.7162 1.88892
132.64 13.5692 1.56012
155.876 17.0084 1.98128
105.397 11.2372 1.5041
112.217 12.5709 1.61162
117.077 13.4777 1.83472
100.07 10.3874 1.31407
118.43 13.7169 1.65506
107.212 12.8764 1.86281
104.315 11.4545 1.52398
121.144 14.9774 1.82265
121.017 14.3016 2.20674
122.117 15.2436 2.23294
98.4991 11.8269 1.7142
115.207 14.4469 2.00109
107.341 13.3045 1.80511
95.8305 12.1745 1.87177
104.914 14.2337 2.08351
123.516 16.5171 2.27004
115.642 14.4622 2.13293
103.811 13.8718 2.07213
115.577 15.4951 2.21587
116.077 15.7849 2.48214
90.613 12.5115 1.93939
105.519 15.9412 2.6212
102.744 13.9633 2.38713
120.736 16.194 2.65765
106.81 15.7495 2.57391
107.97 15.5302 2.63055
116.689 16.9877 2.57142
119.064 17.8805 2.99766
118.261 18.0661 3.09005
99.3201 15.9681 2.62809
141.96 21.288 3.3981
104.97 16.7876 2.82124
130.372 19.7237 3.13871
106.673 17.7167 2.95418
100.656 16.6031 3.23324
76.0685 12.4769 2.05857
122.215 20.1446 3.0959
100.211 16.8656 3.12662
90.3594 15.6041 2.856
106.422 18.439 3.32449
92.5643 16.0602 2.95147
103.514 18.869 3.5737
101.813 16.4741 2.91426
99.6137 17.9206 3.26859
98.1829 17.4223 3.15704
90.7057 16.2215 3.08845
98.3517 17.6883 3.53427
75.5726 14.4497 2.84313
104.541 18.9688 3.52513
94.595 19.1372 4.08516
107.538 20.3625 3.83928
90.8939 17.9075 3.95475
132.139 24.7305 4.58284
92.5698 17.644 3.954
116.262 23.5156 4.96241
94.1427 19.1539 4.07613
78.8113 15.4482 3.39039
106.596 21.4499 4.93472
128.958 26.6364 5.50936
110.557 22.5231 4.8471
111.663 23.6967 5.0273
90.4852 19.4576 4.71362
104.465 22.9873 4.9997
109.093 22.0968 4.8546
110.871 23.8477 4.65245
85.5319 18.5408 4.58917
121.979 26.7277 5.95743
106.649 24.6798 5.75783
102.018 22.8401 5.17533
114.817 25.7123 6.08017
128.619 27.6837 6.14818
112.993 27.4074 6.72963
132.042 30.1497 7.23422
131.057 33.151 8.00993
108.437 24.9517 5.99617
134.94 33.7331 8.74494
120.744 29.417 7.54472
141.05 33.8095 8.08668
134.329 33.7662 8.32087
92.7526 22.0852 5.67204
142.274 34.1502 8.43083
95.6556 24.6045 6.269
93.2231 22.2868 5.07003
103.676 26.5539 6.97564
82.8308 21.4953 6.07038
96.4027 24.5373 6.75873
81.0002 21.3255 6.15689
72.479 19.0962 5.108
88.9894 23.8446 6.39662
77.4529 19.6878 4.95206
85.3803 24.2869 7.18773
98.0364 26.4832 7.65039
136.864 35.2216 9.42677
113.986 34.0804 10.1815
130.676 36.2597 10.1445
165.696 45.923 12.3332
129.695 36.5601 10.5154
141.543 40.822 11.8575
107.414 31.7654 9.28977
112.809 32.0171 9.95372
88.9081 25.0815 7.22174
79.8792 23.9645 7.51329
90.3347 25.0368 7.39514
94.287 30.107 8.87582
73.8845 21.0483 6.1345
101.407 31.8643 10.5446
88.3773 25.0382 7.53776
97.6912 31.249 10.0115
99.3274 28.5989 8.06884
112.631 38.7944 12.2127
74.3504 23.2073 7.32876
138.587 46.3329 15.3905
94.2756 30.4409 9.31597
108.083 36.8633 12.9537
91.0003 25.7957 8.19615
116.362 36.8387 12.2447
91.4414 28.7704 9.63493
97.2141 33.1172 11.1239
71.1578 24.2277 8.72444
74.666 27.0654 9.32201
82.6937 26.2828 8.9649
99.8003 33.0409 11.1616
75.3211 26.7938 9.69753
90.2437 32.2526 11.5924
89.5244 30.1231 10.8592
107.114 38.3936 13.825
72.4247 26.5734 10.3644
90.0667 31.0253 10.564
86.6486 30.177 11.3164
128.397 48.1905 17.3553
113.388 40.8146 15.5389
116.666 42.3863 15.5998
100.82 39.3115 15.1395
134.056 50.0912 19.1659
137.108 51.3145 19.6846
169.164 64.3199 24.0372
105.941 41.0943 16.6254
119.831 44.302 16.6229
107.587 41.4844 16.8852
110.3 38.7394 14.0344
111.837 44.6253 17.8873
72.6552 28.4908 11.9529
96.3108 34.2386 12.5421
90.2126 33.8675 13.404
72.7584 27.3002 11.2078
67.5658 27.5108 11.0826
68.4532 27.7391 11.9607
64.8837 27.246 11.3716
74.4528 29.6271 11.9545
52.8485 22.7072 10.0658
62.3901 25.486 10.7833
62.5036 26.0123 11.1386
65.7776 27.1742 11.5673
77.39 32.9387 13.0868
49.2623 22.3042 10.1368
53.386 22.8772 10.0747
70.0619 29.4397 12.8471
63.9837 27.4119 12.4121
55.2083 23.2042 9.99321
59.6007 26.9676 12.5753
67.4499 29.4713 12.7133
59.5126 27.4789 12.7176
59.3762 27.7323 12.5751
62.9631 27.9025 12.4994
63.5653 29.5526 13.6382
68.1978 32.3453 15.2067
61.445 28.1508 13.235
46.4559 20.7776 10.423
60.5757 28.5242 12.9274
48.785 21.9962 10.6919
59.637 28.8047 14.0952
61.2749 29.5268 14.4587
61.3673 29.3692 13.9854
62.3642 29.823 14.6746
53.9724 25.2367 12.095
55.7523 26.6908 13.134
57.6175 29.508 15.8508
68.3352 32.5625 15.6296
67.2371 32.6672 16.0877
65.0526 31.5767 15.8858
51.6887 25.7523 13.142
69.8898 36.3102 18.7428
62.8223 31.0038 15.5683
68.1715 33.888 18.3674
60.2807 30.2052 16.4177
54.2418 26.5931 13.2895
69.5933 36.5497 18.9062
57.597 29.7395 16.3977
55.2635 28.947 15.0512
62.2473 32.9718 17.8243
64.5247 34.1774 18.0493
61.3767 34.8096 19.9273
67.9412 35.0164 18.8708
65.2138 34.7103 19.7376
71.1134 34.2339 16.7289
59.548 35.5571 21.7089
100.733 52.43 26.4876
79.9661 48.4634 27.7173
67.6968 37.8447 20.1159
49.4457 30.6947 20.1818
80.7697 39.384 20.2162
65.0151 36.5108 20.6524
61.467 33.6349 18.4542
53.3495 31.7756 18.034
57.2932 34.406 21.6801
54.405 30.0669 17.4941
52.9224 28.5604 16.4943
51.0966 29.1561 17.8086
68.8124 38.5114 20.9304
51.371 29.734 18.3676
80.487 45.1096 25.7236
49.3569 31.7385 20.6622
70.9891 41.7124 24.695
60.0681 33.1438 18.9151
59.4906 31.7146 17.9714
61.2174 35.9347 21.5491
63.2386 38.8865 22.8988
57.8674 37.0464 24.1032
77.5813 46.3522 27.9634
70.7087 44.845 29.0985
106.152 62.2491 35.3052
93.4462 62.7543 40.5315
88.5807 52.8717 32.2407
95.7994 64.7838 42.5464
78.1703 46.0088 27.51
69.0578 49.1868 35.6544
91.1527 51.8041 29.0385
68.5487 50.2563 36.5439
86.7365 49.4383 28.9223
54.2928 37.0738 26.7269
67.4629 41.6009 27.6635
69.6328 45.8754 29.2817
65.7582 46.202 33.5347
82.5459 53.4236 33.7393
60.4894 43.3652 31.5658
71.2087 45.0488 29.367
59.8641 39.6225 27.3622
82.9015 52.8706 33.9849
61.037 40.2649 27.165
54.3283 35.2582 23.0001
64.8671 45.672 32.545
66.3999 42.1945 27.5113
49.4648 36.3281 29.156
76.1007 49.0152 31.4522
65.9645 47.9318 36.0886
73.6876 48.1011 30.5881
45.4016 34.5484 26.7713
78.2107 49.9535 30.7308
56.044 44.0817 33.162
71.2726 46.7938 31.6557
80.7947 59.1729 42.6973
60.6043 43.7944 32.659
72.3299 51.3822 36.8961
61.0369 45.2045 33.8793
50.499 37.7399 29.8633
55.6217 39.1199 29.2499
71.5241 54.9042 38.6372
44.597 32.9474 26.6557
62.8798 44.0448 31.8403
54.9928 40.5466 30.1911
49.8423 38.7095 30.3232
44.3213 33.8344 27.4501
52.2481 40.5205 32.1816
46.5502 33.5237 24.2528
51.0429 39.8716 30.5843
40.1385 29.0304 22.8379
65.4965 53.3765 40.0348
44.3791 35.1433 31.6555
65.9662 48.2295 34.8755
43.6628 34.2801 27.2597
68.0609 55.8033 43.9363
48.7821 37.7934 33.8698
72.8008 56.2352 41.227
53.5253 40.3113 31.0042
67.9955 55.8679 45.1109
48.5373 32.8202 23.2077
48.6787 45.5412 40.0632
51.6781 37.5309 28.2194
38.4026 29.6809 24.1158
47.7925 35.8782 29.4008
47.2226 37.4613 30.7938
46.1632 36.5119 29.8576
45.8 37.6892 30.0454
43.7032 35.2058 30.0083
48.243 41.0952 33.6588
40.5521 35.2271 32.1651
47.0044 38.0968 31.0455
45.3613 37.0149 30.5737
41.712 34.8263 29.3332
38.2229 31.8497 28.1777
47.1044 39.0735 33.0148
44.0882 38.1557 34.032
40.8967 35.2434 30.2057
40.1268 35.046 29.49
48.7789 43.2282 37.3156
42.1808 37.3781 33.2172
35.6508 31.7383 30.5546
51.6669 44.0801 37.1328
40.4578 31.9717 28.9508
47.2349 41.6117 36.0665
46.5282 39.341 34.4914
43.8534 40.9096 39.1517
45.8031 38.1156 32.7154
36.8254 33.4683 33.8671
50.2001 43.5424 38.7057
42.2524 37.5362 32.6331
35.5984 33.0529 32.4518
44.2323 38.2785 35.2091
47.9735 44.8316 39.7526
35.6692 30.564 29.4575
49.2572 46.9392 42.8731
42.61 39.2888 36.7744
39.8185 36.8785 34.1177
31.8907 29.4173 27.5198
40.4855 37.4474 34.2592
41.5766 38.7733 36.2928
33.4766 30.339 28.6003
34.6172 31.4762 29.7229
40.1767 38.2791 35.7292
33.1577 34.1665 36.7127
47.3634 46.688 45.3496
41.1968 39.9958 37.6878
35.9924 39.2019 42.7511
36.9863 33.287 31.2868
37.7808 37.7135 39.386
34.0422 32.1732 31.438
29.9826 31.8625 33.6661
42.5393 38.897 36.9716
39.429 37.9857 37.7542
35.7697 35.4212 33.722
28.0146 28.644 30.2487
37.7447 39.7765 41.2661
31.1327 29.3371 30.6113
32.8619 31.1047 31.002
34.3242 33.3038 32.8029
35.9619 36.0059 34.7213
38.9716 43.2026 44.2708
30.7638 32.5352 36.7282
33.9968 34.9352 36.7563
35.1989 32.6981 32.7827
33.1698 34.0802 35.5738
38.4299 41.5948 45.7677
42.8134 43.7546 43.9977
38.6591 41.8876 46.9612
39.9932 37.197 35.0974
32.7909 37.8067 42.2726
37.7599 35.1107 33.9593
31.4271 34.539 37.5752
34.2868 36.6024 39.8039
37.3799 40.1421 45.0964
31.3756 33.857 37.8331
31.6881 33.6032 39.2572
35.4709 37.0782 42.7229
41.4143 41.0831 42.6146
42.7981 42.8882 45.7653
32.67 33.2089 35.948
37.3876 39.2174 39.6368
28.0497 28.7923 29.073
30.542 37.1949 44.2202
29.7041 33.4809 37.0085
25.8839 28.3109 34.0195
32.5303 31.4508 31.8554
31.4454 36.322 41.4647
33.519 39.3585 45.4132
32.8862 36.9987 42.0291
34.2379 37.5183 42.0688
27.0271 31.6991 37.0257
30.5715 36.8376 43.8008
32.2984 37.8684 43.1975
29.6664 37.5206 46.6854
32.7319 35.4606 39.9034
31.852 36.2928 45.5616
32.8624 35.1706 38.702
27.1979 34.4181 44.7747
34.1724 35.3251 38.3227
32.505 37.8373 43.494
28.8242 34.2528 41.8339
28.7135 33.2257 41.393
25.2631 29.8153 37.8669
27.1368 29.7992 34.5418
29.8694 34.8086 40.0852
29.8535 34.8774 43.4456
29.9718 32.9134 38.356
31.5113 38.3179 47.8775
30.8461 34.8282 43.2264
40.2097 45.9668 50.6576
30.27 36.4019 40.7774
29.3617 37.1589 49.0387
29.9316 34.3361 41.873
30.4775 36.1017 44.3452
25.7398 32.1248 43.8696
32.0318 37.4217 45.5794
31.4837 38.5305 46.9562
26.7975 32.6967 41.5438
32.1116 34.2633 36.7156
25.0557 32.5957 43.4865
23.6469 28.8117 38.3197
30.9894 36.7037 42.5932
29.7264 39.6735 50.9975
28.6009 37.318 49.4737
31.8365 39.3609 47.6648
24.6694 31.6152 44.0307
30.5289 36.9103 47.1845
28.9269 37.1624 46.9015
27.2961 38.142 53.2996
28.5647 31.5721 39.0931
26.2436 33.9178 45.402
25.6995 30.8833 38.8046
31.9608 44.673 56.263
19.8455 27.5429 40.1342
26.3262 36.0243 49.8954
28.3944 36.5767 49.9401
30.8585 36.2938 45.0444
26.3036 36.1116 52.1346
32.7639 42.6689 56.8824
29.9302 37.8048 49.9577
29.4236 38.0874 50.1872
27.2972 37.5596 53.6436
35.5004 44.5785 52.8632
25.2496 34.9338 51.3759
31.9271 43.6698 57.2179
28.8752 42.6329 63.6534
27.1055 35.0139 51.7341
40.5985 53.2758 70.3316
28.0415 32.7344 40.2622
25.7887 40.412 62.5769
31.0921 38.3865 51.2863
25.5647 35.9675 55.0984
31.8926 40.898 53.6808
28.2809 41.1147 60.6035
32.9966 41.5998 55.5659
23.6274 33.2831 48.3265
26.2523 36.6408 52.4462
24.2806 31.8435 46.1045
27.1977 36.44 48.9058
25.1055 37.5333 52.7424
29.4149 39.7326 53.0048
25.8136 36.192 53.5212
27.1992 42.5247 62.6556
26.5507 35.8714 52.7472
21.7664 27.7447 38.7822
20.194 32.9948 52.0562
23.1188 34.1437 54.2303
29.3824 38.5944 53.4111
20.3165 27.5444 40.6482
26.5134 37.6659 54.0016
21.1296 30.8665 49.1383
27.9825 37.0531 51.5843
20.8167 30.3667 46.1235
26.7825 36.2678 49.9166
21.3588 31.904 49.2495
26.6652 34.8445 45.9596
24.2005 37.9434 56.4176
27.5597 41.8776 63.0501
27.1164 39.9204 58.3021
20.3387 33.8271 57.2934
22.7976 30.1124 43.9734
20.9293 31.5046 48.5624
21.5117 35.5071 60.3027
21.0466 31.635 53.8779
28.3091 38.4812 55.2806
21.3239 31.4578 54.7248
25.2727 31.6363 42.4727
25.0748 36.7088 54.8464
22.9524 36.0948 54.5712
18.3638 27.1675 42.0044
19.082 28.1541 43.2351
21.5922 32.465 52.5397
23.2801 33.8734 49.2544
19.5197 30.8911 51.9418
23.4095 33.3831 50.0728
23.9125 37.9418 57.8542
22.3804 34.5574 56.5701
20.7577 30.9735 49.9361
22.8537 32.652 50.463
26.0204 42.2591 63.578
22.8323 37.3965 63.253
22.9733 34.2204 53.5904
21.231 31.8612 45.5044
20.7752 36.9509 59.0722
19.3313 29.2588 50.056
23.3992 39.6242 63.5212
20.0178 31.7977 51.5383
20.2933 35.4215 63.8618
24.264 36.8113 59.859
22.6173 32.309 46.6839
20.7773 38.1093 67.6088
21.8133 35.0588 61.0165
23.1069 34.9824 56.8553
22.4593 35.3151 54.9416
18.0333 35.0566 67.3692
26.587 35.8012 52.2092
20.1221 34.0165 60.8318
23.6916 35.0375 54.4132
22.2736 40.8208 73.2962
21.3654 31.5228 51.3003
20.2432 36.3407 66.332
20.7063 29.4927 46.2294
17.9977 29.6122 49.4486
23.0889 41.2119 72.281
22.7873 38.9422 68.3405
21.2263 32.2756 55.8141
19.6904 31.9438 56.2526
20.8111 32.2362 50.6711
19.0186 32.5574 55.0259
21.4738 34.5702 59.3683
20.7726 37.4054 67.3715
21.4375 34.711 59.7255
21.6058 39.5048 69.8816
23.7598 37.3172 61.0865
19.6966 33.7934 61.4816
22.041 35.5001 61.7996
23.8481 42.9839 71.7391
21.1289 34.7313 62.5375
21.7927 34.514 57.6999
18.033 29.8175 53.3206
19.3598 34.5583 61.5711
16.3008 24.5285 48.6852
20.6874 35.3964 63.2716
25.0491 41.3448 64.0828
17.9477 31.3641 54.5745
15.3783 24.5459 44.3635
18.477 32.9136 56.3986
19.0554 36.1331 60.6706
16.5944 33.9271 67.5728
17.0139 33.118 70.2515
20.9933 34.0982 54.3414
15.0379 28.7103 61.9885
21.912 38.0944 65.752
19.2884 34.9245 65.8217
17.6702 30.3968 55.6184
18.0178 31.8487 61.4568
18.652 30.2211 48.7788
15.9013 31.8459 64.8633
18.6285 32.7048 60.357
18.3742 34.3728 70.4135
21.0037 33.6949 53.5821
18.4701 35.8547 69.6665
19.122 38.5606 73.2307
19.4075 34.0509 63.7288
17.7038 30.9756 54.7488
16.8582 33.1911 67.2013
19.6452 32.1057 58.0144
16.8205 30.6939 57.1953
16.8787 32.8358 62.7602
19.8103 37.6486 69.3475
17.8267 32.2272 59.7928
15.0185 27.5055 57.2281
19.1139 32.1435 53.2975
15.7776 32.3038 61.0937
15.5642 32.3151 64.9081
17.7095 36.1247 69.1619
16.6049 30.6324 59.0644
14.0905 29.6111 68.6868
22.5156 42.2285 77.2994
16.504 26.3898 48.5002
17.1232 30.9807 53.6422
10.6528 22.5899 55.3013
17.5784 31.4168 59.2368
17.3714 35.2267 65.4649
17.6192 32.5104 62.6948
15.7447 30.5127 57.9702
14.1273 26.9751 55.6734
15.4554 28.9183 60.4825
17.2134 31.5854 64.4951
16.9978 33.9015 67.3338
16.3696 29.6013 56.7412
16.8224 32.0429 61.7383
15.0374 33.946 74.9251
16.4664 27.2764 50.1529
15.3053 32.044 60.4817
14.4502 27.1185 56.1436
14.9733 32.4763 70.2793
19.766 37.1727 69.1823
17.5226 33.7218 68.976
17.0616 34.611 71.8917
19.245 34.7722 64.0452
15.8773 32.7359 71.8933
15.6013 29.3882 62.9387
16.1607 31.9922 64.1452
17.8229 32.0079 58.7125
14.004 32.3182 66.9999
15.4875 35.7283 83.302
20.5874 36.6687 68.106
18.267 36.0926 67.8787
14.799 30.6301 64.3256
13.2051 28.3835 69.9116
17.6062 34.5912 69.2264
15.8019 31.5487 66.5004
16.7898 32.1958 68.405
18.9276 41.0148 85.2654
17.0774 31.3941 59.2338
12.1456 28.8407 65.279
16.1058 29.7053 62.0952
14.0496 30.6975 78.3627
19.9425 35.4812 73.9479
19.4074 35.841 71.5907
17.3105 31.8782 57.294
13.8169 32.2552 68.9151
18.1335 40.4639 85.5295
15.9727 30.724 67.6402
14.832 27.4642 53.3807
15.843 35.82 79.4443
14.2903 30.1002 64.1381
14.9531 30.9667 72.2941
16.5483 32.1645 63.9394
12.9123 28.3029 65.873
13.1204 24.3742 53.1841
16.3551 35.7896 71.6318
14.8755 34.4041 75.3887
13.964 26.1948 53.7968
15.0747 35.54 85.6665
19.1154 39.6617 79.4837
13.1121 25.7935 58.149
14.0547 31.2282 73.0671
16.5115 37.3974 77.1989
12.4949 24.9489 59.7292
12.6555 27.004 65.7415
16.0367 33.2281 65.8709
11.4394 25.9313 66.2837
16.063 32.8552 73.4594
14.2791 31.2503 74.6384
13.5605 28.2769 73.3647
18.1242 38.0289 82.8603
17.5317 32.3152 65.9729
12.005 24.0861 52.7793
13.0627 28.4218 67.3323
16.1435 35.2997 74.6366
11.9416 25.7 64.1716
15.5158 34.5698 77.3105
15.9127 30.4166 62.7282
13.0226 31.1427 75.9608
15.323 29.6249 59.2586
10.7946 27.4663 70.5242
15.6347 34.7958 75.0457
12.1698 27.9312 69.0023
12.8195 24.8549 58.712
14.23 30.1675 62.5086
11.0969 29.0042 73.8435
11.6531 25.0464 65.6512
13.4209 27.1017 65.1834
14.3669 28.8109 66.1076
14.7025 32.9226 65.0395
11.301 27.6382 66.8302
12.7423 28.172 69.3488
12.4467 22.8759 51.6712
11.8793 25.8378 63.6981
12.769 28.7561 65.1711
12.6944 27.7678 66.7577
15.7994 34.4616 64.8912
11.4094 26.2694 64.7137
12.3309 29.9772 81.1487
15.475 30.4746 60.9187
13.0002 33.6089 81.1253
13.5796 28.5091 62.861
13.6457 32.8908 80.9688
14.3732 30.3946 69.332
13.4852 31.4348 73.4093
13.0021 32.2013 76.6979
13.8986 30.8365 68.2626
10.585 26.627 67.2698
12.8464 28.8392 73.1359
12.9317 29.5425 73.337
12.5775 26.2064 58.5596
11.6229 27.866 75.0371
15.2671 35.3592 78.375
11.9341 26.6334 65.916
11.352 27.4203 61.0956
10.2898 28.139 76.7685
13.7146 30.6109 73.1341
12.305 29.173 73.3691
11.8264 24.7494 62.2209
12.1584 27.1566 71.57
12.7757 24.7638 62.023
12.8018 30.4054 70.5074
13.362 32.1555 75.2258
10.4672 23.8886 64.3308
12.6224 28.4388 69.1631
14.0266 33.4012 80.2444
13.1589 29.3516 64.2651
11.1909 27.7184 70.0858
11.1211 27.4863 68.602
10.671 26.0801 68.413
12.2725 30.7189 83.1301
12.2803 30.0255 82.6212
13.528 26.455 65.8961
12.262 28.2471 70.7467
12.2567 27.206 65.0813
14.5893 35.6428 79.4748
11.1563 27.5869 69.0514
11.2573 27.7048 71.4981
13.777 34.6377 78.7847
11.7842 29.6063 74.5529
10.3288 24.9308 67.7805
10.8637 30.0331 80.4134
10.849 21.9982 59.991
10.69 26.7361 73.0437
13.3609 34.0976 91.4587
14.8707 33.639 82.4103
12.4358 30.7909 79.763
12.0769 26.1903 61.5738
10.842 24.7314 65.4655
12.2078 32.8952 80.8238
10.9501 25.4772 66.3022
11.2883 28.3181 70.5118
11.2232 28.0157 74.678
11.3339 26.9837 61.8039
10.2157 25.5121 64.1352
8.94246 23.1762 66.3428
10.6115 26.9029 71.4878
10.7819 28.2909 78.9091
11.8099 27.1667 68.4408
10.5199 26.1123 70.2989
11.2845 27.8373 73.2868
10.77 25.8973 70.957
11.6327 28.282 66.212
9.74768 24.8387 68.085
10.2177 26.7653 66.6199
9.17449 23.4943 66.93
9.73121 20.4706 52.3034
9.54719 26.7968 76.5463
11.3408 28.9837 75.4078
10.2795 24.4277 66.9484
10.3336 27.8742 77.5689
10.8868 25.1255 64.5992
9.21229 22.9895 63.2037
10.1182 26.7671 74.0535
10.5246 29.6955 77.6502
9.30384 21.4764 61.2737
10.0638 26.6297 75.7039
10.0816 24.2266 65.5723
10.0554 24.309 60.1619
7.90724 17.4438 47.5066
7.34522 18.3268 51.9619
9.49525 24.3386 67.1179
9.70048 22.3987 54.184
9.14935 22.4901 55.0244
8.53441 23.1365 63.3877
9.50605 28.9472 80.1808
10.0386 24.2639 66.393
9.80634 25.9385 67.4696
9.55034 27.6311 79.8456
9.26492 22.3161 69.1289
11.2376 30.5565 76.4702
10.9627 31.4707 72.0375
8.56558 22.703 66.0824
9.65067 28.6721 82.0691
9.29066 22.9994 62.5764
10.1347 25.299 61.8206
8.2445 25.6599 74.5557
10.1845 25.8767 76.4447
9.35936 25.2506 69.1022
9.97052 28.224 78.8702
9.43413 25.0617 75.0377
10.3606 28.0809 76.2715
9.88269 26.0248 78.0519
10.2259 26.2037 67.5442
9.57115 22.4357 63.7094
7.98332 24.3843 80.6112
11.4868 25.8092 64.6493
9.68718 26.6424 72.1636
9.0743 24.0069 67.6897
8.71135 22.9324 68.4634
9.69503 24.8355 70.506
9.23785 24.1943 65.7317
8.76664 23.1422 64.9044
8.77175 25.6771 75.2833
10.3498 25.276 70.9294
9.45797 27.1497 76.9507
9.89759 21.9984 53.7399
7.89636 23.2779 64.5809
8.07091 21.1451 61.0463
8.24823 22.9747 64.3059
8.19053 21.1566 66.2877
9.7934 26.3829 73.5385
9.05148 24.1693 69.7228
8.65211 20.993 58.2775
9.31322 27.287 70.186
8.54279 22.5628 59.808
8.63612 25.932 76.0874
8.45818 23.6641 72.695
9.85875 25.7676 67.9678
8.82543 23.4314 65.7426
8.70783 26.9762 78.4351
9.33133 24.0485 60.7147
7.5303 21.0767 63.2009
7.87662 24.586 82.517
9.79625 26.7812 84.2265
9.92034 25.0242 77.5582
9.24569 23.3309 72.0306
9.67765 25.1332 66.1246
8.24508 25.4432 76.4571
9.0923 25.5299 71.0708
7.94645 24.4569 74.1461
9.30358 24.9905 71.7896
8.86146 26.3994 78.5215
9.25958 26.3241 73.1801
7.63213 23.0189 70.5995
8.03031 21.8028 61.0824
6.20482 16.9024 51.2928
7.39153 23.2248 74.0004
8.77083 25.4355 76.7665
9.38463 25.6801 76.2305
9.87053 30.6188 91.4244
9.64009 20.9785 52.7494
7.4616 22.4867 62.8396
7.33763 23.4621 81.6963
9.18883 24.0451 70.8328
7.99433 23.1367 70.4665
9.01116 24.3919 68.3447
7.9153 23.2872 69.5298
7.91963 19.4727 72.486
10.2668 29.2112 73.8745
8.9716 27.8274 73.2007
7.98846 24.0797 74.3753
8.51702 26.7169 84.9798
8.86241 24.6319 79.2117
8.15326 21.1765 66.8778
8.74773 23.2723 67.7672
8.35339 26.5487 72.6766
7.27715 20.2372 64.6782
7.71389 19.1982 60.5651
7.34916 23.7715 73.6382
8.21264 22.0343 68.5368
8.04902 24.148 71.3394
7.25991 23.2089 81.7567
9.17412 23.2416 72.6433
8.43895 23.2984 74.8314
8.57135 21.0465 57.6219
6.62904 17.6526 59.0461
7.32711 17.9946 56.4423
7.142 19.5248 62.0359
8.81154 22.6699 55.1672
6.52106 18.3126 58.5012
7.27927 20.6092 65.0648
7.02469 18.7751 58.5026
7.59437 22.8762 66.5573
7.33066 22.0909 68.3863
7.20191 22.2401 70.8126
7.81414 21.1996 70.7197
9.1839 27.2074 71.1306
6.7917 18.3717 56.5671
7.4095 22.5031 68.1373
8.14047 23.5001 66.6674
7.36808 22.9491 69.2294
6.79562 20.3587 65.1744
6.82018 20.612 78.5928
8.83724 27.3354 75.2261
7.00822 19.2978 57.4485
6.11799 21.0818 78.4369
8.59526 21.9518 57.6377
6.06407 20.0388 68.723
7.56256 22.1048 71.1403
6.89635 18.4479 63.9166
8.1673 23.9307 71.0248
7.47452 22.2234 62.9744
6.82119 20.8603 64.9305
7.30193 22.5211 74.5089
7.73818 22.4811 78.1548
8.08628 18.6076 60.0862
7.38615 23.3949 68.163
6.60769 18.2424 61.621
8.26971 26.9451 79.7044
7.31537 22.8275 80.0639
7.46148 20.3569 67.597
7.20848 21.1389 68.3718
7.37495 21.51 68.6436
7.19735 20.7581 65.4759
6.79085 22.5172 70.9297
7.17888 15.7822 49.2575
5.70718 19.3793 66.9298
7.53143 20.8711 57.3678
5.49053 19.7044 83.1905
9.88612 26.7538 78.7487
7.80209 22.2917 72.321
7.58989 20.3951 66.233
7.47099 23.1081 66.2437
6.95402 19.7489 58.9905
6.67725 22.6664 76.7531
7.64285 22.288 65.7118
6.30434 20.6519 72.1578
7.50446 22.7457 67.6697
6.17418 19.5632 66.2853
6.42929 21.0032 81.384
8.51048 24.1153 65.7587
6.5717 21.5373 61.9907
5.60341 17.4797 62.9792
5.67586 17.2461 61.4125
6.28952 19.1841 70.5252
8.26921 24.1523 75.7099
7.61747 22.9901 81.151
8.7317 27.2548 72.8293
6.47217 18.3787 61.7219
6.97487 25.1153 81.6126
7.96747 24.785 87.8613
8.22764 23.2006 71.9874
7.27493 20.9626 59.2198
5.34421 19.0564 72.7757
7.24625 19.6058 57.9512
6.55993 23.6199 74.8437
6.82594 21.9535 65.1784
6.30567 19.9999 67.3536
5.82701 19.2743 71.0303
7.23416 22.4418 68.0443
5.76512 16.702 60.7578
6.41557 23.4008 73.5898
6.99319 21.7152 77.1577
7.20891 22.0491 77.8894
7.16769 23.4371 84.6712
8.07801 22.0729 67.2799
7.37525 25.287 70.0829
5.82098 20.2956 74.9049
6.71856 17.9237 62.191
6.86869 21.9213 69.7722
6.20481 16.0647 47.2911
5.18302 20.0245 76.28
7.33907 22.4889 77.3378
6.45188 20.3646 70.7813
6.61823 17.7924 57.2071
5.51151 18.7597 57.2214
5.37307 20.81 82.1964
6.29905 16.8389 62.0663
6.59302 22.3915 73.7246
6.64092 19.4911 64.0103
6.71048 22.1113 71.4522
6.30122 18.109 68.2265
6.82413 18.5031 59.2827
5.95577 19.1167 69.0031
6.83219 24.405 75.4371
6.70823 22.1157 63.4785
5.264 18.8009 68.3659
6.2487 16.9467 69.0984
7.4092 23.0177 67.843
6.43173 23.6894 78.2085
7.1194 20.8366 74.1841
6.54169 22.4503 72.4239
6.29427 17.4912 64.4167
5.89453 18.0278 60.4509
6.24177 19.4904 66.2201
5.81143 18.9999 67.7312
6.01504 18.2979 65.2699
6.40534 19.6753 64.2772
5.79994 19.0072 66.6128
5.95693 17.2884 46.9185
4.64763 17.0447 63.0741
6.81426 25.2872 79.5349
6.01207 16.6897 65.6726
5.79131 18.3585 61.4434
5.47531 15.3795 55.3033
5.19028 20.5409 74.3535
6.81473 18.3479 56.662
5.57588 19.1341 70.8471
6.91457 19.2569 58.5625
5.0568 18.8988 65.062
5.64775 18.2332 62.2237
5.31302 17.829 60.8265
6.05684 18.2914 59.208
4.94191 17.6346 72.2974
6.33889 18.5816 64.242
5.17396 17.6301 64.2651
5.95305 18.3453 72.0214
6.5174 22.5068 71.9772
6.01866 19.5734 76.3491
7.10518 21.8083 67.5811
5.50062 12.9243 52.2342
5.98776 21.8725 71.032
5.87168 20.0369 62.3316
5.01622 17.5313 68.1315
6.22874 18.9126 68.0345
6.7494 20.2494 75.2797
6.46565 21.1347 61.6852
4.95445 15.3018 59.3381
5.39449 18.4398 68.9482
5.56097 17.5279 67.0983
5.93094 17.6538 69.8692
6.41919 21.096 61.6891
5.05039 18.1259 65.7552
5.38185 18.445 62.891
5.51739 17.0916 62.5674
5.1601 18.547 71.7653
5.95929 16.3015 64.5081
6.04084 21.6818 72.0772
6.15692 20.1865 67.6784
5.41207 18.2901 66.7913
5.98712 21.5961 60.9235
4.51097 15.1022 66.5039
6.38445 20.3176 64.8298
4.84086 17.4723 65.6083
5.86005 19.4849 68.2158
5.58085 21.0175 75.2514
6.41613 20.1981 73.8872
5.7317 18.5665 65.8016
5.60404 18.0523 58.394
4.91727 17.6827 68.1341
5.32142 13.9108 61.2017
5.62534 17.5992 58.3482
5.49312 17.9308 67.1598
6.16765 23.3257 79.4538
6.37772 23.4392 85.1584
6.70069 16.4561 60.3985
5.1459 16.5189 63.028
5.85212 18.888 67.5434
6.09486 22.8869 80.0956
7.04699 20.6651 78.0398
6.36145 19.6163 68.4259
5.63876 19.6189 68.6698
5.56639 18.3706 63.8787
5.4674 17.5448 67.4203
5.54867 17.4243 65.9743
5.68976 20.5102 68.2162
5.34667 16.1485 65.5717
6.10648 24.365 68.9099
5.14454 15.9735 56.3897
4.64067 16.8849 69.8222
5.50267 16.8097 54.5354
4.49911 18.5047 75.7805
5.98612 17.0611 62.7701
5.37743 18.3496 64.0753
5.34886 19.6193 82.26
7.10161 19.3712 66.6103
5.85169 17.1008 68.9578
6.49659 22.838 74.9427
6.07431 19.0941 69.6883
5.55106 17.951 59.9199
5.11997 16.7442 68.1803
5.65925 17.6286 60.0853
5.64143 23.6524 81.265
6.08511 18.0197 72.8737
6.40972 18.7826 65.069
5.75645 19.7573 61.4072
5.03593 18.9412 77.2406
5.80229 18.2244 60.3815
4.95832 16.244 70.2557
5.82077 16.2018 60.4968
4.96879 18.4871 63.8255
4.74884 15.5423 58.7994
4.81718 18.4455 67.2272
5.14541 18.7179 68.9006
5.79647 16.6081 64.8454
6.12721 20.3502 68.9807
5.58442 18.7715 63.727
5.10263 17.6805 69.1453
5.9779 19.9358 75.2114
6.3022 22.1444 75.0351
5.35541 19.4769 72.3386
5.70766 17.8952 66.0056
5.40218 21.5678 73.5168
5.51283 18.0264 76.8223
6.47082 18.788 56.1067
4.45851 18.3035 71.1966
5.69137 21.4885 82.1547
6.34722 20.21 72.9286
6.10088 20.0321 67.3045
4.85432 16.3606 68.3951
5.2049 17.0853 71.8904
6.02244 19.1924 73.7986
5.54707 19.1887 71.0028
5.32196 18.2644 64.9601
5.15108 15.8693 66.5975
5.47804 18.2125 63.7671
4.73478 18.5793 74.5671
5.83906 20.2782 66.1765
4.82037 17.1497 66.9152
4.70742 18.9464 83.3373
6.66453 19.7468 55.8536
4.16464 15.7948 72.0687
5.60679 19.8755 60.537
4.685 16.0005 63.1454
5.1574 20.7983 74.9626
5.14191 18.0845 74.0181
5.32012 16.6249 62.8684
5.02567 18.183 60.5271
4.08157 14.2195 68.4309
5.35043 17.3362 68.9548
5.89545 21.7527 81.7939
6.24848 21.6866 70.3856
5.53872 21.4489 82.2267
6.15121 20.1779 69.8453
5.04041 17.7194 79.7424
6.37784 19.9679 62.9641
4.7708 19.01 65.2507
4.58863 14.1401 63.8615
5.23185 16.0744 53.1019
4.10204 17.284 67.7762
4.9767 16.8949 64.0233
5.31461 19.1703 74.6317
5.33413 16.8249 80.1316
6.22261 21.1535 62.8072
4.80811 14.3101 55.7969
3.98938 13.3411 57.3372
4.83556 16.6339 68.2765
5.54897 17.0202 54.6747
4.26131 18.1999 71.7919
5.50382 15.5143 52.8254
4.33205 17.6415 78.2147
5.98901 15.5875 65.6924
4.86808 16.7311 56.1645
4.45106 15.0047 53.5326
3.74928 16.0201 65.0975
5.0633 17.2406 55.9353
4.22165 16.7126 58.5094
4.58558 17.1128 72.8401
5.15289 17.0761 61.6719
4.87898 15.9007 63.2562
4.68639 17.4591 65.0371
4.56063 15.5473 66.394
5.29878 17.8411 64.4732
4.39562 13.736 55.7966
4.81909 17.2028 69.6706
5.08772 16.3464 49.4027
3.79525 13.5335 79.4561
6.33208 19.671 71.2755
5.64261 19.9168 67.1278
4.92075 14.2242 57.7275
4.39501 17.5702 58.9883
4.75631 17.6519 63.8921
4.84616 16.4441 62.0293
4.53602 17.9617 63.994
4.75705 16.2896 79.4414
6.42862 20.5035 66.0312
4.69105 17.4632 68.8129
4.75294 17.2292 71.2615
4.91027 17.6134 68.2146
5.00987 14.3626 68.332
5.59095 19.6504 60.5211
4.44997 18.2127 77.694
5.68082 17.3748 63.5701
4.49911 18.533 75.2164
5.63823 17.919 63.2746
4.30813 13.961 65.3683
4.88522 18.7657 63.4951
4.51681 14.3501 55.2689
4.20531 15.4616 62.6899
4.65586 14.5656 54.8336
4.10962 17.1154 57.3007
4.30534 17.6167 64.1491
4.37551 14.6668 69.4523
5.66761 18.5417 60.9031
4.66221 17.2217 59.573
4.30528 17.7817 75.3749
5.03767 16.8856 69.5378
4.97796 18.5293 79.2636
5.52367 19.1149 66.7046
4.73624 15.4843 62.4175
4.43517 14.168 50.4278
4.04647 14.1213 72.7839
5.31494 18.3625 62.1281
4.32859 18.9625 78.9431
5.48622 19.7913 65.8783
4.44024 12.9328 62.8291
4.66284 19.2768 74.6159
5.24189 16.6737 59.0855
4.45669 16.2405 71.0328
5.16736 15.6081 51.642
3.7876 18.9874 71.1905
4.96923 17.6344 78.5899
5.77286 19.6066 62.4696
4.77343 14.1143 53.5889
4.286 16.791 68.0752
4.51785 18.1802 63.9503
4.53587 14.1968 64.5236
4.93848 18.5399 62.7438
3.90695 15.0511 55.8959
4.0938 17.4868 73.8738
5.30036 17.0975 70.1244
5.19929 19.455 69.0684
4.49595 12.7579 60.9828
4.55187 17.0589 71.8361
4.94494 19.2657 65.4065
4.46796 17.2808 64.0741
4.48605 14.9559 61.9413
4.96807 17.2602 68.3944
4.54856 16.1292 62.4498
4.3626 15.2661 57.1586
4.40988 15.4446 66.2803
4.73837 16.3983 69.6854
5.206 19.1993 69.8848
4.67181 15.1075 57.5327
4.27621 16.9741 59.5598
4.11093 14.8107 59.9961
4.29515 15.1322 56.0268
4.11641 17.4566 63.6328
4.4478 16.6524 73.3298
5.02576 16.1141 65.0178
4.59199 16.2783 61.9196
4.58183 18.1968 62.4862
4.27936 12.5175 48.679
3.96883 13.5487 62.149
4.4628 14.6939 55.1233
4.0589 15.9999 73.9298
5.35277 24.2733 94.8602
6.42142 18.2923 54.183
3.99801 14.2855 64.9134
4.41069 16.6943 55.2244
4.11974 18.5981 70.6406
4.85358 16.1411 72.3053
4.82393 19.038 66.3132
4.77986 16.7415 64.1185
4.32675 17.3399 81.0481
5.76334 17.0807 60.9211
4.23364 19.0476 72.1325
4.85559 16.7188 64.98
4.93771 15.0359 66.4231
4.78518 17.328 63.628
4.62323 16.3318 63.4628
4.53668 17.4497 81.0962
5.71027 18.9817 65.5092
4.58397 14.3135 67.6428
5.07267 17.5836 59.5825
4.12684 15.0683 68.3646
4.76352 15.5522 68.186
5.28063 16.8872 68.8843
5.11128 18.0514 64.6707
4.55996 16.63 64.7811
4.56864 16.0302 62.0458
4.35121 15.2045 55.1182
3.94118 14.4525 54.8372
3.98768 16.539 65.1187
4.29485 15.6361 72.2077
5.33038 18.2712 61.7363
4.39845 15.3444 59.3641
4.35866 18.7248 72.3988
5.26241 17.9087 65.4267
4.72329 17.6817 70.3975
5.3714 14.664 56.6624
3.93379 15.5034 61.1592
4.41388 15.0101 68.8286
5.36646 18.541 65.4231
4.89828 16.5564 71.552
4.63018 16.3285 69.2718
5.27094 16.8388 51.8433
3.70774 12.8287 49.1731
3.90936 16.7364 58.9888
4.14629 13.9518 60.3088
4.20745 18.4513 69.6553
4.56532 14.698 64.3332
4.28407 18.4798 72.1521
4.78812 15.5884 58.8029
3.93676 15.3221 70.6266
4.88282 16.8384 60.3575
3.85098 15.0662 69.6719
4.77766 16.5605 69.0039
4.91457 20.2312 68.1742
4.42664 17.8052 65.3838
4.51176 15.1996 64.9434
4.92186 14.2361 68.3842
4.96599 16.1551 48.1017
3.40079 13.496 55.4057
4.1599 15.2313 56.3528
3.58144 14.9243 63.1755
4.64725 15.0885 70.1841
4.48999 18.0438 68.3647
4.39766 14.6174 63.924
4.47261 16.2216 59.9045
4.01389 14.6915 62.1265
4.68504 17.0824 61.6724
4.54585 18.1075 64.3616
4.46425 16.0051 69.2535
5.08495 19.1011 72.608
4.78323 14.3438 53.0946
4.14789 15.8543 68.3968
5.19318 17.6954 63.3792
4.45565 17.5663 73.5642
5.0549 18.3667 62.4984
4.55062 17.5144 70.7379
5.1527 16.5656 77.5066
5.60222 18.2753 57.8649
4.22008 17.8223 68.5648
4.46863 14.2752 63.1081
4.6446 15.7517 51.4468
3.80237 16.6486 64.6466
4.65727 13.3459 57.0949
3.96321 14.8636 56.284
3.84048 13.7347 57.3914
4.17492 15.4777 68.7985
5.24839 15.2994 50.7825
3.58877 15.9357 63.6109
4.10187 17.5384 67.8084
4.85248 14.5893 65.4946
4.75133 16.0455 62.2964
4.50183 15.5107 64.7073
4.74846 14.8015 63.9612
4.65057 18.587 62.4336
4.30671 14.1111 67.9086
4.52994 19.8213 60.2332
4.12945 11.5696 71.5342
4.4316 19.4405 63.2489
4.46127 0 0