# pn-170911/RbII-15-RbIIR-1280-1959.psd
# Power spectrum* (dif=0,1,2) (really just |FT|^2)
# NOTE: only the first half! (symmetric)
# weeks: 1280-1959
# 21 clock-days, 98 excluded
# PSD: 1441
153570 2.25229 0.020686
6.7332e+06 148.022 0.0117849
4.11054e+06 63.5482 0.0107863
2.12437e+06 43.0075 0.00828556
905840 23.1707 0.0108492
581414 13.5389 0.0103773
313237 5.81544 0.0106854
236030 5.45581 0.0131799
149066 5.76408 0.0104464
121041 3.78938 0.0101275
88176.6 4.14974 0.012104
75231.1 3.5826 0.010363
66965.3 3.48593 0.0134866
61661.8 4.28831 0.0128387
55703.2 3.58586 0.0139041
41689.7 2.0971 0.0126023
40114.1 2.98744 0.0131244
35872.8 3.1469 0.0173488
27281.1 1.80157 0.0107624
25198.4 1.83431 0.0120544
27992 2.58303 0.0141321
23364.5 2.24554 0.015306
22174.3 2.97262 0.017454
19444.4 2.12658 0.0176554
16990 2.56025 0.0143271
16100.4 2.01893 0.0203762
13936 2.22474 0.0131997
13295 2.00508 0.0161918
12292.5 2.70454 0.0170155
11650.4 1.94127 0.0160489
10057.3 2.46268 0.0268688
10043.7 1.65936 0.0134731
9322.69 1.9945 0.0257406
8890.95 2.52732 0.0170334
9095.53 3.00461 0.0231704
7280.11 2.26728 0.0300846
8012.81 3.16298 0.0301722
6892.18 1.73678 0.0243122
7231.59 2.97657 0.0270861
6483.31 3.53856 0.0274733
5997.42 2.59909 0.0352518
6413.13 2.97865 0.0316532
5345.59 3.80072 0.0407558
5713.29 3.2309 0.0407365
5444.69 2.47171 0.0377758
5251.55 2.4469 0.027924
4431.96 2.37644 0.0332685
4206.42 3.70118 0.0470381
4228.87 1.49731 0.0290301
4629.46 3.06863 0.0392552
3621.14 3.20641 0.0536699
4366.54 4.0313 0.0525242
3703.47 3.82649 0.0704207
3645.66 3.22034 0.0466158
3191.8 4.38165 0.0838151
3113.76 3.46618 0.0707255
3160.71 3.87141 0.0753588
3316.57 4.74493 0.0813494
2844.44 3.06503 0.054101
3341.92 3.12628 0.0513378
2859.08 4.32369 0.100634
2627.43 3.8708 0.0674796
3155.86 4.03688 0.0811463
2426.02 3.62732 0.0912539
2603.61 3.1109 0.0712849
2639.76 4.0009 0.112466
2018.38 3.27585 0.0866788
2355.67 3.59319 0.0883021
2129.56 2.62099 0.061679
2040.69 4.26238 0.0867276
2051.71 4.54928 0.129397
1850.78 3.59196 0.107282
2010.31 4.10134 0.119688
2195.6 4.376 0.120883
2039.95 4.95819 0.138638
1588.63 3.5031 0.0989864
1618.26 4.38114 0.125114
2026.43 5.06592 0.142077
1878.64 3.53916 0.125099
1785.42 4.97056 0.140797
1871.02 5.43438 0.172229
1655.9 7.49498 0.258622
1510.56 5.31584 0.166022
1594.17 4.69499 0.189845
1546.96 3.75982 0.131766
1467.77 5.17829 0.207331
1390.7 3.04679 0.119685
1305.94 3.77938 0.141739
1586.99 4.19752 0.164502
1479.53 5.00482 0.227761
1156.22 5.56225 0.228486
1358.84 3.09152 0.133672
1112.04 7.02975 0.30261
1398.65 7.54038 0.288618
1125.7 4.43676 0.190497
974.837 6.65326 0.353654
1280.11 7.72688 0.341677
1101.04 5.64572 0.226184
882.609 6.81838 0.357799
1210.39 5.61396 0.265742
953.754 7.67386 0.339277
1001.51 4.3561 0.23522
1122.85 8.78151 0.412767
1153.87 7.81226 0.400302
1019.73 5.68702 0.298138
937.518 7.83602 0.406624
1022.96 5.77954 0.302089
897.961 6.512 0.352964
809.254 6.85337 0.420152
732.773 7.56714 0.406139
1059.72 9.34314 0.554841
944.286 7.00536 0.385451
914.814 6.7021 0.431782
817.062 6.71864 0.441863
837.722 7.98953 0.472857
743.608 6.66375 0.439632
746.069 8.76187 0.619383
931.976 6.73566 0.444078
1048.7 12.013 0.800277
886.58 9.029 0.598111
768.228 10.5976 0.715501
992.793 12.1594 0.813933
846.6 10.1297 0.736961
727.74 7.41274 0.558526
805.456 7.50635 0.508661
739.819 7.00012 0.517928
726.866 6.23319 0.470885
945.559 15.0124 1.14396
748.185 12.6464 1.00052
746.378 7.62255 0.593483
698.145 8.56801 0.776049
732.537 12.0512 1.00163
594.52 8.6641 0.725067
640.334 7.30715 0.662435
662.238 10.2942 0.874989
547.915 10.0776 0.879308
691.207 7.46596 0.702052
545.636 6.54085 0.571249
655.215 9.87493 0.983816
623.656 12.0085 1.07448
492.271 8.82898 0.867723
518.224 9.94687 0.94872
625.968 15.4749 1.41592
636.313 16.2832 1.45493
503.329 13.3628 1.36097
586.296 13.2418 1.39643
589.917 8.96901 0.962341
564.972 10.2379 1.01875
523.59 10.7264 1.14487
657.285 9.23735 0.969708
545.762 6.60977 0.723481
379.137 8.61966 0.971427
561.545 8.47815 0.927226
452.262 10.2966 1.2007
572.86 7.37248 0.804224
601.849 13.4661 1.56414
393.772 10.3242 1.13045
533.699 7.63105 0.911341
503.444 11.0979 1.34535
500.833 12.9475 1.48229
339.302 9.54636 1.19535
542.514 15.8158 1.92394
437.96 12.5769 1.53143
631.577 11.2689 1.36153
410.009 11.5196 1.47401
499.17 15.144 1.92529
434.777 9.52086 1.25795
339.142 10.688 1.37144
444.775 12.8475 1.75855
340.519 12.223 1.57289
469.265 11.8701 1.60613
358.789 10.6908 1.51954
378.003 14.2395 1.9826
452.478 11.2188 1.64699
400.282 13.8122 2.01527
393.281 8.87024 1.2541
384.185 9.94332 1.51121
461.136 14.1382 2.17697
428.363 15.9301 2.47639
390.508 10.516 1.62581
401.001 14.6177 2.30451
375.801 8.04573 1.22904
377.322 12.3605 1.94603
401.361 8.96317 1.45085
461.122 14.3775 2.1427
439.873 12.0995 2.02817
417.347 13.1925 2.22353
422.201 18.1411 2.87574
324.226 13.8403 2.40537
341.695 8.49335 1.4535
358.337 10.5826 1.76134
343.193 14.8127 2.51762
385.689 13.3962 2.33767
434.205 19.6404 3.55385
321.755 12.366 2.11899
432.501 16.3795 2.86865
437.216 17.1471 3.05112
395.071 11.909 2.33177
290.099 13.1639 2.54078
297.17 14.781 2.68745
339.825 10.5527 2.05855
278.206 8.1008 1.67821
365.259 15.7458 2.84861
368.295 11.3891 2.25879
285.142 10.4184 2.23231
324.153 13.6707 2.70559
249 10.0432 1.96956
290.097 15.3075 3.36336
358.587 11.7678 2.11569
293.816 11.804 2.63786
290.518 12.7556 2.50726
250.305 13.6864 2.94814
300.299 11.61 2.28425
277.546 10.0314 2.23058
300.206 11.5116 2.47568
270.11 21.2969 4.55743
307.847 15.702 3.53174
234.299 16.8724 3.84083
242.69 17.7408 4.3072
405.202 17.5092 3.82591
277.603 14.1582 3.46483
335.433 17.1708 3.64136
216.77 15.8247 3.87181
242.753 16.8086 3.94191
348.599 16.653 3.96043
256.556 13.5915 3.244
261.038 19.7211 4.55595
237.306 15.0905 3.58645
208.259 12.0699 2.85838
237.775 15.1864 3.84966
288.873 15.173 3.59265
212.919 11.6363 3.0217
226.945 20.0221 4.95589
264.618 18.2096 4.72895
275.291 15.8398 3.71616
236.736 18.2342 4.92258
202.936 15.826 4.25766
239.017 12.5398 3.60729
213.762 13.1087 3.6266
195.048 15.4714 3.97838
245.242 19.4142 5.30549
238.47 12.1685 3.6605
324.143 20.0562 5.27406
266.75 21.0854 5.42743
252.879 24.8264 6.81289
201.867 14.5718 4.13048
215.837 14.1402 4.13519
260.064 15.6251 4.56833
171.755 14.7044 4.48001
207.964 21.1274 6.03965
307.133 28.7907 7.51744
270.026 20.1106 6.31044
196.426 13.2824 3.90063
254.014 15.3555 4.44272
200.544 13.8579 3.68805
241.927 17.732 5.26234
218.423 11.7082 3.83142
187.793 14.7703 4.49031
223.888 24.9382 7.6079
213.111 20.5866 6.28018
159.78 12.4371 4.02
187.988 21.8243 6.70849
239.855 25.9545 8.15052
228.526 28.1835 8.70364
216.887 17.1636 5.56517
169.31 22.5871 7.52861
188.093 15.8495 6.00985
200.609 23.6031 7.16941
186.429 13.3305 4.47633
140.677 10.2202 3.79339
181.209 12.0311 4.1848
185.131 11.9361 3.86462
233.386 22.9598 7.80175
147.355 14.5789 4.89998
241.561 20.9281 7.31812
162.212 10.3122 3.68916
162.068 15.2268 5.04818
192.376 23.4547 8.65822
176.845 18.6855 6.58996
147.058 18.4472 7.07388
187.252 23.7175 8.86027
158.14 18.2559 6.18081
177.762 17.4312 6.59752
165.22 15.2304 5.90859
145.527 14.9589 6.27798
198.882 13.5799 4.75178
146.278 25.2748 9.37319
175.028 20.4001 8.33137
171.511 21.2908 7.47495
179.145 17.8123 7.15543
186.703 20.2569 7.69283
190.232 19.4726 7.72058
124.217 20.2411 7.93237
176.827 16.1746 5.76452
198.99 26.6941 10.909
192.655 17.4915 6.67833
175.95 17.7803 7.03181
153.524 26.4679 11.2698
192.364 18.6764 8.974
137.701 21.1752 8.2114
141.466 23.5296 9.22527
168.991 17.4107 7.25792
178.844 25.9228 10.8534
162.333 22.6292 8.9143
121.236 13.8309 5.5573
143.725 14.7024 5.94438
132.115 19.0522 8.69621
123.712 16.3952 7.93067
107.339 13.0274 5.61214
170.454 16.0832 7.56415
166.69 17.5864 7.13569
172.965 20.3563 8.79524
141.029 21.5604 9.71711
148.717 20.3316 9.47286
163.942 25.6054 11.8046
136.327 18.4104 8.80946
158.306 18.4827 8.55041
153.675 17.9397 7.86671
169.222 24.4655 12.0723
152.378 18.7869 7.68649
192.033 26.0315 12.7314
144.776 24.9526 11.5196
134.753 20.8641 10.0096
193.176 24.6701 11.7567
109.808 16.3808 8.40326
146.733 19.7753 8.29669
143.332 18.7508 9.42524
126.219 18.2374 10.138
159.781 17.405 7.83776
119.675 27.5022 13.7043
143.671 18.6124 9.30024
133.837 18.0175 9.25584
124.91 20.4617 9.20354
147.117 24.4411 11.92
105.999 22.8309 11.3927
145.47 16.4606 7.47153
147.466 16.2645 8.60188
100.691 20.4241 10.0043
131.72 17.1625 9.70078
172.859 19.7544 9.94343
111.507 17.3908 8.77929
122.635 25.8543 13.928
127 28.438 14.1013
112.426 11.6609 6.78207
123.191 15.3015 9.13497
117.241 19.7142 10.6803
130.077 16.2664 9.67793
136.142 11.743 5.69607
142.228 25.2934 13.5623
153.359 22.676 12.7183
129.566 22.2418 12.6512
113.707 17.2094 11.0526
141.379 15.62 9.20345
124.451 25.8231 13.886
116.223 20.8102 12.1901
104.303 16.2525 9.24288
118.013 15.4742 8.59373
122.045 17.3721 10.3066
91.7939 17.6245 10.2631
127.439 23.7348 13.7505
111.496 26.4985 14.5466
83.9298 11.13 6.99867
128.58 20.1704 12.6604
141.508 23.0615 13.8027
87.0189 18.1654 12.3334
145.606 26.1826 14.3805
87.2037 15.1952 8.54098
114.283 14.9766 9.0339
112.052 24.6143 14.261
104.169 17.3237 11.1424
96.7798 20.945 14.2051
107.62 19.4293 12.3687
118.223 25.1161 13.6586
107.249 15.7495 10.5667
119.994 20.0106 13.5448
100.955 27.9599 15.828
135.877 28.505 17.7871
118.919 25.9959 16.4735
109.49 14.9709 9.54043
88.52 25.4267 14.7851
123.228 16.7192 11.8368
85.9323 15.0977 11.8445
83.4377 18.3736 10.5808
99.9924 20.2798 13.8948
126.768 30.0223 20.1845
91.9838 18.7005 11.2449
109.707 23.3444 16.3787
88.2945 14.9122 9.48557
117.187 23.0239 16.854
99.7708 17.633 13.2742
108.685 23.1692 15.3533
113.51 26.985 17.7146
135.87 22.8809 15.4676
87.015 15.9482 11.0911
110.233 17.5333 13.7034
76.66 21.7918 13.998
85.9328 15.0356 11.5714
96.9241 16.7199 12.6808
106.317 22.8145 15.9211
101.563 19.1463 14.4387
68.7688 11.3173 8.4641
88.2888 17.1877 11.1293
121.349 21.8307 17.1332
93.1248 27.4085 20.7626
95.7916 14.1534 11.1465
103.895 21.8428 16.5416
81.5363 19.9613 14.4194
131.394 19.1296 11.2668
93.5536 19.7195 14.6495
85.7714 18.7562 13.5675
120.308 25.5318 21.0562
85.539 14.6713 8.82264
84.4407 15.8609 11.9877
100.162 27.119 19.9823
89.38 12.6882 10.6319
98.8808 20.6434 15.3758
69.3301 18.9933 15.2265
129.175 23.6964 15.3434
118.815 22.7614 21.5637
86.1437 19.5518 12.8512
81.934 25.1421 20.9826
126.92 26.5068 20.1776
90.8677 17.5459 15.5694
97.5124 29.1055 21.7594
94.5227 29.4647 23.8077
59.1655 20.9074 16.7066
90.203 24.0539 19.1455
66.9407 15.6996 12.8646
93.8892 16.842 16.0129
93.4592 20.4766 14.9773
69.0736 16.7281 15.5361
79.2651 13.232 10.5628
105.119 20.1238 15.9797
85.5081 17.2045 15.9117
97.2723 17.5175 14.255
77.8775 16.8784 13.7856
78.0375 23.607 18.2808
82.7694 19.9352 17.8648
109.205 25.7036 20.6604
60.0805 20.7424 20.9498
90.1179 20.4865 13.2825
89.18 17.3618 14.0047
99.7411 24.3128 21.793
77.9122 15.5627 12.5367
117.442 25.5247 22.7461
74.1065 25.2359 21.267
73.4457 19.6655 17.5297
77.5997 28.9045 23.6
86.218 15.7419 14.7652
70.3539 20.4609 20.3186
97.4182 22.4527 19.4936
67.7874 18.5203 18.4406
73.9819 23.4906 21.5668
76.7833 13.9954 11.5457
40.4006 22.0834 17.8857
84.0013 15.4664 13.2977
50.1515 21.8512 21.3697
102.266 22.8666 18.1234
73.7878 20.3109 20.5645
73.5755 14.7163 12.0559
63.0118 21.297 19.8879
91.3094 20.0277 20.0017
66.3235 24.7525 22.4336
116.125 33.9821 29.9962
77.3411 18.3661 16.152
73.8407 17.2891 14.8644
55.8801 17.8147 18.2464
69.1937 23.3568 28.0159
78.8082 29.5254 26.1112
103.485 30.1432 30.7943
78.0474 22.3239 21.9541
76.7281 15.5854 13.5274
86.0019 25.0312 24.7534
65.3811 17.9565 15.7265
77.6617 21.6004 22.9652
54.473 19.0967 19.7832
89.5666 19.0946 17.0965
71.3127 21.4818 19.3536
71.5405 19.1107 19.7195
91.6858 15.302 16.932
73.5159 30.4762 31.2532
90.3719 18.566 15.4314
57.7393 13.4916 14.1393
69.7854 22.8563 22.3525
77.0719 23.8298 25.7042
68.1414 14.7595 18.6935
63.7365 26.3466 27.1364
79.2186 20.7746 20.1956
63.9627 25.9019 24.9473
64.4227 21.1953 25.0698
61.9226 23.0441 27.2818
84.2379 23.5448 19.6381
86.9683 31.1574 31.4686
68.1477 16.6937 15.784
61.6212 12.5251 13.4792
86.345 19.4672 18.205
44.6132 13.1697 15.0099
62.3032 13.2615 15.6994
84.0298 20.9333 19.4675
67.9993 25.6964 27.6685
58.0992 13.3684 15.6514
63.4823 27.2765 32.0016
50.6674 20.877 20.6404
81.2424 20.5058 25.6189
79.134 22.9459 24.9344
76.5413 19.5579 20.9896
62.2265 24.1761 24.4328
53.5264 12.5057 14.0988
59.1556 28.0023 30.1289
78.6579 17.4493 19.5203
53.7517 17.1933 17.2684
70.7855 21.9114 23.7215
54.2439 21.1241 23.8131
82.201 18.0264 21.1138
65.3464 25.0387 27.6993
48.2385 19.6631 25.0545
64.9911 19.1622 18.1497
61.2571 16.514 18.8425
57.8476 20.9987 25.0387
76.998 19.1724 24.2941
45.4064 13.6421 16.3926
64.3218 32.4891 37.1397
56.3818 14.7181 18.4943
46.4657 20.1126 22.7163
71.9059 20.4776 23.8739
59.1268 13.2745 14.1288
61.8191 19.0712 27.9033
79.2138 22.9568 25.7136
45.1669 18.2239 20.3176
56.441 18.0368 18.9739
77.7655 24.0644 28.3559
45.8143 18.0438 23.7415
51.0402 18.3943 17.169
43.4721 18.408 26.1015
61.4176 18.1894 20.5777
67.9928 20.1511 22.5889
41.2423 14.2864 22.2549
63.0817 23.0176 24.25
47.0547 13.6924 20.6632
62.1003 21.4487 29.5876
51.1833 22.0888 23.5394
57.9956 22.8697 28.2888
54.8301 18.5005 20.6492
51.1857 18.5063 25.6559
43.3419 16.5236 19.0782
46.8761 14.8458 19.3115
59.034 15.867 17.5014
41.4207 13.9862 19.6607
67.2312 18.8969 25.4964
49.4922 15.3197 19.1554
58.6143 18.439 27.0182
61.4895 19.1246 25.9166
46.7416 20.7413 18.2367
42.8131 17.742 23.8765
63.9769 19.3333 25.2431
37.4478 15.3968 21.229
64.4233 20.5963 28.0093
61.8526 24.0043 28.9646
46.8879 15.0393 20.9993
55.3021 26.5386 34.77
44.9154 17.0538 22.5846
63.448 24.5876 37.9983
62.2299 22.3908 25.7062
38.0169 21.3783 23.4221
55.3578 19.08 26.595
51.9993 24.7482 28.7845
58.6192 17.6644 25.574
61.4753 32.6852 43.4793
55.3076 19.1848 24.1577
57.7265 20.5068 31.6071
46.4271 14.1388 17.3406
31.0766 14.3135 20.8436
65.4681 20.5407 27.0479
45.5462 27.9782 41.2445
45.0056 14.1847 17.3136
50.669 23.9423 34.6371
42.9814 18.9336 28.0817
71.5785 23.1811 27.7147
39.0347 13.8352 21.6181
56.1692 14.1424 18.8775
51.1818 20.9067 30.8225
39.8653 12.414 15.3095
46.6738 19.749 24.9985
46.65 13.1332 16.8508
38.2544 15.8277 25.9421
47.7751 9.68136 11.5139
58.1625 16.0517 24.417
35.865 13.6814 21.418
51.9635 19.303 26.0088
45.32 18.0626 27.3898
51.0054 20.3812 26.1466
45.2991 18.0745 24.0098
46.3641 12.3687 17.4543
44.7992 12.4094 21.5653
49.1834 18.8922 26.3063
31.2731 16.3171 25.3243
58.6381 19.6192 29.3159
37.1815 21.4181 37.7018
57.5288 17.2767 23.0043
42.7849 16.1924 23.3466
35.2863 17.6851 26.5675
48.9257 17.808 27.2124
38.1026 19.7757 30.1185
31.9929 18.5112 31.7886
60.8382 19.0458 20.7637
36.9968 14.1161 22.8296
47.186 23.7706 33.9812
56.336 19.2837 27.402
32.5784 14.8818 24.8947
43.2339 11.0591 17.4245
42.3427 19.054 31.7792
54.3163 20.6581 32.9413
44.2958 18.3236 31.7531
48.2351 18.6471 27.1343
43.3215 11.5358 14.8799
48.3736 14.5062 22.0845
39.9118 16.1796 27.8692
43.8989 16.2927 25.8547
31.0348 20.0552 34.4307
39.2508 22.8893 33.066
60.9671 16.0249 25.0671
47.6729 16.3023 22.1323
48.7037 16.617 29.4382
44.8342 13.0256 18.8333
42.3455 16.6589 28.25
44.9334 18.3355 22.7428
38.6969 17.9014 31.1786
42.1006 17.486 27.4547
56.8142 20.9705 33.1017
32.255 28.4924 37.8004
42.1114 17.2098 30.069
38.3286 12.2961 21.9014
33.4768 15.8848 24.5777
40.7153 15.0485 23.004
41.2562 14.3336 29.1938
34.8263 13.5138 22.339
52.345 19.3029 27.4909
26.948 25.0515 39.3307
46.0498 13.4634 23.1296
45.8216 13.8431 24.9272
28.4948 14.2408 22.6621
48.9328 17.8413 32.8122
37.9543 12.6034 18.6003
32.8425 18.0266 32.744
37.6818 16.6411 24.5076
32.225 17.0948 31.3218
39.0399 19.7871 34.6677
56.0306 20.4265 32.9279
35.5289 13.9076 26.7932
40.2209 20.6932 32.3394
41.1044 15.7012 25.6247
37.1306 10.5138 23.1848
61.1656 25.9924 39.5191
35.0076 17.1505 23.7852
49.0878 21.2559 44.213
45.7676 19.2942 51.0928
68.0804 42.7517 53.4624
45.319 17.6167 34.1113
49.9592 15.5821 27.6368
38.2766 18.493 37.7593
66.2745 23.4906 32.8837
34.8251 11.2433 17.6777
43.7742 14.3375 28.6782
39.1449 12.7125 19.3026
35.9543 16.8828 30.3628
51.4923 16.9861 32.479
40.5177 40.6754 66.6464
29.8418 14.3155 28.7273
47.5531 14.8336 20.9905
33.519 15.058 32.2922
47.6784 17.0599 28.1801
60.717 18.6803 31.41
29.279 17.9555 33.6586
60.009 15.6649 24.8101
40.9461 17.9861 27.9256
49.4851 48.1551 87.5493
73.9686 55.7355 115.036
52.3427 30.6959 38.829
58.3489 48.9677 92.722
58.2833 56.5259 98.3005
56.2451 55.5208 101.661
72.9087 55.9149 112.988
54.9732 55.9823 96.72
43.292 42.3824 81.8456
62.0358 30.7825 42.7823
34.5188 39.7462 82.8652
57.2935 36.8422 83.4378
45.0666 49.8048 117.37
45.2528 37.9744 40.9295
40.3036 20.0383 36.4142
36.6466 33.4821 78.0348
44.6613 35.937 86.1576
59.3252 46.2474 62.4706
26.4845 18.0228 34.2879
56.4614 21.9263 35.0827
37.7769 13.7384 27.7776
38.3109 20.7905 41.9117
35.6571 11.41 24.3327
33.2416 25.267 65.5666
42.2887 33.7443 64.323
46.6028 32.1167 72.4115
42.9339 45.2352 82.2274
60.352 54.5302 74.258
46.9707 21.7683 41.964
43.3308 32.7811 83.1857
62.155 55.4075 120.023
63.1922 72.1488 95.1531
39.3709 17.0503 32.5835
31.0083 14.6443 30.5412
33.3138 17.5045 35.9575
33.6144 18.536 35.1061
35.8274 13.2668 32.7154
27.5248 14.1113 23.8415
41.1887 18.7469 38.7012
32.6731 18.4104 36.7664
35.3353 12.9713 20.2047
36.1911 13.4959 23.3497
26.6619 13.5592 28.2827
31.9417 9.89652 27.0716
31.1023 23.9921 44.3509
27.0676 16.2909 32.6031
32.54 19.6561 41.2941
27.9295 18.1923 32.4474
40.1878 15.6527 30.3557
33.6336 18.5963 33.2523
29.4304 16.6642 35.312
38.5258 22.2477 48.8902
37.2501 18.0509 42.7095
23.2174 16.2563 30.8214
39.1588 11.6081 26.0332
26.1363 12.8984 27.8829
38.2066 16.2638 24.4062
34.9213 15.5042 33.0365
26.7961 10.9618 31.5058
40.3148 15.2973 23.6
32.922 19.9102 41.0401
27.871 25.0464 54.7755
41.7817 17.6823 42.9006
31.4416 13.2736 27.7386
35.8776 21.3104 37.0534
36.4524 16.09 39.843
30.3037 19.2979 35.2897
39.9223 15.1059 29.3367
34.6532 13.3386 28.636
24.0567 14.0137 26.133
37.9323 9.70772 26.0012
25.924 16.9766 36.2548
31.2208 12.5073 20.5672
28.546 11.6958 27.0873
31.2429 14.62 33.0864
37.5 15.2846 30.7899
32.5802 10.2263 29.5588
29.5649 11.3209 24.1721
35.1857 10.5976 19.1667
26.4921 19.4247 38.8067
33.0844 10.0139 18.6488
27.2616 14.4559 34.0848
31.0195 23.7285 59.7044
37.3753 22.137 41.2229
33.333 18.7141 35.3134
24.291 16.5109 45.1567
31.7985 18.6503 37.0859
23.9996 13.659 32.1536
30.2567 13.8841 32.5819
34.1871 18.0235 35.6429
26.6281 17.062 36.3492
38.9798 12.7093 24.1583
29.3764 13.9432 35.0531
23.3019 15.2979 28.3466
41.9567 23.2085 52.6446
27.497 17.3099 29.7788
32.6997 16.4678 40.4128
28.2985 15.4422 38.2223
29.2814 20.1788 44.1302
33.485 12.3004 28.0958
23.2591 11.2652 33.5842
30.754 14.534 26.8744
37.4598 19.4992 40.2366
19.854 16.0203 39.9497
40.0047 16.0486 32.3749
28.173 12.5864 26.8719
21.2785 14.725 39.7498
29.9538 10.9048 30.8975
28.7221 8.39099 17.7154
27.163 13.975 27.0705
30.4179 17.5612 41.3622
24.2333 14.6611 32.5273
29.5221 11.3547 25.0483
26.5015 14.8352 32.3476
25.1265 11.0986 26.1869
31.7455 14.6666 36.2981
30.8643 12.0365 24.958
23.1969 10.2906 30.7904
29.6938 11.125 26.5601
22.4314 11.1777 25.7058
26.2909 11.8659 27.1249
30.7418 13.824 30.6364
14.9986 14.8391 41.5228
22.5566 11.9657 29.932
27.208 13.6067 31.5245
30.8592 18.2265 34.3819
30.1629 14.395 37.8923
26.14 16.963 38.4975
34.4332 16.6159 38.2529
28.8856 13.9081 38.7036
28.6901 18.9314 38.3385
30.9923 19.0879 44.8755
28.061 17.0652 40.7289
30.0863 16.805 44.0718
34.5702 13.0675 25.9994
23.8353 15.9513 38.1274
26.2993 10.4225 23.6635
27.3872 16.4324 46.5736
33.3022 12.8897 27.9688
25.3001 11.1922 21.5864
23.1334 11.6954 19.959
22.09 9.84254 29.5084
31.0428 9.36965 27.593
24.8689 11.2945 24.3111
31.3998 14.4919 36.7727
27.5265 16.4662 37.4719
24.3677 13.8466 36.6885
34.0208 15.2177 34.5924
19.7943 18.3263 32.7382
23.613 14.2146 39.3879
29.1318 17.636 42.9083
17.3647 8.40459 24.7735
23.3183 11.8618 40.4084
29.2333 12.3779 33.2671
29.213 17.678 32.6013
30.241 11.9878 26.5618
18.368 12.1294 33.3294
28.3909 11.1231 31.3241
31.318 16.7797 38.1466
21.3375 13.6096 29.389
29.04 11.9751 38.8812
23.2981 15.6896 33.534
26.5024 17.8753 40.8875
28.9743 12.0757 30.9867
22.3931 11.5167 28.2325
33.6635 14.6915 29.7541
29.4237 8.64001 27.8413
26.5382 17.7824 51.8625
28.0632 11.3169 22.238
22.2329 7.89973 28.2285
26.5032 13.5369 27.2063
31.0279 18.8969 57.8397
26.4893 16.3762 36.544
28.3936 16.7774 40.9449
30.0082 12.9434 35.994
28.0349 15.6927 47.8576
25.5596 20.1285 50.7322
20.0518 14.7336 38.3284
20.5056 14.9517 34.749
31.641 10.4097 29.493
21.7511 15.1621 39.4278
21.9304 14.464 33.8863
30.3404 13.6477 21.2378
16.2526 6.97733 23.5427
32.7688 12.3229 30.4565
22.8779 13.0355 37.6127
24.8849 12.4023 29.7938
28.7513 10.7866 28.4648
18.9316 7.40906 22.896
23.6065 11.7159 25.4583
29.4125 16.8325 41.7976
17.8534 9.49872 35.7964
25.8687 14.4771 39.1216
22.4439 14.0638 32.3112
25.2158 14.2488 28.9183
34.5101 16.981 38.4207
19.4505 10.1178 46.9864
30.4234 14.704 38.5544
21.3348 14.7505 38.1482
22.1615 12.209 23.7153
27.832 8.60767 26.181
22.4092 19.434 45.9617
24.5969 11.0745 35.8428
29.8793 11.3292 31.3101
16.6829 9.21703 25.9865
30.0772 13.5383 40.2122
29.6661 16.8196 45.9296
25.9364 15.6621 43.7588
29.0967 8.22358 18.361
25.4027 12.237 34.4687
24.6976 11.3419 31.5855
27.5032 13.7855 35.7422
15.4826 15.9147 36.6472
26.456 11.6053 45.0801
22.8986 19.9421 45.4636
20.7625 11.9813 28.8776
30.8483 7.82063 26.4356
22.4526 10.5977 34.8709
21.4614 20.6782 44.8276
32.0076 13.4655 36.7782
19.6254 10.5891 27.7834
26.6381 17.0605 43.0154
22.4216 12.7476 32.881
22.4798 9.83172 34.266
27.6903 9.15399 25.5891
17.674 7.77403 24.2814
18.5488 8.66139 22.4975
25.6955 12.1075 32.1354
13.8057 7.6608 25.6704
21.3309 16.1383 35.9249
25.7199 11.8204 39.3278
20.9117 14.3178 38.8547
31.0002 12.9336 33.3589
14.2654 7.43209 21.8527
22.2582 13.0572 37.1307
28.4777 10.4445 29.6755
20.3085 10.5712 30.2252
30.9307 17.3722 34.9764
19.7389 11.5802 31.9011
18.0082 10.7547 30.6956
23.7375 8.28951 31.1754
20.5693 12.9616 35.6363
24.6944 10.2528 36.8291
36.5774 15.2988 31.4737
16.5294 13.1934 46.659
29.0179 8.89738 30.9582
26.8303 15.8939 32.5421
19.4467 10.1738 29.2028
29.84 9.3813 26.1338
20.806 16.3318 46.1728
29.416 14.2623 46.1256
27.2589 12.4767 31.4174
22.64 11.4651 26.5741
28.796 10.8615 44.746
22.9225 14.9402 40.0126
20.6634 15.601 40.003
26.8658 11.171 39.7899
20.3294 14.2099 36.1112
19.4319 10.7086 40.8179
25.2322 9.85569 31.1086
15.4907 12.7935 27.5645
28.0482 14.1868 44.1477
19.381 12.0353 36.2284
16.7612 11.7664 38.4378
31.896 17.7129 40.7824
14.3483 12.0826 31.6929
24.4496 8.85794 30.104
25.7901 12.3412 38.0714
20.6305 12.641 41.2001
29.6684 15.0351 45.9333
23.529 17.6591 51.6168
22.198 14.0946 31.3675
25.7083 8.45988 33.9563
15.084 11.2619 32.1009
26.8349 10.6471 34.5917
22.1612 10.8781 29.3785
17.7626 15.2544 38.3108
27.0178 12.5827 43.3023
19.3298 13.6508 40.6355
18.1983 7.8438 29.1317
27.2669 11.6319 29.0524
17.2812 13.7405 42.4823
20.5441 13.6205 36.9948
18.9731 9.97 33.258
17.1182 10.72 41.328
25.6358 16.6973 35.3953
22.3008 14.7512 44.0045
22.654 12.7656 35.8769
25.074 13.59 41.5419
17.3981 12.6777 29.5069
26.8153 8.694 36.2087
23.0703 10.2218 28.4533
16.2387 11.2281 36.2756
25.5754 17.153 50.6474
23.7046 18.9961 54.3187
21.5972 10.8777 44.6811
21.3459 15.8658 39.563
18.6104 14.5778 43.0695
22.161 8.66717 43.6182
27.9917 12.4225 34.7301
15.3431 16.2821 47.4623
26.6687 11.9179 44.6243
21.6392 13.4521 34.4101
23.2017 9.21976 38.503
27.0858 14.0446 35.182
15.618 16.1837 53.0571
22.1909 12.833 42.6513
26.4072 10.7239 32.2185
20.3267 9.28394 23.8356
25.8248 8.85814 30.7891
17.9493 8.53998 43.0821
24.1717 12.3446 27.0985
31.2435 12.2741 36.4071
17.03 15.5764 34.9056
19.6215 12.5991 37.3057
17.1658 12.7359 44.9099
16.0917 9.19853 40.5827
26.7063 13.0001 25.2855
17.1263 11.9717 38.6647
22.5249 14.4984 44.3434
27.7179 8.11442 32.9719
19.1802 13.0707 36.0827
25.9212 9.95263 24.8767
19.1557 10.2063 34.7539
13.4571 7.70893 41.7867
24.0653 11.7111 33.6448
17.915 10.7499 31.433
24.6606 14.8237 41.4395
25.2426 11.6473 39.2689
17.2475 15.0703 41.9069
19.8825 13.1748 42.4764
21.9054 9.43675 37.8222
17.9614 14.3929 39.2239
25.2405 9.01312 31.372
19.3935 11.6039 34.7395
15.9065 10.4079 29.5915
24.8801 9.1533 31.9177
13.7702 10.1617 37.9277
24.7807 15.854 41.201
21.6502 11.5087 40.2802
12.0616 15.4792 53.5904
26.7821 13.1473 48.9717
16.886 11.9848 29.7613
17.9779 13.1319 47.4244
20.6016 10.26 29.8069
13.7519 11.0762 37.5822
30.4981 14.0083 43.8785
24.5305 10.8276 26.0947
16.3904 9.82938 30.1459
21.2792 8.47547 22.4463
15.3904 8.43897 26.94
19.0637 9.29491 30.7029
23.8496 10.1533 33.5567
15.1942 15.483 47.9462
27.6381 9.46926 41.5736
18.4855 12.9523 34.4012
18.0059 11.4385 42.3973
24.8961 10.4385 43.0363
20.7041 10.1845 28.9856
19.3878 11.8005 26.076
23.65 9.7035 34.2138
18.0342 9.82644 44.4303
23.5894 12.5503 34.546
20.4543 10.7322 42.3057
14.4174 9.47235 31.5559
25.78 10.4083 35.0528
15.9505 7.49577 29.2108
20.3762 11.2478 24.9918
19.7101 8.25984 25.7922
14.8932 13.8023 46.6251
24.8887 7.61839 31.7107
17.5552 11.6652 31.3268
16.4869 16.5089 52.4389
23.988 11.3213 48.3581
20.6906 12.2267 35.1443
19.4767 12.0051 37.1552
20.4644 7.98049 37.5082
16.3567 10.3736 32.0606
26.2626 8.50406 42.871
24.8667 15.5511 40.0348
15.9756 12.6742 37.1031
25.4458 7.40227 25.2216
13.6522 12.23 38.8403
20.9002 7.40306 24.4883
22.0839 9.06884 27.7329
16.7154 11.2116 41.5973
28.6562 10.4099 36.9571
17.3482 11.2111 35.575
19.5024 11.5643 36.6458
25.08 9.00851 32.8741
18.3761 10.5442 28.7473
20.6315 8.02485 29.5849
21.5078 9.39781 29.886
14.2709 11.3649 42.1026
21.4983 9.7653 38.198
18.7423 12.3141 33.9216
16.0142 11.578 33.063
21.8131 8.53005 30.8736
14.9873 7.86112 28.7775
19.8977 6.72012 27.0915
16.8406 10.0939 49.4779
17.5126 13.9284 31.522
27.293 13.1031 36.7302
16.9529 8.29202 40.6044
15.7422 12.3796 32.4222
21.8524 6.75057 22.1858
14.2279 7.38874 34.1446
21.7761 15.0848 33.6985
15.4342 8.76559 49.3788
15.5414 9.31913 26.9925
23.8223 9.90019 31.5738
15.7107 7.39631 18.1323
15.8087 5.7109 22.907
23.4579 9.36278 37.0712
16.5996 14.7164 36.9862
17.7196 8.71644 45.1316
22.9109 9.81662 35.8045
14.8309 11.5647 42.0092
18.8233 8.67023 35.5842
18.6961 7.89793 30.2026
20.0325 14.4581 40.4514
19.3837 14.2123 54.3192
15.2851 13.2311 32.6375
18.3385 11.1366 35.0913
20.5168 11.4859 46.2504
15.9281 15.8201 45.9639
22.8988 11.5379 48.6207
16.717 11.026 33.2357
14.4295 8.17471 24.9298
20.6058 9.6852 31.2128
13.2444 13.9932 46.8094
19.4361 12.6791 63.5159
20.2177 9.17878 24.6463
13.1603 9.17803 40.4648
23.6459 12.1926 42.5241
15.7634 8.51204 20.7618
17.5036 7.06626 26.7721
19.1783 8.37892 30.4265
14.9924 10.2281 29.818
18.2275 7.04523 16.3152
16.1757 9.20033 38.9667
17.6324 7.03882 28.7991
21.5289 7.89396 36.0934
20.0242 12.2968 37.4634
15.5785 8.15118 19.7048
21.1155 7.33158 21.2295
11.8971 9.29462 38.5779
20.6285 8.19816 37.306
21.9736 8.52827 28.4965
15.9191 10.2772 42.1375
19.7882 9.3567 30.2943
15.3622 11.3587 45.7243
18.198 8.46979 31.4659
24.7388 9.68691 22.8398
14.5355 11.5875 37.4962
16.6753 7.95218 40.5638
19.3763 9.08664 32.6601
18.6234 8.90452 31.1575
22.1287 9.51773 27.02
16.1688 9.68866 44.1054
19.1044 9.8425 27.6859
21.206 8.67247 34.1777
12.513 10.6157 38.6698
24.3574 11.8375 47.9263
18.29 11.4612 38.468
15.134 8.2117 29.2433
21.9718 10.3942 36.0007
11.5269 9.36653 29.7062
17.8133 10.8307 50.2274
22.3651 10.9641 33.1153
13.0446 7.70499 28.9132
22.8779 13.0333 45.2816
18.3089 9.28593 40.9709
19.0346 10.9848 40.8082
26.1966 11.4904 34.295
15.5223 10.0732 41.4037
17.1972 10.563 47.9322
20.8781 11.4803 35.7666
12.6265 9.2787 36.4523
21.4606 7.93557 24.892
12.8547 12.5334 30.3319
16.2473 9.6236 39.4512
24.1784 8.24101 42.6151
14.7911 12.3565 38.5476
16.0252 7.97012 29.2527
21.1152 10.4032 36.4361
13.7095 8.32482 25.8742
22.3449 13.3101 46.7451
18.6512 5.67247 29.3422
19.5443 13.2509 59.7169
24.8315 13.4026 38.0645
12 9.4276 23.9694
19.372 9.40439 46.9807
19.3693 12.0757 36.6516
17.4094 16.139 49.6427
25.419 9.23291 29.872
15.6861 9.53352 35.7489
13.2782 10.9463 40.5738
21.549 8.77719 42.1827
15.2968 12.3618 39.1447
21.1125 9.76073 37.4973
17.6802 10.4751 36.3058
14.7026 6.02758 28.6068
20.342 7.90495 45.101
20.3983 12.8064 32.9075
20.6368 12.7653 42.1603
20.6923 7.97324 33.5007
17.4367 12.3263 38.3795
18.7967 11.503 55.8797
22.6463 11.8991 36.8875
13.9558 9.59951 32.1473
19.9392 10.3661 36.7894
17.1487 7.60809 36.6699
21.6713 12.3091 34.0393
21.6166 8.96864 36.1657
13.8062 7.86788 33.8806
20.4524 6.99339 28.5449
21.371 9.82443 26.2434
13.5204 11.5996 54.4938
21.4209 8.79407 35.7772
11.85 9.11474 37.6755
12.5473 14.356 51.8004
20.3981 9.73259 35.9155
17.0106 12.9145 37.6696
23.5182 10.9837 37.2375
17.7391 8.33029 24.5827
14.5876 10.506 41.2399
26.2778 7.10434 36.6478
18.2123 11.3734 32.2124
18.0399 9.89853 37.3034
21.9337 7.38086 27.8496
15.654 6.98976 26.7902
24.3798 10.4482 41.1945
18.9469 12.6895 38.4219
15.0697 9.08241 37.3718
20.8501 11.0915 44.7637
13.9871 11.3328 38.4849
18.0068 13.8378 57.6063
26.737 10.1871 35.7404
17.2835 10.1529 40.845
17.1051 9.7852 36.896
19.0905 15.2614 51.8865
17.3248 11.8489 50.1661
27.4585 8.91166 21.9881
13.1678 6.62772 30.9476
14.852 8.41027 42.0851
20.3965 10.7446 38.3743
14.533 11.2179 33.68
19.9936 6.9391 32.9563
21.339 11.0287 41.5061
14.7417 7.83961 21.39
20.4966 8.45349 25.2367
16.045 7.34479 28.8672
15.5307 6.07118 30.6935
18.1205 9.50768 25.4935
13.34 10.0534 43.3494
22.7586 9.26114 35.2171
16.0626 7.17009 33.2853
15.0118 7.6425 27.9004
22.1203 9.87395 40.8305
17.9677 8.89547 37.381
15.381 10.6385 37.0767
19.3945 7.16985 25.1032
12.9588 11.083 43.2422
21.8865 7.36807 20.3346
16.466 5.39662 26.2738
16.347 7.6408 34.634
22.6289 5.50285 28.7043
12.8242 11.5074 35.0706
19.5106 8.40559 29.6741
19.468 7.75013 31.5411
16.5486 13.801 49.2513
20.8782 6.62348 32.7894
17.2648 8.70251 28.3384
14.4764 9.55438 48.9455
18.9306 11.9858 38.8781
13.4295 9.4931 28.7095
18.7242 6.50359 35.9437
22.2105 13.2555 44.3404
14.5278 8.4174 26.1386
18.9878 7.96754 30.9985
17.167 7.55997 33.0747
13.1507 10.1199 57.8891
20.7059 14.8767 31.4972
14.3998 10.246 45.6739
16.6286 8.4156 30.9372
20.248 6.91202 26.7664
12.1684 10.3096 35.5148
23.0305 6.03741 17.1528
15.8155 6.97795 32.2022
18.2506 9.01721 31.3528
21.3747 9.72412 41.1582
17.1475 10.574 41.4595
17.5161 8.19223 31.4273
15.8881 5.36549 25.8088
13.4474 7.53683 34.0553
19.1237 11.7279 34.9344
15.9809 5.51592 25.1662
15.9601 8.99549 40.7464
22.2578 9.60976 34.7557
14.6098 11.4388 47.7193
16.6814 10.3427 36.4512
21.2733 9.009 42.274
13.6369 13.0325 36.1796
17.6479 8.96213 23.857
11.792 6.67966 21.9357
15.7728 7.71859 48.6939
22.9187 8.41378 39.173
11.1728 7.8878 30.0224
18.1795 10.771 31.2488
19.8738 10.5606 45.8868
10.7304 6.79826 28.7591
18.3728 12.3031 48.2035
15.4708 7.11179 31.9964
16.8873 10.6496 31.5078
22.829 11.76 46.0501
10.6652 12.7992 43.0331
20.2464 7.10974 34.3264
19.7154 8.82476 27.4556
11.6991 6.11413 28.1397
18.1299 7.17774 29.126
12.9256 9.85086 40.7211
17.9578 9.73839 40.4171
18.1039 11.1566 43.7562
11.6643 8.66483 31.4752
15.5582 5.54805 20.4179
14.7481 7.13657 21.0017
10.4542 9.22927 40.8694
21.9048 7.77868 29.0605
13.4342 7.61813 36.3171
16.3846 6.79805 31.3619
19.9077 12.2435 34.8985
13.8005 8.01092 34.8548
16.9899 9.64 43.4022
15.0482 7.62785 35.1261
12.3824 12.1049 43.2997
18.3688 10.027 30.5426
11.9745 6.41111 24.9977
16.0864 6.83896 36.714
20.0077 7.28271 23.4604
14.1065 9.01109 36.551
18.3927 13.1887 48.2229
16.2284 8.8907 26.7021
9.95909 9.70569 58.1481
21.1728 10.1117 35.521
13.5294 12.0394 39.3494
12.6544 9.51867 37.5506
17.3741 9.55095 38.8364
12.5871 8.94186 36.057
19.675 9.3634 33.2397
15.0663 9.65457 33.9821
14.6473 5.52048 26.0131
22.4057 10.9099 42.532
9.05981 7.90047 33.9247
18.6887 6.90405 33.9571
20.155 8.94639 42.8357
12.3153 9.55311 22.4092
18.0998 6.04947 22.1389
12.9522 7.10575 34.6689
12.9948 6.70988 43.5183
23.589 14.1068 47.3481
14.9856 8.64924 30.0994
17.3094 9.4337 31.0167
17.0506 8.18358 31.1554
12.7304 7.99151 36.2871
19.1329 17.0605 58.4017
16.0855 8.38445 32.831
12.8476 7.17549 34.3417
18.9439 8.92573 24.6202
10.9516 4.43369 25.7032
13.5188 8.68617 30.962
16.9798 6.28035 27.4145
10.5381 7.31994 34.8751
20.3768 10.9433 38.0737
16.8008 9.01795 44.0021
14.9013 7.93467 26.0743
20.1021 8.19164 36.9488
11.6693 9.59606 39.3609
18.9374 10.0605 28.5554
20.9257 6.79407 34.2364
10.3967 8.45546 31.0069
20.3414 7.24663 28.5458
14.2691 6.87667 24.0476
13.0451 10.1197 45.6858
23.2114 9.19458 24.3544
12.3472 6.6243 27.3503
18.3661 10.969 29.4004
17.4166 8.08938 30.7546
11.0799 6.00649 26.9178
19.3985 8.79332 36.1621
15.3154 5.1253 31.2996
14.3987 8.33528 30.6024
19.0463 6.70323 28.0996
12.8685 5.93509 37.718
18.7546 9.84523 35.9314
20.9994 12.1717 39.099
10.7733 6.43033 35.5101
20.0352 8.67734 31.0222
12.8935 8.47263 27.1918
14.1571 7.19047 33.6751
18.1162 9.82025 36.3688
11.9512 11.7993 40.7868
18.7446 5.72708 23.4393
20.4135 6.21025 23.2325
11.313 6.74238 37.3535
20.2918 8.0603 26.4748
17.5002 5.23983 24.0514
11.4008 8.99609 48.5692
25.4142 9.92037 24.4639
13.858 8.14601 36.7757
14.8053 8.22343 37.1928
18.6434 8.52951 39.0288
15.7805 7.80259 38.7243
18.961 10.3974 38.0016
13.6677 14.2296 49.2254
20.1734 12.1305 46.5465
21.9968 7.21488 43.0446
15.4436 10.0511 37.9711
21.1624 12.4905 41.8111
22.2251 10.5712 36.0262
12.5158 7.84835 21.6829
21.3193 7.33269 33.0737
11.4514 8.25465 36.8745
13.1054 6.12517 28.3835
21.1985 7.60036 31.9531
13.42 11.2129 33.5851
19.56 4.88605 31.4298
16.4808 8.40649 28.3864
14.1572 8.14989 30.5025
20.2346 7.09403 25.9723
16.8648 9.93633 27.5994
11.8672 7.66114 39.6078
22.1699 8.99256 42.9311
12.7756 9.26429 28.6646
22.5921 8.86441 31.2633
21.1132 6.86444 25.4426
12.9609 5.99817 37.6206
19.1486 9.50011 40.4724
16.9374 12.9399 29.8259
16.0378 5.16923 37.593
22.2256 8.30824 32.4106
13.837 8.14562 29.5197
16.7963 8.28551 36.588
18.0213 6.16413 36.0278
15.1669 11.9348 31.3035
21.9223 8.10145 32.1278
17.518 6.55475 35.0778
16.7306 10.8116 45.8276
21.5385 10.5449 41.4856
14.4867 9.70773 29.1174
19.9896 5.76639 33.0513
17.0695 9.28013 32.2105
15.9452 6.56583 29.0266
22.2138 7.94137 37.8599
17.3681 13.0488 37.584
16.3027 6.67511 29.9521
19.9753 9.39873 37.0883
12.5059 5.90656 21.9596
19.6165 6.31042 31.1424
16.2191 11.1231 41.7988
10.8657 8.19414 18.4553
22.8664 4.68536 39.9965
12.1971 10.8427 33.6028
21.5538 8.53967 37.0289
25.2086 8.38249 32.5024
12.1221 0 0