# pn-170911/RbIIA-35-WTZR-1280-1959.psd
# Power spectrum* (dif=0,1,2) (really just |FT|^2)
# NOTE: only the first half! (symmetric)
# weeks: 1280-1959
# 3 clock-days, 2 excluded
# PSD: 1441
45694.8 0.0655403 0.00568493
1.80893e+06 74.4595 0.00326367
6.39563e+06 54.7349 0.00307921
708180 3.00227 0.00279852
439903 12.5741 0.0020205
258057 27.3908 0.00305198
190531 3.68946 0.00218922
75182.3 10.8598 0.00286806
157613 14.8775 0.00270655
98327.9 9.82689 0.00281674
73143.7 6.85125 0.00446003
49585.5 5.88284 0.0012868
64765.3 6.81485 0.00611579
37849 1.81179 0.00324792
33984.7 4.69709 0.00456912
28818.5 2.31266 0.00513597
26950.3 1.22915 0.00166967
24381.9 1.70673 0.00145599
36906.5 4.3781 0.00720942
31134.2 3.30907 0.00595282
22410.2 1.18228 0.00429593
28128.6 5.8209 0.0130654
14350.5 0.59876 0.00782626
16128.3 0.779307 0.0033812
16136 1.34561 0.00456372
15567.7 1.8778 0.00603043
15369.5 2.57805 0.012266
10398.1 0.582736 0.000893569
11983.9 2.67759 0.0176794
7878.13 1.55818 0.00804733
7744.29 1.0145 0.00568865
6017.58 0.638466 0.00408853
5658.45 0.78301 0.00380457
5792.99 2.90633 0.0129096
6152.84 0.413047 0.00389439
4570.97 8.9628 0.0483348
3585.05 4.14823 0.0260867
5417.09 2.3624 0.00975221
5075.54 1.95722 0.00986021
4372.99 0.942147 0.00857683
5069.46 1.27305 0.0152222
3592.28 0.961274 0.010836
4883.09 1.69777 0.0181736
4670.65 2.92265 0.0284676
3259.51 0.454656 0.00534337
3428.82 1.10972 0.0104799
4725.4 2.23951 0.0335578
2744.51 4.05647 0.0338881
3527.48 0.955855 0.00914127
3025.95 2.46534 0.0345408
3461.84 0.750919 0.0084415
3142.52 1.57492 0.0216851
2295.22 1.19433 0.0291844
2752.1 1.33358 0.013689
2656.22 0.836242 0.00718954
3057.42 0.811889 0.0126527
3118.34 1.85145 0.0310725
1569.72 1.28183 0.0259655
2208.33 1.26944 0.0245372
1867.12 1.5367 0.0146127
2779.02 3.38207 0.0642884
1995.66 2.10863 0.0321018
1321.16 2.90252 0.0615031
1538.4 2.0854 0.0285317
1556.3 3.48249 0.0786861
1828.84 1.16842 0.0259635
1886.49 1.30652 0.0223357
1263.99 1.69741 0.0506515
1627.82 2.05734 0.0623998
1947.43 2.04075 0.0331449
1697.6 0.704061 0.0114632
1768.53 1.29199 0.0208798
1469.51 1.22028 0.0238841
1463.62 0.435097 0.0195402
1332.04 1.6571 0.0428597
1281.42 1.57419 0.0433745
1753.46 2.39507 0.0681283
1125.75 0.399085 0.0172433
1322.6 0.643464 0.0257976
1068.97 0.918313 0.0266245
933.279 3.04342 0.0911929
1260.13 1.2083 0.0363227
882.828 1.03044 0.0340978
1048.24 1.93175 0.0765545
1138.64 0.511071 0.0196088
1304.83 2.03213 0.0812049
945.216 1.746 0.0689495
1234.23 2.31263 0.0860977
911.834 0.509063 0.0124257
801.089 0.360284 0.014592
676.272 1.08903 0.0356237
884.033 1.55887 0.0433008
846.97 0.405135 0.0151218
958.11 1.5209 0.0439297
743.315 1.84425 0.0812013
849.506 1.13599 0.0541711
717.772 0.557444 0.0465514
773.402 1.32408 0.0491518
826.424 1.11377 0.0385838
694.616 1.58547 0.081622
682.057 0.559107 0.0350224
694.857 1.42688 0.0620476
594.571 3.86812 0.214585
930.115 1.28318 0.0542265
869.272 1.23975 0.0494088
791.81 1.15692 0.0476822
770.798 2.62155 0.103642
655.416 1.02307 0.0466743
565.009 1.92204 0.125884
794.729 1.91741 0.0873819
658.903 1.95489 0.0991811
684.175 0.435819 0.0133758
915.279 7.38385 0.380157
786.755 2.47046 0.148559
662.83 1.07002 0.0538194
808.166 2.51595 0.156179
569.072 2.61663 0.157167
534.921 2.57148 0.194524
689.859 1.60218 0.111775
586.651 0.621286 0.0519418
323.608 2.98355 0.199839
594.924 3.6255 0.234117
361.72 3.35249 0.274274
483.417 1.01213 0.0922223
567.02 2.2164 0.125538
571.381 0.905142 0.0823665
516.966 0.699647 0.0437442
490.35 0.494969 0.0389998
380.754 1.99941 0.171113
465.707 0.780406 0.0760232
487.389 1.1307 0.071779
462.001 1.58598 0.126664
550.805 1.90477 0.183087
565.022 1.82643 0.175541
307.01 1.08221 0.0829827
386.421 1.63235 0.125732
477.973 3.70772 0.261266
361.234 0.377691 0.0324522
452.597 1.00186 0.0884305
405.258 2.22871 0.188926
392.385 1.27257 0.100206
388.032 1.56466 0.159691
283.773 2.03333 0.171773
309.455 0.984049 0.107073
437.836 2.4752 0.264061
322.104 1.24259 0.11198
337.833 1.05373 0.13801
434.32 1.54487 0.158436
333.518 1.18395 0.0837843
293.712 0.607574 0.045307
268.787 3.99127 0.391714
326.009 2.01984 0.223709
346.975 2.87837 0.352043
304.392 0.874266 0.0903135
273.751 2.30119 0.31205
316.667 0.814255 0.0867458
295.137 0.898506 0.113405
302.601 0.347407 0.0255369
319.754 2.22647 0.27783
352.98 1.59315 0.163153
327.604 1.26412 0.15277
291.041 1.526 0.211419
354.239 3.38825 0.536275
192.965 1.5177 0.166347
242.484 1.63205 0.16282
306.586 4.75277 0.636743
221.273 0.876169 0.105414
318.684 1.7093 0.192839
243.498 0.51778 0.0906249
185.742 2.1148 0.286364
277.307 2.3196 0.250696
266.63 1.84843 0.230382
261.612 1.49261 0.194375
262.114 1.63628 0.272134
122.274 2.93918 0.406674
215.93 0.72341 0.117233
236.571 1.59149 0.213144
279.42 1.41241 0.174159
276.01 1.60705 0.215791
279.542 0.760992 0.12464
197.821 2.36762 0.356514
230.063 2.39793 0.376877
259.487 1.15774 0.220771
203.053 2.20563 0.317134
118.303 4.68432 0.751384
232.119 1.04424 0.208044
240.52 1.51519 0.317793
277.816 2.12072 0.353226
221.328 0.735203 0.174692
220.389 2.3682 0.353934
198.736 1.48917 0.175965
210.776 2.98475 0.516056
236.722 0.8095 0.150024
219.652 1.94691 0.398341
201.787 1.09067 0.121902
226.821 2.53554 0.409637
249.701 5.78177 1.1386
188.444 2.87845 0.730751
149.757 3.60658 0.561264
167.768 1.86208 0.377203
158.001 2.34611 0.51727
171.065 1.39536 0.217031
230.105 2.91588 0.677954
220.472 1.80889 0.274034
188.565 1.6793 0.248751
181.672 3.23319 0.627897
164.692 2.26617 0.574131
255.566 3.44861 0.61899
244.841 7.32423 1.48497
134.471 1.96569 0.398692
116.019 2.33228 0.564795
179.858 0.551684 0.144538
203.054 1.8476 0.450147
198.902 8.56255 1.63482
169.655 1.07243 0.224426
170.359 0.398609 0.105012
180.144 4.16228 0.81391
165.627 0.999921 0.282107
245.823 3.9303 0.762072
163.24 1.74736 0.392137
145.355 1.14383 0.268244
114.612 1.01272 0.212379
225.031 4.18019 0.950106
147.574 1.39445 0.374747
153.058 0.94263 0.184819
141.041 1.11957 0.228856
120.805 0.571674 0.1441
123.555 1.46578 0.342255
166.497 2.61333 0.636742
137.763 1.76708 0.370431
132.311 2.23996 0.56314
111.619 1.36564 0.426204
179.696 1.20455 0.31989
180.046 2.54853 0.614544
100.808 1.49826 0.448155
84.697 3.35255 0.794953
156.114 2.06681 0.502306
159.231 1.14865 0.33499
208.675 10.9904 2.70863
141.46 2.29969 0.708888
139.816 4.17622 1.14636
117.654 1.56025 0.391048
134.642 1.97984 0.551375
131.576 5.30962 1.35262
102.512 4.64033 1.40216
147.466 5.86893 1.93101
118.658 1.92334 0.516205
148.825 2.40678 0.77216
156.401 2.15556 0.57394
120.685 0.359089 0.172436
145.883 1.54495 0.60988
115.812 1.94569 0.68696
142.615 1.31589 0.439059
146.828 1.7444 0.434187
120.671 2.49472 0.708676
109.79 3.16155 1.10845
83.692 1.31955 0.318579
114.26 0.434381 0.154645
113.609 2.03939 0.700107
122.567 1.09233 0.205064
130.391 3.16195 0.813232
112.09 0.27231 0.109832
85.1262 3.57879 1.24552
139.467 2.53607 0.759063
115.008 0.629962 0.218744
102.554 1.52493 0.471989
89.0992 2.98047 0.798269
106.571 4.50627 1.57183
114.424 0.947496 0.242426
78.7466 0.906434 0.2697
92.199 2.89403 1.06842
87.1466 7.16397 2.30604
69.4411 2.7485 0.841391
107 3.52375 1.38792
71.3467 1.34334 0.540087
92.925 2.38823 0.77788
85.4337 2.04762 0.982063
126.547 4.28441 1.40513
116.886 1.20865 0.535008
114.229 0.883977 0.242196
127.486 1.17009 0.329466
111.052 0.818429 0.53371
100.876 3.73143 1.37222
139.749 8.76788 2.93527
82.0685 5.41159 1.58525
86.0431 2.59311 0.956568
101.615 1.43514 0.568894
74.6361 1.38748 0.658071
116.874 1.80298 0.671569
96.6797 2.24251 0.941533
80.0536 0.862633 0.225624
68.6335 2.0053 0.713792
68.0714 0.722962 0.262025
74.801 1.27847 0.513201
90.5462 1.81399 0.826623
94.6125 1.03564 0.402309
70.2112 1.25167 0.442995
86.9704 5.20034 2.09727
78.4689 1.73359 0.707474
70.0871 4.06291 1.496
68.8954 3.43526 1.33306
67.7736 1.08438 0.481934
78.0669 2.40013 1.11882
73.3426 2.6627 1.4813
98.0467 2.64204 0.729711
80.8337 1.40231 0.683643
80.7122 0.811694 0.340014
101.961 2.34298 1.01162
72.7003 1.28125 0.599282
99.8176 1.95353 0.827595
59.0862 0.829508 0.346123
99.2387 2.0709 0.717401
71.2455 3.71782 1.69686
75.4889 0.668861 0.404629
64.5748 6.95655 2.78665
81.7154 1.56602 0.943718
70.3919 0.831085 0.530802
80.4678 1.58294 0.861014
93.3611 2.54331 1.44539
52.4591 1.90304 1.29559
86.5201 6.73762 2.1232
54.7937 2.98971 1.39941
86.8396 6.63869 3.11406
60.5851 4.51708 2.07362
49.4503 3.05452 1.98422
106.476 2.80279 1.41933
73.8729 0.143074 0.250566
53.0177 1.26307 0.578398
77.6531 1.47837 0.484998
67.205 3.49167 1.6637
73.5522 1.99819 1.22869
54.1482 1.78668 1.0055
60.7941 3.28668 1.78808
73.6101 0.589023 0.527184
90.5061 2.6033 1.28763
70.5059 4.14889 1.97789
55.3443 3.89171 1.92634
55.5209 1.18159 0.944179
68.9398 2.41829 1.00455
45.783 2.1837 1.17865
83.9093 2.41949 1.37337
64.4386 2.90801 1.23337
61.5643 1.33605 0.792183
77.6176 0.845644 0.611129
72.6917 3.34516 1.68329
71.3134 2.50802 1.32308
79.9867 2.03185 1.06611
67.226 2.51807 1.33973
73.2137 1.1521 0.581201
71.4576 2.09205 1.2044
57.3109 1.48154 1.14543
62.8811 1.40564 0.527188
67.3446 2.74821 1.67793
77.2277 3.64535 2.04429
54.7636 3.56597 1.66685
59.3083 2.53984 1.70784
61.7341 0.804896 0.386265
61.1692 3.00921 1.70575
62.2796 1.47922 1.20599
54.9572 3.18329 1.62613
81.8957 3.02065 1.97455
68.5971 2.46332 1.28784
44.4744 2.87624 1.30464
37.6426 5.51975 3.64264
44.7122 1.87351 1.5229
59.2365 2.93494 1.80805
54.2608 4.34116 2.23385
75.6945 6.74249 4.05744
75.2951 4.32456 2.86716
62.4187 1.44281 1.98532
71.5807 4.0048 1.68998
56.7404 3.53601 1.61787
45.2287 5.34406 3.22118
60.7584 4.51492 3.04045
55.4198 1.59671 1.5194
50.6414 3.48494 1.71465
54.6694 1.65449 1.17348
67.8037 1.29611 0.86356
54.1814 1.0025 0.968105
67.7121 2.56642 2.0138
71.7418 6.59437 4.00022
60.9496 4.83761 3.19295
76.4173 5.06016 4.17254
45.0403 8.00221 4.611
68.4898 4.57673 2.39307
70.6744 5.2109 3.79392
42.9609 2.6214 1.6387
22.7461 7.51161 4.88865
81.7377 4.67968 2.83773
44.248 3.24247 2.59086
51.9173 0.358918 1.046
57.9085 4.6968 1.81662
40.4739 8.30664 4.80272
60.7276 3.81774 2.37074
71.7213 6.03853 3.69426
39.9812 3.77282 2.36682
54.2171 7.14888 4.69182
65.4533 5.17101 3.58889
53.3316 3.77985 3.9544
48.5637 2.77503 1.83052
78.049 4.97321 2.8301
42.6063 2.83201 2.66554
93.1049 7.37629 4.4168
48.6478 3.49522 2.03746
61.2473 4.027 3.29326
52.8799 3.70783 3.94139
32.6894 3.85564 2.69125
29.3885 3.20137 2.48112
46.8786 4.28722 3.20903
67.4114 4.53538 2.87227
53.5833 2.86242 2.71653
47.0655 2.39447 1.82647
38.3443 2.96736 3.00814
59.2754 4.80638 3.35985
44.8997 4.34019 3.07587
86.381 5.87116 4.23293
39.1787 2.50594 1.75785
33.487 3.21861 3.18695
48.6195 2.5798 1.65352
31.9412 2.15631 1.30297
32.5318 3.17573 3.82295
78.8421 5.65766 2.8761
55.311 4.33232 3.28223
48.8506 2.17744 2.50538
58.5334 5.6485 6.68964
37.1669 6.07056 3.51077
51.0883 2.03264 2.28239
54.4855 7.0975 4.47853
44.1618 1.66333 1.3273
40.3 2.27588 1.08059
26.0675 8.12084 7.27707
65.1212 3.56634 4.59234
56.2899 9.02796 4.44648
56.1562 6.25425 5.93446
48.1092 2.29076 2.2164
32.998 3.66473 3.29703
52.1152 2.59453 2.23087
44.7004 2.45007 1.31463
30.965 6.2433 5.16476
52.1098 5.14217 4.9738
61.3934 3.6844 1.86992
45.1852 4.15354 3.78124
52.2247 2.05373 1.6217
46.6664 2.11444 1.534
38.8509 1.91617 2.38159
74.5639 11.3342 9.33823
29.4167 1.37911 2.07266
46.209 9.17619 6.68394
38.7288 1.96807 2.29128
34.556 2.05651 1.70435
33.431 3.34474 3.13198
47.5443 1.94201 2.64012
53.3719 7.68573 6.06958
39.8714 1.61455 3.32662
15.0556 5.32577 4.51087
28.8414 6.08696 4.44988
36.2318 2.33531 2.8735
53.9249 1.72979 1.49896
36.6611 2.60212 2.28989
39.091 7.94947 6.24103
24.2485 3.58344 2.98184
31.2201 3.15051 3.78325
50.2615 2.52516 3.62777
54.1794 7.90091 5.43462
54.1542 4.03807 3.33645
40.0575 7.60157 8.74216
37.8823 1.9663 1.03477
48.0873 4.36501 3.97178
25.3741 5.85731 7.06434
47.091 5.55287 5.98826
53.2664 5.40259 3.92043
36.9863 3.41727 3.43227
49.4128 7.63407 8.29452
50.3698 13.1788 10.7285
27.9373 2.2559 2.59249
34.2986 3.22826 3.57823
45.4519 12.1101 10.9853
37.143 5.66493 5.55787
28.3912 3.33897 3.94418
42.8392 2.29252 2.77099
34.5752 2.30255 2.19313
29.4868 1.76171 1.97767
32.8201 2.18399 2.32617
43.7796 2.41095 2.95571
44.0949 4.21153 5.03715
48.152 5.03087 5.79476
33.1289 1.54574 1.13189
35.8925 4.62617 4.06142
53.9548 5.52031 4.54989
24.5733 3.90323 4.50497
41.2495 2.18855 2.89588
55.0471 4.34024 2.91601
41.9789 2.39252 2.25196
36.4556 4.49321 5.22385
31.6228 4.26721 3.93925
32.7634 4.74772 7.57622
23.7314 8.85898 10.0842
43.0449 13.0352 9.83789
38.384 5.09074 6.81685
44.5318 4.81143 7.03247
60.1202 9.97304 8.45611
18.838 7.14844 6.19035
33.4095 2.99885 5.89129
37.9763 6.76508 6.57367
29.3473 2.89914 2.01617
50.4588 8.36027 9.40456
18.6074 3.13654 4.69689
42.7787 5.88487 5.35028
25.9571 5.43547 7.06324
39.2334 3.41356 3.0973
29.8408 7.75739 9.06619
40.5126 4.95418 4.2544
35.9619 3.38139 3.2741
40.7722 7.41081 8.85517
42.366 7.10081 7.56783
20.9441 3.88091 4.03249
35.3997 3.04915 3.96859
27.3015 5.36942 6.27558
34.254 6.8857 11.3894
41.9685 11.7578 16.821
38.6147 9.91864 9.52411
11.5145 9.25348 12.6955
27.657 11.5064 6.88217
28.3041 6.49346 7.86232
24.6008 2.59303 6.80842
37.0322 4.89352 4.9395
30.9467 6.83626 5.10659
27.4076 2.45916 1.74473
32.8974 7.62697 9.69864
39.4651 17.4225 21.6241
26.5372 5.26905 8.46549
25.4323 3.69017 2.88798
23.7376 6.13256 7.33283
33.64 5.78167 7.53737
35.5499 5.48382 7.91428
35.5335 2.17371 1.8824
37.9537 5.44008 6.66365
59.6975 9.71106 12.8738
32.3803 8.3868 10.1706
26.4072 5.66389 9.03165
17.0909 2.87917 2.09169
19.2589 4.33713 4.14817
29.5155 6.51487 7.28649
20.3689 4.03095 4.88234
26.9815 5.72282 6.64006
32.2034 8.0634 11.5368
35.6073 6.11295 8.3682
29.953 5.60155 5.12959
29.6979 4.54726 7.97167
29.567 15.7551 20.7159
32.5084 6.60251 8.43355
28.8097 3.15517 3.13737
31.4343 5.71693 9.90984
64.6307 25.1435 29.8
20.9044 2.81466 2.06538
32.1355 1.30563 2.15724
29.2442 8.10237 12.0056
15.8786 11.3327 12.1944
18.4057 13.5033 24.5375
42.023 8.1169 8.36119
42.6611 3.43179 3.91166
29.9074 1.64219 5.69994
41.1124 6.56775 6.30501
27.5037 3.13534 6.49624
47.2873 6.73998 4.71611
38.6463 5.57296 10.2302
29.6693 10.53 10.6921
32.0389 5.39877 8.40813
43.6414 10.5364 14.0459
28.526 2.88216 3.34046
32.8466 8.60819 12.3445
31.5847 7.31234 10.7618
36.8839 4.82013 8.76515
26.9621 9.65091 11.4516
22.7282 9.10272 19.0643
18.4351 5.22737 7.3843
44.1401 9.74522 7.41281
25.7466 11.1796 16.026
19.471 14.5286 20.8141
38.7082 6.16352 10.3569
30.5081 10.1165 18.1303
27.2676 6.20606 9.85082
15.7317 2.40314 4.35249
25.6144 10.3612 9.90879
23.7249 3.17348 3.42163
19.9408 6.6794 9.21305
30.3534 7.28358 10.0033
32.8105 7.01535 10.3503
35.9863 9.52913 13.4642
42.657 2.79215 2.68066
46.9932 10.1592 10.8784
22.7241 2.53133 7.51609
30.217 4.13122 4.45621
14.6642 4.16779 6.4114
26.4184 3.92611 6.29474
34.9897 4.53454 7.20175
33.4074 4.18419 4.67524
29.1734 7.18021 9.8774
28.0568 11.0824 16.9743
43.0186 13.1221 21.4708
27.9422 2.552 3.13982
26.0189 4.41221 6.86948
20.8108 2.38967 3.15776
21.214 8.37032 11.4915
22.2368 3.3851 7.0051
29.509 4.9281 7.60794
33.688 5.53718 5.36451
31.7874 3.64367 6.00244
41.2963 8.55882 13.2731
14.0014 5.51895 7.09178
32.9908 4.01125 8.6962
32.1128 5.13022 8.2325
29.0911 7.34583 11.5439
16.2537 1.69858 2.24618
20.194 8.65722 15.3535
35.8433 5.57168 5.25537
17.7585 16.5382 33.1664
37.5897 12.6291 12.6539
21.6043 4.72259 7.67775
28.9874 1.28719 6.1057
26.8377 11.1911 10.0692
26.4502 7.20606 12.2682
26.6946 9.1338 15.779
49.1581 12.2813 20.2009
31.1535 11.108 20.6633
36.5115 9.63263 9.31334
20.5331 4.99944 7.27263
14.4113 4.63248 5.93452
14.4716 5.45168 7.81534
19.6362 7.8083 13.3811
22.1011 8.4157 27.2561
24.9221 24.043 23.0826
24.8044 11.3921 20.9526
36.6276 8.69278 23.4753
20.7945 2.74853 7.45669
31.126 7.69184 10.8078
34.6742 5.94889 13.2897
44.2328 15.4389 25.5997
30.1541 11.0586 9.69393
19.2705 2.34684 5.36759
30.6358 19.261 19.5313
29.8688 5.97041 11.75
33.8941 5.89493 11.6393
17.5583 4.61232 11.4496
20.152 4.52239 3.87471
24.2324 5.94568 10.3803
24.6545 5.3054 7.12756
20.05 3.03851 6.99714
21.2213 5.7476 6.24071
22.845 8.82939 15.6251
19.2422 9.95569 25.8662
38.4535 12.641 22.254
20.2564 4.45651 8.3302
27.2901 16.4045 25.0041
22.0867 5.25997 6.95327
36.2817 7.62736 9.79481
25.2945 2.54157 4.56131
21.0089 4.64148 10.1094
16.3801 1.76643 3.96661
6.84061 16.019 24.6041
23.0495 9.07228 18.5119
30.3316 9.55601 11.7915
33.586 11.0196 17.3249
20.1874 2.05558 9.59181
24.5295 1.35566 4.49299
27.9829 10.3539 10.791
30.676 7.37674 12.7288
24.5594 3.11086 1.59273
29.4781 17.9745 24.5991
25.6108 7.21782 16.4916
25.1938 6.80235 24.647
17.3323 9.92172 17.9015
19.9086 7.18826 7.84401
11.5703 13.9253 32.2205
39.7626 6.90768 7.85806
27.7911 2.55981 8.42344
52.5097 17.9249 28.799
24.7445 15.5678 19.5633
19.0875 2.55203 5.81142
27.3677 10.6672 18.2186
26.5165 4.13047 7.1627
25.3744 13.8842 22.55
21.4273 6.32683 9.91691
24.4542 4.29435 9.81872
23.9747 11.4438 21.4698
27.1197 11.4645 19.059
25.0149 6.69825 18.9909
41.7453 21.1702 38.7572
13.4024 2.45411 5.191
23.1312 6.78649 20.0153
42.7239 18.8259 25.442
41.0367 12.8086 19.5859
25.6523 16.9862 34.5211
17.3839 3.14857 8.35857
19.9117 9.63697 29.7126
17.2497 3.99777 19.6232
17.8464 6.94055 6.95439
14.6151 11.9957 29.7809
22.8236 12.0901 17.6427
23.4858 10.2665 11.9181
22.9177 1.30677 3.20175
34.2789 16.4841 32.2751
16.5448 4.52368 25.0166
11.305 7.57508 10.7823
12.4981 4.96833 10.2866
9.577 3.8068 3.07278
15.4675 4.68371 9.64339
8.50937 5.18869 11.0892
8.46614 5.41018 11.9692
14.1343 8.49263 16.4986
17.3372 11.9195 11.8802
11.1008 8.05018 12.772
18.4966 6.78333 10.8295
14.4522 10.1888 21.9022
28.7636 6.83091 7.89927
14.6917 8.37181 21.871
17.5352 9.02381 15.7712
18.241 6.37361 20.6451
42.4022 24.9821 38.4967
13.7684 5.33385 12.0627
18.785 17.9806 49.2065
23.7828 7.87763 5.6804
11.8203 7.17016 21.2146
16.9233 9.55414 21.255
33.4171 18.2337 19.5802
21.8053 12.1643 34.2245
13.0004 9.96914 20.711
18.4666 11.1275 30.4428
17.9302 5.79612 7.92766
21.6644 7.02842 21.268
14.899 6.45225 6.98157
26.1897 11.9335 28.912
18.4743 6.62857 5.46857
13.1232 6.31755 16.8738
29.4509 7.12998 14.7781
21.0763 9.79665 7.1149
17.2289 8.53764 21.8851
26.0574 10.1516 16.0661
24.8957 8.15561 25.4727
21.6859 7.14731 16.6088
10.9931 8.46861 23.7798
34.7328 21.1536 28.4131
10.3024 17.4192 39.6049
21.7889 23.8422 62.2705
25.7262 8.80626 11.869
19.868 3.13789 13.3314
13.2202 18.7913 27.2481
18.135 10.0352 20.5924
20.1387 4.68003 18.3874
18.9742 6.0015 15.3164
24.5555 6.12822 15.9923
14.6535 5.72859 35.8313
25.4655 16.306 13.9025
30.8501 28.1452 38.8096
18.9687 8.46495 14.6221
30.4329 19.0144 33.974
19.907 6.55873 25.8076
11.7743 10.5317 31.669
21.2123 4.14638 12.7546
24.5382 2.59245 6.71299
23.7493 6.06081 15.1098
17.8456 12.2089 21.7463
18.1565 8.64551 27.5044
18.1507 11.3991 20.4149
12.4909 4.55558 2.47
15.7616 6.50454 17.6857
4.91427 15.2987 47.6096
22.6483 18.8161 28.2182
21.9271 9.43039 14.7555
20.5261 10.0358 34.4392
25.4408 8.84751 10.8917
21.202 23.3583 49.9071
20.4907 10.2862 21.3292
19.0751 12.5347 35.4248
22.02 3.86669 14.6173
18.58 22.5207 52.4072
32.2643 4.56867 23.2716
29.3823 10.9072 9.3407
13.7585 7.48099 19.6658
31.4449 12.9968 43.5338
26.2972 16.0602 12.3301
12.3 14.0691 38.342
16.4096 8.14934 37.0927
31.5842 14.8022 13.9708
19.2171 3.35433 16.2325
23.9481 26.4348 45.7302
25.1713 11.6752 24.8986
9.85873 8.4771 27.5247
17.1996 7.53351 13.0621
14.91 8.69887 25.5225
20.6669 13.081 16.5314
18.0769 1.13581 7.18809
19.7448 12.2078 18.0479
24.0582 5.99085 13.4316
15.0216 15.0595 35.089
14.9897 15.0043 47.4539
15.3158 4.47442 33.9217
27.2598 17.1465 33.2073
21.2276 10.2226 8.70829
24.8665 10.6123 22.7191
12.3723 7.90476 15.2352
18.0815 10.6582 37.2477
28.5946 7.06941 14.3757
21.9383 6.61548 16.2845
19.7814 5.00901 10.3891
13.3917 4.03263 9.91905
20.0013 7.80348 13.0344
17.6076 8.7784 35.3319
25.3457 15.4953 25.9636
23.8854 10.815 19.9595
18.2373 3.62486 18.5737
29.0809 10.8263 11.8931
17.417 24.7313 58.4699
24.7456 14.4834 45.3793
32.6942 16.3527 32.9943
16.9062 18.7544 45.6589
14.2797 3.60276 10.7442
19.6334 4.43471 4.64457
17.8767 14.02 31.9798
12.9436 6.88771 23.0826
23.0955 20.1232 52.4057
17.541 7.23913 9.39349
9.08074 7.49748 23.1603
20.6406 18.3432 41.9428
19.8326 1.28933 4.8073
28.2775 20.7835 41.4759
26.9101 17.4401 56.4681
15.276 13.9396 28.0212
18.5552 3.69532 5.67153
16.3933 13.1598 23.2667
14.01 12.7224 35.4477
9.7364 3.04019 15.2774
11.3409 2.41496 4.53131
15.1897 10.0048 24.1311
8.416 11.6263 47.8895
22.9545 5.31299 11.7768
16.995 14.1866 38.759
24.5544 19.8475 86.02
11.5186 22.3844 18.2446
14.0254 10.5052 27.9461
17.967 19.9239 42.1489
9.60588 15.5962 43.5854
23.833 13.2119 27.7493
16.6625 5.78405 35.0546
31.3348 12.3234 23.2837
21.6084 14.5439 45.8632
12.9285 9.93676 26.8986
8.0303 11.32 36.1712
14.1994 14.8082 48.1123
17.4101 15.4253 32.1598
25.1945 6.94994 9.29783
10.1391 21.5294 45.2425
22.0765 17.7894 30.6573
23.0703 9.65617 13.8316
16.0551 21.0918 53.8652
23.1841 3.53797 3.85132
23.5768 9.87056 19.5782
15.6071 9.4096 43.9587
8.07699 13.8731 26.632
15.0026 11.1571 41.9289
22.6881 15.5222 31.9909
18.2851 8.28587 31.3895
14.9124 9.43567 14.3927
13.8239 8.74105 34.1319
13.3867 5.13585 11.061
19.9605 15.2267 35.6401
15.8229 3.41659 26.1056
20.4394 13.7345 14.3925
12.0495 15.8751 46.29
20.7495 9.60553 33.4455
8.52065 47.3408 138.659
39.6807 31.0485 49.604
18.3382 5.00789 22.0526
14.8174 9.76544 18.3589
18.8284 12.6489 45.2274
15.2596 4.18509 18.8142
9.83692 22.9213 69.1191
20.9205 6.48975 51.0632
7.37485 17.9164 10.0483
11.1837 14.5277 38.9639
20.6654 44.1784 114.482
26.5754 12.5385 40.2768
35.2439 14.7279 26.6275
30.931 23.1617 66.0063
6.87704 4.72288 2.37248
13.8514 12.1297 26.0077
11.7945 11.2665 57.8705
18.2015 10.576 16.4956
26.9924 18.9592 74.7949
11.2615 9.85896 14.8525
10.075 23.1663 54.3146
14.4095 5.12744 22.5865
22.3231 11.6725 29.7772
16.1373 18.7503 34.2137
19.6535 4.3605 5.62715
18.1137 16.7024 41.4329
8.42838 12.2044 59.7567
16.3998 2.94318 34.2684
22.6371 24.0611 44.2848
14.5297 18.689 57.065
9.57292 13.6101 43.8105
24.3902 10.0876 20.3412
30.6143 11.6211 7.15725
14.5432 17.2281 58.344
22.9289 22.0932 52.7813
16.3021 5.03739 39.6565
8.73457 12.9641 31.4549
9.63599 14.5307 47.4447
11.9385 20.9661 42.8106
22.375 27.018 67.3289
12.1302 21.2058 75.5085
18.437 9.52436 26.7579
18.6495 3.97187 41.6284
21.0435 19.3755 42.4445
32.2311 37.5189 76.6103
11.0864 8.0225 42.0398
24.5354 32.7892 67.9015
10.1578 12.8824 31.5756
12.74 8.06338 13.0394
13.7625 14.3763 46.1921
21.1818 4.72133 23.8888
8.73051 13.3128 31.641
24.9784 15.0535 50.5543
16.9136 14.4009 40.1297
26.038 14.146 54.0481
12.6345 13.0877 39.2544
22.5525 6.83644 15.8989
15.7739 1.23553 18.3472
22.8024 9.58118 8.9404
18.8734 11.2334 28.2673
7.19328 14.5044 58.4934
19.1997 5.92494 38.4149
23.7086 5.29099 23.5337
22.7362 8.8079 7.1384
23.1269 25.6765 85.1794
20.2587 24.1066 55.6058
9.9204 12.894 14.6567
14.4022 13.4526 17.6704
16.4617 10.83 35.7764
9.23522 2.51928 17.8232
10.8846 5.09636 31.4101
17.2189 8.09757 22.8483
17.1439 19.6028 38.2128
14.9933 17.5006 59.8918
11.4503 3.21386 40.9703
12.9887 9.42436 30.9432
23.1564 35.1349 73.9979
8.64637 6.51163 9.26587
6.23169 10.1465 38.495
26.2906 8.4725 19.4713
8.4121 4.49425 15.1962
4.38419 14.1065 20.4532
13.7181 10.2216 46.9025
19.2713 4.46722 28.6223
18.7469 15.3869 44.9939
31.1172 16.6524 21.0396
9.24465 6.6624 18.5341
9.33995 3.17149 11.5837
12.8115 13.4768 28.2973
4.61708 15.1852 52.8628
16.6815 11.673 50.2954
13.4356 2.75881 30.3469
23.3285 25.1034 65.2253
18.7852 5.70684 45.5209
26.4701 40.5274 100.566
12.8509 21.6888 25.1459
8.66822 25.9956 54.8973
13.4458 13.3649 51.7954
18.3739 9.07987 52.9791
9.5916 14.5947 92.0039
27.8486 22.6549 32.5308
18.2588 19.5057 75.9508
12.7967 26.326 103.509
33.8481 18.8614 20.7358
9.72122 10.2924 19.0374
12.558 7.23801 32.8731
7.52883 14.3357 42.2348
13.9517 6.24545 47.5023
22.7877 6.29309 48.0612
35.0083 27.2785 30.2265
10.0688 7.38188 41.988
23.2629 13.5055 24.1037
19.4457 12.175 47.5868
10.0737 18.2879 37.0429
17.2193 19.1479 57.3961
26.8034 22.6619 59.9051
7.66272 14.8644 56.4494
11.6212 4.42243 27.3731
14.7286 12.0041 47.0798
15.7966 6.40384 22.1489
18.5115 28.3582 80.3979
13.7989 5.05178 22.1848
14.9449 9.68035 9.59453
13.2384 15.5754 77.5287
25.2089 18.1443 70.5801
17.2877 13.7788 19.5733
7.45474 16.6796 54.1212
27.3743 12.8725 19.3171
10.7032 12.4598 92.0588
20.831 10.9459 45.2368
29.6078 19.2288 39.0311
12.7776 20.1345 35.2847
4.96011 14.1842 64.8202
26.3891 12.3775 50.002
23.6482 10.624 24.5068
12.7984 7.93247 48.2592
26.7375 21.3423 45.5746
23.4521 22.3631 78.8637
8.80958 16.0235 46.7027
4.83047 6.41054 36.9243
15.5323 10.2052 35.7431
12.2645 9.44929 56.5617
8.22637 14.6611 15.4811
11.311 4.78116 29.4026
6.89011 15.4791 47.9633
25.5396 19.8448 47.3777
10.5061 9.52195 38.0267
8.9402 14.8733 47.6566
11.4853 22.4472 55.6347
21.7067 4.44224 26.3006
11.3842 24.4556 71.183
22.3456 17.0401 68.2213
28.4117 15.3439 36.7712
22.287 15.8642 76.0905
29.4404 12.639 25.7329
21.0748 20.4989 50.329
13.5335 9.0446 93.8714
36.6242 25.1413 77.3763
22.3309 64.8163 137.565
19.0179 8.4397 52.2607
14.782 16.4874 45.3896
18.1126 18.23 91.5933
15.2275 13.5579 71.7582
13.6923 57.6325 115.938
11.1098 9.63593 124.607
25.7677 28.7549 67.416
19.965 21.8854 152.017
42.1625 27.8978 16.2596
16.9955 9.95682 8.91191
12.6527 9.1526 67.136
20.0961 20.2109 28.3588
10.9038 25.5304 64.6701
8.78142 10.6727 49.9183
8.81462 5.06043 38.7681
15.1459 13.4241 75.4338
12.3656 25.3535 35.8718
5.72602 15.9745 50.3919
10.0784 25.7963 62.0563
27.7142 28.0625 64.1959
11.3283 4.81645 40.4653
16.9089 4.73798 48.8848
21.0829 21.3163 61.7107
21.3155 40.6084 59.7782
18.8289 28.9318 113.449
16.5032 12.0009 101.946
7.27131 17.9222 53.5614
13.8837 13.841 16.6528
13.7502 9.62371 20.7128
5.30787 10.6889 40.1496
12.0973 14.0379 86.5372
11.5914 29.3892 74.6755
4.89439 16.408 43.6914
10.4171 13.8731 51.8558
21.6746 13.0051 34.3172
9.80993 10.5298 57.2262
6.43176 18.8624 86.0529
15.1384 22.8962 77.6498
15.1602 17.6844 19.4652
8.60604 7.50646 26.4269
15.7461 3.96303 34.7875
8.52965 8.81502 42.0333
18.355 36.4621 62.1932
12.3456 2.20292 24.9685
15.3476 45.5312 141.808
28.6998 15.9234 26.7523
9.9688 10.8275 42.4534
10.732 17.8813 93.615
16.9634 8.35063 40.7202
14.9158 13.2053 32.951
8.28896 12.9424 19.0908
7.17943 9.65465 37.5537
11.5584 11.4344 37.9211
13.9794 23.2313 57.653
12.8713 7.67565 82.9017
19.7779 7.99555 7.088
13.9603 16.3609 101.259
19.0183 38.5167 56.1468
16.2522 41.4733 143.82
11.564 11.1158 47.9822
3.62945 24.4928 42.1416
15.6398 3.02751 15.7736
16.7011 27.9993 103.586
17.2524 36.0824 221.68
13.1518 24.2324 65.0029
2.89265 30.6863 66.5973
15.3287 29.8635 57.1345
11.8703 20.7339 95.3694
24.437 20.96 80.4197
18.1735 13.7601 49.5053
28.3443 29.4311 73.4383
4.08358 7.67851 19.2497
3.21422 9.27701 27.6059
11.357 2.66306 13.9039
11.4353 2.54813 8.25257
9.27816 19.8212 60.7343
5.08948 13.3347 24.4039
7.13928 33.3516 124.281
21.2488 9.18704 81.4163
20.0264 30.0626 49.5485
15.0928 3.93444 39.5661
11.8827 37.9564 169.191
32.5188 18.9793 71.7419
15.4421 15.8361 75.3323
15.2632 50.4538 95.6922
16.7334 3.26819 23.0188
10.1957 6.49236 13.0385
9.72386 9.26851 14.0278
9.26044 13.3923 59.5835
11.6748 32.6839 62.6555
12.5234 19.1032 86.3093
27.9065 31.4608 126.572
22.3017 17.591 66.3867
6.45084 19.341 55.8009
21.3592 4.0373 45.1779
22.3779 26.4042 114.901
23.8622 40.911 114.809
17.3228 9.80032 52.2285
10.9641 29.4059 52.651
5.06737 18.9225 60.6878
16.2059 9.27957 50.0814
18.9978 28.6067 96.7588
12.8065 6.66951 15.8902
10.5942 13.3217 54.5571
18.6081 13.4277 42.5049
6.41823 11.5928 71.9567
13.5534 16.4887 56.791
19.4527 12.0159 73.7903
14.568 22.8834 38.9477
11.655 1.52741 23.4891
14.6739 25.3896 163.927
29.913 23.6281 63.0014
19.4653 18.3261 60.3505
16.7853 19.8889 29.7171
12.2205 11.5616 73.9293
17.5163 12.7432 61.4025
17.5711 17.1238 30.0204
13.8491 7.85284 33.812
11.7911 15.6774 87.9797
20.6889 55.3564 119.787
7.61694 14.3066 93.288
28.5929 26.0352 94.9523
13.4448 25.1971 98.4
20.7118 34.299 189.939
30.3198 17.2898 90.5105
20.217 42.3556 55.2694
9.49034 13.1373 65.9119
9.97019 13.8398 56.5241
12.6856 9.58452 26.788
11.4571 36.3058 117.806
18.0786 14.328 12.8332
9.0339 16.0946 64.4106
10.6677 27.1991 126.846
28.3819 19.9792 41.8246
13.415 13.5965 67.325
6.05709 8.45388 51.5753
10.9057 18.1761 62.2281
10.433 21.4548 80.2871
24.6559 10.6442 39.2646
9.64395 7.69776 36.5788
10.7419 6.94916 93.3581
10.2874 35.2785 146.804
14.2783 26.4367 34.2756
10.6596 2.67483 27.9452
13.8641 11.0182 77.1949
15.4113 27.3621 69.9991
13.7709 19.7154 45.491
5.13827 12.1059 43.4984
8.94634 5.38802 62.3819
5.96719 27.7286 24.0852
10.4591 28.0843 141.758
26.1375 5.36794 26.128
12.6071 21.3888 64.207
12.5096 9.06363 31.4962
9.65508 23.177 131.375
16.4553 37.7486 145.286
27.2584 18.9 108.975
33.2296 25.2495 79.8143
21.8339 13.233 49.7714
23.081 42.7332 127.941
3.9761 25.9104 53.7604
5.56834 30.1028 112.945
25.8178 17.5012 67.7179
13.6804 8.20438 81.7519
19.5741 15.3138 31.8257
4.78194 7.29081 51.6782
16.3011 11.3411 21.0029
13.4036 4.77083 79.1104
27.2875 14.7088 23.7296
13.2903 38.2541 115.553
12.3213 27.4256 126.809
17.9204 18.1004 41.5513
11.2474 8.80578 34.192
8.14446 16.2418 137.817
31.1404 23.9966 29.5756
11.2432 13.5332 85.25
6.27452 28.5192 109.475
27.8881 10.7698 33.417
8.4306 21.4989 73.6724
17.7331 22.4027 61.5284
17.0777 26.8861 105.507
13.7735 14.5172 81.3109
17.6505 35.2754 83.6311
18.9285 19.1974 64.8547
4.73417 29.5578 57.384
13.7223 14.4761 113.88
25.3866 10.5023 30.3136
20.0234 18.5145 81.2663
5.83661 14.84 31.0081
11.516 10.5269 35.1612
13.0526 6.67719 65.3068
20.8642 12.1818 25.4425
13.8035 22.9091 97.0249
9.52683 12.7505 43.0114
13.9165 2.62186 32.9291
7.59009 8.98442 46.3318
17.7736 3.43864 67.3644
22.9527 26.2834 71.5675
16.4855 12.2433 31.7803
14.3192 42.111 112.799
17.9916 8.24332 18.0897
13.7085 11.33 116.439
31.1819 36.0669 33.7815
7.34371 19.8502 69.7836
8.23888 8.52151 145.437
13.1179 20.1596 26.7873
16.6202 16.9894 163.813
21.3352 43.0353 151.578
32.5469 33.9447 54.1288
5.38931 17.7802 45.5977
11.169 8.90364 38.9392
14.9161 19.3507 97.4852
17.0103 24.3847 32.5048
10.8326 5.82653 25.9054
13.2284 30.1225 61.5463
10.7904 18.7512 157.431
12.1899 30.6769 89.2127
18.2983 7.42207 59.933
20.235 19.7818 55.411
19.6506 27.2472 82.7894
21.3188 28.046 104.006
11.0726 27.972 78.9685
11.6929 22.4749 120.413
8.0408 14.2355 55.099
4.11088 38.3994 149.956
25.1299 11.5405 47.4268
12.0169 22.7736 49.9361
17.6026 17.3538 40.249
13.742 15.5699 47.0666
2.98339 20.7001 61.5924
8.45214 7.94526 70.7401
10.3955 5.63282 13.5021
10.5513 27.031 117.947
13.5358 11.2571 94.4758
18.1214 17.9635 34.1675
4.49172 12.8478 191.499
23.4187 54.0862 133.192
9.32108 16.4526 42.4224
6.29206 28.4497 104.7
21.9186 8.01982 88.218
16.4248 19.739 10.1065
8.92084 8.20884 59.4306
13.429 17.8967 59.4243
8.05299 15.3791 54.5922
17.8803 16.841 108.333
24.2999 42.5145 101.772
11.5116 5.02583 70.2775
18.878 12.4356 7.14154
7.66984 13.2735 180.655
18.7713 36.5166 37.1303
17.8426 18.0667 85.5087
8.56208 16.1494 11.4209
9.89867 20.7909 113.527
13.7919 14.363 67.2757
15.847 13.0297 46.7388
18.1391 22.3672 39.1586
15.1648 11.9289 64.7634
11.5604 6.25677 44.8902
11.8986 20.7301 48.7603
10.3819 18.8016 52.1658
10.3737 10.7936 57.975
15.2626 22.9491 100.187
16.0774 9.47008 73.058
4.40602 13.6322 37.3445
13.076 23.5345 101.694
27.642 21.7008 46.7591
5.56907 1.62942 17.3657
14.6569 13.3661 43.0972
4.19358 10.5047 46.2727
11.4361 11.2962 68.352
12.6213 13.6175 20.9321
10.3363 31.3047 119.117
10.9598 7.18575 29.9154
15.1774 11.9561 65.7369
13.3839 19.0613 45.6856
8.05138 7.2813 89.7502
5.27779 36.3097 46.2326
14.9814 18.1606 229.226
23.8131 32.2035 36.5993
12.083 23.2992 63.1197
17.201 7.37754 75.402
22.3494 12.7329 56.3477
14.0696 14.1605 95.7765
21.1281 52.9718 169.939
19.1942 12.7081 48.6552
8.01583 12.6533 45.9272
10.6909 10.6543 89.0348
16.5572 36.2483 35.2471
13.0516 31.3781 226.368
15.0232 41.8977 94.7199
17.7812 14.6575 62.8406
18.2033 20.8267 77.5393
18.316 9.26102 44.8881
20.6692 49.0701 143.591
16.2069 12.2055 62.5816
7.14034 15.264 66.076
10.2867 16.9727 70.0339
11.2314 16.5554 61.5249
15.5658 34.0012 137.574
14.5228 10.6086 18.7905
10.3106 9.74267 51.0078
13.4823 11.0913 22.2403
6.90786 13.7018 71.0096
10.153 38.5039 119.498
15.6475 11.5073 16.808
7.40327 12.411 105.31
9.46221 28.8178 72.9674
7.9944 12.5935 80.026
17.6583 21.9267 55.6136
18.4504 8.00007 12.1082
8.0101 23.1097 202.27
18.9616 25.4265 70.8228
13.8432 11.6371 25.4442
5.62136 27.0851 113.577
16.6617 18.8153 111.102
15.338 24.0901 44.4013
7.03699 8.58429 23.1089
14.0619 11.0707 82.4795
14.1872 28.8572 78.9148
3.99021 13.8979 105.28
12.7784 28.0078 247.283
27.3407 52.917 38.0143
10.8823 36.6979 266.267
22.1109 40.5877 34.3446
14.7331 1.51082 14.5118
11.6215 10.6093 66.4163
13.7574 5.72096 33.7145
10.7746 28.0582 178.999
33.5702 36.0278 101.315
24.2084 21.7061 70.8753
13.0653 17.4492 35.6804
6.34137 10.4909 36.6502
5.64389 29.5315 133.904
25.1722 12.49 45.6986
14.0613 9.46642 35.1934
16.3958 9.57784 29.3382
8.44019 12.5438 43.5064
7.69603 15.3719 109.765
22.2585 12.6257 49.1165
16.6196 20.9939 26.5586
5.76294 5.2411 81.3335
10.3686 64.3644 327.04
25.1274 23.5005 68.4367
12.8893 12.2822 26.0328
7.48457 32.128 134.303
9.99497 1.90811 68.9811
12.2247 12.547 18.8222
10.4048 17.7417 126.617
17.9123 27.9112 180.974
24.2693 42.8119 68.1286
3.88644 6.81686 41.3144
6.97109 24.9241 98.7323
8.96566 17.2627 32.6821
13.297 16.8955 71.8452
8.98136 28.6107 125.441
9.01705 35.363 92.8641
17.7221 8.88135 119.469
13.1385 26.2305 79.1788
13.1393 25.1253 53.148
15.1853 11.9763 43.9936
7.3005 12.1622 82.0847
5.42341 7.94245 71.1176
7.36525 28.2318 28.2452
8.07762 15.5434 34.6817
9.56654 15.4951 75.7819
12.9789 18.5271 50.2143
9.06561 12.6684 59.7518
17.6144 9.66432 70.0491
12.8261 28.3212 152.08
25.9011 27.6271 33.4724
3.7919 2.67733 61.8504
9.5881 35.3184 79.4793
9.16824 10.4171 69.5745
8.32229 15.7483 31.4735
9.2516 11.5296 81.7418
11.6579 13.5235 74.2409
14.4514 22.9763 33.4039
5.85053 7.85943 63.5212
18.8088 16.2938 41.8233
4.68887 10.3683 71.6615
15.092 25.1141 84.027
14.8608 6.90094 31.7769
12.0571 10.2086 7.42594
9.36128 27.6838 102.12
8.73952 6.48188 77.0821
13.1359 21.5065 62.8459
20.3423 12.6943 80.7643
18.0106 13.0115 57.5316
17.2947 38.2444 84.3567
6.27374 29.4241 148.06
16.8361 15.8933 124.54
11.7468 19.8194 23.5039
6.79967 31.1507 117.728
18.967 23.6435 54.1975
9.54747 26.8629 126.603
25.0175 11.6305 39.0934
8.4177 6.56735 95.077
15.9591 19.84 84.2977
11.6561 31.7639 97.9577
11.0305 11.8883 46.5246
12.3221 33.2778 156.862
3.8286 24.28 66.8116
4.74844 14.7483 112.193
12.6897 23.5647 60.2613
8.43005 22.7925 19.1326
12.1198 28.8814 160.605
27.637 19.315 88.389
15.9036 24.423 120.785
14.7791 12.826 39.8186
11.9744 6.05084 40.3948
13.1345 28.8664 97.1758
4.88459 0 0