# pn-170911/RbIIR-55-PTBB-1280-1959.psd
# Power spectrum* (dif=0,1,2) (really just |FT|^2)
# NOTE: only the first half! (symmetric)
# weeks: 1280-1959
# 4 clock-days, 0 excluded
# PSD: 1441
408.582 0.288197 0.0265968
21391.6 0.275689 0.0375193
163734 2.86162 0.0354491
10999.1 0.346892 0.0324985
31238.8 3.45502 0.0377051
5685.15 0.428804 0.0355072
2459.03 0.360602 0.0311589
2209.22 0.483901 0.0377292
2772.26 1.03898 0.0354372
809.935 0.364169 0.0328438
1577.99 0.611885 0.0376032
253.979 0.078918 0.0337453
729.099 0.613371 0.0381134
304.271 0.481585 0.0364549
1957.38 1.19476 0.034427
714.083 0.793537 0.0413636
719.588 0.61907 0.036522
294.536 0.326195 0.0283202
428.495 0.566073 0.0414238
290.469 0.534194 0.0372538
203.38 0.352922 0.0312579
248.95 0.688382 0.0308554
133.266 0.4293 0.0448261
251.148 0.601939 0.0262495
456.897 1.25825 0.0337154
267.161 0.610663 0.0295236
411.635 1.49587 0.0506957
297.78 0.952904 0.0319549
263.911 1.13521 0.0257926
176.817 0.640816 0.0361569
449.487 1.81677 0.0466491
450.875 1.69302 0.0369453
146.982 0.843604 0.0494764
162.573 0.872447 0.0455037
467.782 1.93997 0.0358504
535.532 2.55828 0.0350038
356.895 2.20073 0.0331449
153.282 0.80576 0.0267256
434.597 2.38137 0.0588583
234.311 1.33106 0.0579616
132.576 1.00558 0.0512934
329.462 2.56452 0.0660588
440.537 3.67992 0.0841844
649.234 4.48945 0.0608397
138.005 1.25421 0.0602535
255.119 1.91674 0.0375084
236.94 2.34195 0.0648069
318.218 4.47277 0.10779
220.087 2.43134 0.0423381
594.775 6.27789 0.112619
655.391 7.24325 0.161101
455.464 4.95006 0.148732
255.502 2.60087 0.0344715
539.999 6.81498 0.19221
383.258 4.35489 0.0573583
264.353 4.14532 0.0654399
201.504 2.71201 0.0898079
211.923 3.04236 0.121782
311.161 4.59894 0.0516011
87.3987 1.51601 0.0326416
275.631 4.34659 0.101074
259.006 4.2837 0.0537198
411.474 7.16248 0.13622
365.644 6.04671 0.150272
128.754 2.31055 0.103035
376.408 6.8967 0.11667
304.542 6.53328 0.199691
233.324 5.72489 0.204834
268.449 6.26172 0.119859
280.243 6.59746 0.224757
315.643 7.93779 0.208521
202.141 5.26887 0.152262
137.416 3.35592 0.076983
91.1183 1.98726 0.0882495
188.554 4.33804 0.119045
292.619 8.40734 0.227341
423.607 10.589 0.364031
103.977 3.4263 0.0912971
311.577 8.73202 0.389652
297.452 8.67926 0.173185
158.75 4.46974 0.175687
108.938 3.04581 0.0396143
192.668 4.98701 0.290078
546.714 16.7963 0.608962
238.767 9.06024 0.420136
165.208 5.27514 0.298227
170.782 5.65501 0.119112
200.046 5.81327 0.317593
219.524 6.88545 0.294445
52.8187 2.02756 0.0904646
29.2791 0.870247 0.0968249
172.378 7.1914 0.345411
280.338 10.8803 0.483667
44.0378 2.21296 0.0931881
345.711 14.0778 0.672412
57.444 2.87337 0.110655
350.082 17.8661 0.849099
174.59 6.61689 0.319772
133.62 6.37271 0.372729
90.5737 3.81501 0.173852
232.549 10.7497 0.378039
365.682 16.7171 0.901412
142.104 7.08796 0.435293
129.234 5.64951 0.391824
148.383 8.54471 0.414052
136.292 7.41997 0.327234
312.151 18.2217 1.05707
107.822 4.3743 0.217531
87.4987 4.65452 0.252303
311.795 17.7851 1.16022
160.491 7.768 0.62183
133.292 7.55405 0.380791
202.05 13.14 0.681955
80.1927 4.6182 0.448983
105.195 5.75476 0.435005
124.971 7.19422 0.515769
246.664 17.1625 0.922669
220.885 12.5993 0.822179
171.258 11.0567 0.646373
130.665 9.84081 0.77007
75.2405 5.93527 0.363292
91.1274 6.41709 0.549118
149.042 11.8129 0.765598
157.469 9.63287 0.63851
105.712 8.83333 0.826013
210.634 13.0371 0.956173
247.592 18.7734 1.73815
150.222 11.134 0.672111
89.343 7.40495 0.504055
239.312 19.5336 1.58487
203.655 15.9779 1.31806
167.525 15.8052 1.58753
340.988 27.1727 1.78542
129.26 9.08324 0.704815
278.895 23.6702 2.02594
170.75 13.5724 1.40013
87.6252 6.20739 0.453462
177.839 17.7001 1.75534
278.403 23.0686 1.96081
184.491 16.3754 1.54541
42.6937 4.1542 0.287258
63.1651 5.52485 0.422663
221.071 18.9714 1.92759
103.759 9.89477 1.07609
148.313 15.9679 1.99503
76.6436 7.86676 0.682512
347.502 35.1405 3.65784
90.4355 9.7114 0.764222
223.488 22.1885 2.20055
68.0715 7.38186 0.817722
161.397 17.2156 1.73531
91.4951 10.1781 1.33538
32.4818 3.56471 0.365494
132.816 14.0335 1.6955
103.667 10.9296 1.36462
32.7728 4.48262 0.717907
165.543 18.584 2.45449
112.569 12.9388 1.46172
75.8262 9.61851 1.34491
133.121 18.475 2.25142
288.001 31.7868 3.87477
47.3702 6.3437 0.885106
52.2804 6.41166 0.688487
211.66 26.2306 3.22427
25.2258 2.86584 0.279374
95.0157 14.5652 1.93995
107.352 12.8725 1.35731
96.8204 11.9772 1.59701
154.62 19.2419 2.52472
74.4842 9.87112 1.63238
123.603 18.0893 2.59256
36.5951 5.56127 1.047
82.1073 11.3746 1.30486
80.2106 12.7524 1.86344
70.4707 12.3387 2.12537
170.083 23.3509 2.86231
39.8513 6.93527 1.07762
104.867 15.2786 2.32964
107.24 14.8909 2.1828
97.8198 15.6247 2.35324
99.6227 12.8153 1.87727
71.1703 10.6032 2.0096
208.028 33.8033 4.90809
36.3343 6.10755 0.8662
103.126 18.004 3.35807
45.9099 8.13614 1.78915
106.9 13.393 1.83682
119.736 21.2936 3.48908
107.373 18.4616 3.0026
62.0553 12.148 2.57042
204.208 35.385 6.45625
214.2 34.1227 6.03549
209.12 35.5419 6.38562
59.6877 9.79782 2.06678
56.1958 9.72047 1.77327
73.5737 12.2364 1.60651
39.0445 5.84861 1.09291
81.8757 13.9856 2.58334
66.6688 12.6179 2.4446
73.4051 15.5435 2.90802
157.032 28.0602 5.06151
80.3504 18.8705 4.44071
46.4315 8.01202 1.31377
120.915 22.0215 4.66499
80.8013 18.5463 4.76285
122.706 19.6115 3.33259
102.92 17.8625 2.63181
62.4462 13.1336 2.82918
217.923 42.4557 8.72389
16.9541 3.82603 1.13297
72.0123 16.8129 4.08191
25.5108 4.49974 0.860978
109.988 22.4823 4.68583
126.404 26.0879 5.57185
150.031 33.2717 6.47304
32.7469 7.76245 1.91713
53.4189 11.0013 1.82132
162.119 36.8644 8.23176
98.7639 25.348 6.84455
90.9636 16.4636 2.70488
131.903 26.7778 5.63321
93.9703 23.2824 5.60985
42.2781 10.5086 2.9679
67.8325 17.3744 4.16139
82.5218 21.1288 5.35281
122.7 25.7565 4.64589
35.9059 9.5821 2.49966
131.237 29.7285 6.02845
77.4659 17.7141 4.77244
93.6701 18.871 3.39886
108.893 28.3734 6.84922
60.02 13.581 3.40469
174.594 45.88 10.5371
139.185 38.6961 10.2854
79.4384 24.8437 7.14486
137.941 33.8428 8.82493
47.3827 14.9469 5.27783
167.994 43.6791 11.1186
17.2162 5.10972 1.77132
50.9997 14.3559 3.91004
31.1933 10.194 3.31826
63.7913 15.6889 3.63234
108.619 32.0138 8.9673
84.1548 23.5424 6.72169
95.7963 31.4113 9.96081
94.3279 17.5856 3.45771
103.681 30.4151 7.99318
70.2765 20.9161 6.51855
41.8165 16.6783 5.651
25.1045 9.69311 3.76568
150.57 40.1963 11.1206
120.122 32.5594 8.62089
57.6178 19.2622 6.62065
18.7658 6.06888 2.09848
80.4507 21.0783 4.95525
80.836 26.5097 8.69873
53.1977 15.4982 3.88775
38.9817 14.3025 4.62096
37.7829 16.7573 6.62172
102.663 25.8542 7.53006
100.378 32.3256 9.31733
56.0605 20.2926 6.29666
18.2722 8.31387 4.29711
87.053 25.9026 8.01259
28.0979 10.73 4.31364
107.155 31.4264 8.9623
63.6332 23.1061 9.12233
145.908 41.9451 11.7775
46.684 17.1124 6.52284
70.684 22.9249 6.8875
66.9346 25.4197 9.0376
60.1707 20.233 7.38017
41.8499 12.3529 4.22132
73.2369 23.9137 7.98823
124.653 39.8035 12.8586
71.1629 29.1374 11.6086
66.7453 21.8185 8.44076
42.4566 14.5009 5.71292
85.7061 33.5297 12.3087
98.6157 31.7401 8.54855
69.1857 30.0268 10.8372
12.653 4.47323 2.12199
39.9567 12.8691 4.93943
80.4374 31.1966 10.6063
60.9678 20.3033 7.18822
77.0082 30.1358 11.436
35.3749 15.2777 6.55464
73.0221 26.3346 10.9546
67.9086 27.1412 10.208
45.6349 19.8483 8.18337
32.6471 17.7207 9.79556
35.2813 12.0306 5.31161
53.1827 19.4943 7.65294
22.3794 5.79959 1.53253
58.4099 27.0117 10.8561
77.8053 30.0808 11.7366
28.9176 7.58151 2.83251
49.8213 19.7952 7.09107
64.4917 32.5408 14.8815
32.3597 19.6978 11.5259
64.654 18.5585 6.0576
37.4581 19.6957 8.97433
47.1844 16.0171 5.49263
84.1385 34.8595 14.6843
17.3298 7.88571 4.76221
74.9723 29.0538 10.6332
75.4804 34.5138 16.9453
128.29 53.3629 21.4287
66.8125 22.9295 9.85261
58.7887 22.835 8.5217
62.8339 24.2487 8.63918
124.498 55.7449 23.7826
63.7773 31.757 14.2679
23.7428 12.7119 7.73948
54.1709 28.7246 15.1623
108.801 41.5139 15.0135
50.2313 20.3852 8.11848
43.5084 17.9232 7.68406
29.2696 15.7112 9.04636
64.8687 33.4776 15.5478
30.479 11.8749 4.86584
68.0421 40.4736 22.87
57.1635 25.5379 13.5915
76.0653 31.3305 12.9305
61.5259 30.2292 15.0471
90.5216 40.6596 18.1708
24.1414 13.9366 8.83982
49.4027 26.9822 14.3957
40.0117 17.7017 9.36653
46.5713 20.3933 9.34307
44.7186 20.5384 9.76486
66.107 27.3229 9.50994
107.764 58.1643 28.1733
35.1136 19.8607 10.1615
21.2401 15.1807 10.3669
103.632 54.8885 27.3196
37.6172 16.3377 8.16193
52.9587 19.9742 6.88815
56.7393 34.2478 19.5488
22.019 9.54047 5.33047
59.5717 31.5559 17.0116
46.4941 29.3514 19.5418
73.2223 35.6946 15.0965
22.5356 13.6066 7.55926
74.2047 42.6255 24.1478
24.1637 11.2639 5.69927
26.2944 16.7247 9.70477
28.8985 20.3179 14.2919
92.1449 45.39 22.8419
48.9544 30.6049 18.5075
30.1853 22.3288 18.5341
33.6401 15.5602 8.62365
57.2703 29.9684 13.7238
37.9663 26.1083 18.1678
37.8669 18.4387 10.1977
46.0954 29.0791 19.629
86.8575 46.7542 26.1993
67.5451 31.0962 14.384
20.2479 13.8682 9.51501
23.8679 17.7966 14.7724
45.813 21.2009 9.84313
50.5101 30.5343 18.7466
29.6456 17.9899 9.65115
21.5105 18.3739 16.5802
50.8931 25.5084 13.9611
73.9439 41.2283 22.3324
43.8856 24.5274 15.8526
46.9057 24.0801 11.6036
39.3333 21.2257 11.5348
65.1781 42.3918 23.6148
24.6466 17.8667 13.048
50.476 27.6252 16.9612
72.3872 43.3354 23.7298
9.29025 3.25242 1.27324
28.0203 19.6021 11.8336
16.6225 13.9696 13.0705
44.7323 23.7792 15.6519
78.6013 48.6487 27.5559
18.3906 9.06639 5.19732
6.25334 2.139 1.35012
20.3455 13.8255 9.09966
12.8997 5.08335 2.50189
32.3409 17.1157 8.18483
50.1427 35.9987 25.1745
83.802 48.8559 26.9673
77.4275 52.9937 35.3088
50.0157 40.6801 33.2561
77.9301 51.524 33.5235
24.4617 12.1631 7.46733
48.9582 32.8004 21.8977
5.69727 3.35847 2.7316
23.5537 16.3626 11.7058
37.472 24.0025 12.8519
19.8143 23.5875 25.0703
76.9876 48.2061 29.959
37.2221 27.6504 21.7601
46.3001 31.8052 20.1019
65.6214 43.2222 29.3264
96.5423 72.4822 47.4791
37.6797 20.8743 13.7796
54.3958 45.7925 35.9627
29.5162 17.5095 12.5467
115.185 87.8502 58.7221
61.855 44.3134 33.5028
58.9819 47.5837 34.4934
87.0774 69.5138 54.0644
18.6338 8.23857 5.20479
19.9586 17.8757 15.436
27.1753 20.1878 14.8891
48.5513 34.1468 24.0607
62.2685 48.4925 35.1479
26.6318 27.9216 27.9947
50.2788 34.8074 25.4003
28.0032 17.1385 13.0574
40.568 26.5723 17.4609
52.054 44.1848 39.7646
53.3675 31.702 18.2154
37.052 31.8382 23.0301
18.141 18.2738 17.2679
32.7201 24.0779 19.5546
18.0337 16.359 15.1428
47.6583 41.0618 31.7669
43.4954 36.708 33.0662
44.2379 27.5235 20.8291
40.1834 28.8218 20.7729
27.2549 20.4318 16.4018
51.524 37.7671 23.8971
6.60684 12.0882 18.0004
66.8265 48.2135 31.7265
6.78182 5.03585 6.04102
13.4657 11.2724 9.44482
30.5499 21.0741 12.5446
26.6679 23.1776 17.765
22.4134 16.1719 12.4369
44.5604 43.0376 42.8242
56.0646 37.2729 23.8744
39.6666 37.4017 31.6837
43.865 34.1323 24.1086
44.1919 35.9523 21.7969
58.8361 65.937 57.0425
35.9902 34.0509 29.4899
29.378 33.2196 32.5414
45.3682 49.0745 48.2708
28.4775 26.805 28.4674
34.6693 24.1363 19.3262
26.2958 26.8233 27.5491
14.6695 15.8101 20.5055
55.6995 47.1501 35.8791
5.08181 9.674 17.8039
40.9966 43.9073 46.23
37.9652 26.524 26.5583
55.1042 50.1979 45.9562
46.073 24.2465 11.1966
26.1124 25.6156 25.4428
38.9195 36.6773 32.5865
15.0783 10.7288 16.808
65.8739 41.6977 25.3339
25.7919 18.1682 15.383
59.5472 50.187 38.3666
66.4738 56.9853 43.6524
18.8109 24.4443 31.0373
43.2507 31.6594 21.061
39.0095 40.6427 36.8472
13.1939 10.0188 10.4548
17.9113 19.4813 21.1012
31.4672 30.6872 27.3037
17.302 12.3878 9.22276
42.8513 43.3836 37.0343
26.4037 23.6156 19.4777
7.64417 11.8109 14.1373
28.3202 26.5513 23.223
14.5039 15.2306 15.9861
14.8068 18.035 19.0191
25.1411 32.6572 37.9696
11.8838 15.7119 27.9534
54.3399 38.1372 25.9883
34.1729 31.4705 22.6933
3.95222 7.05132 11.8242
47.9974 43.1433 34.5112
47.918 61.9387 71.8247
41.8867 41.9009 45.7744
29.1304 23.8792 18.8687
15.3125 15.5869 17.574
18.1405 13.6787 14.4586
48.8129 56.2111 54.7652
53.273 55.2906 56.2698
26.5959 26.5628 27.8617
21.5051 30.2649 40.1985
26.6209 14.7913 10.1184
34.5551 31.6348 28.3723
29.7123 30.5534 31.7253
31.1399 31.5713 29.4092
15.0231 19.1812 22.5819
7.31035 8.34583 12.5427
36.0445 36.8863 34.2459
5.21108 2.47995 0.913545
9.10473 12.2733 15.5691
12.3382 16.4786 23.2605
25.8241 22.4251 19.3119
16.2595 14.8404 10.8886
5.259 6.85016 7.99459
20.9581 21.3553 21.132
8.53895 12.0879 15.1466
14.0371 19.5447 27.0031
22.1067 19.7978 14.2245
11.9058 20.1915 29.8546
37.0374 41.7801 47.4056
34.6787 36.5558 35.377
10.509 5.39894 3.64697
23.9334 33.7693 42.7794
30.2047 29.659 31.1289
25.8525 33.0523 44.5508
60.425 59.06 50.7624
24.0302 26.915 26.9893
29.6085 32.8418 29.4101
11.265 24.0365 40.2176
27.8433 22.9486 20.9266
38.2249 37.8951 35.9553
33.2096 39.8238 35.3108
25.9154 41.5956 53.8842
8.08959 6.89648 10.1988
30.9494 50.8335 65.2385
17.2264 13.6881 15.7634
16.1455 21.0971 25.1953
18.26 34.5104 58.1055
19.0181 7.5969 10.2142
34.946 40.3268 44.1448
30.2938 33.8656 50.227
52.3875 45.3064 35.8879
52.152 56.9966 52.0765
34.3124 52.4885 65.2458
27.081 37.5799 56.2192
28.054 27.9445 25.9756
16.9686 20.9339 22.285
10.1541 16.0717 25.0787
30.7403 36.9389 43.5949
19.966 28.6415 42.0979
27.3239 24.6997 21.8865
10.8016 16.0421 29.2498
56.9422 62.5352 57.4229
23.207 36.2257 49.5064
10.9439 8.29498 8.1848
22.4802 33.7585 43.0731
22.6645 31.3234 40.1046
15.1186 26.2845 44.5526
32.592 34.4527 35.5333
12.0131 14.4054 23.2924
30.8789 36.9925 35.8034
15.4447 23.285 28.4377
15.8633 26.4964 40.0617
26.9368 36.3901 48.9202
13.5107 12.6972 17.2567
25.0903 38.6506 53.9752
25.2971 24.5323 24.4096
8.8648 10.7341 14.1404
11.0862 13.5375 13.645
10.9023 22.1596 32.1562
18.1276 32.3226 56.3444
33.6212 33.6571 35.4221
21.0977 28.6349 38.6026
15.6433 17.8593 22.6663
13.2712 18.9739 27.3047
10.3683 18.8246 40.4337
27.4481 27.3811 28.9538
17.1959 18.7145 20.0446
14.8035 27.1147 47.706
25.3016 23.6065 17.9819
13.5872 16.354 13.357
10.8551 17.4075 19.0731
4.58318 11.2355 23.022
21.6132 28.7236 33.2649
21.4805 32.6383 37.1473
8.92539 20.5459 36.3574
12.0525 17.0335 29.0292
25.2754 38.8094 54.1988
20.7424 35.5511 64.8131
42.3541 44.0032 46.5839
19.8242 31.3062 49.1592
28.946 33.582 37.8156
19.8406 28.2137 39.2606
9.68445 16.7197 38.8212
35.708 46.3082 71.7634
39.4289 40.6734 32.9262
10.0612 19.0752 29.1302
13.7993 17.6653 22.6136
26.968 43.7048 54.071
8.33304 10.0715 14.7154
13.792 24.2762 42.2535
45.3779 69.6993 87.9235
21.9133 41.8804 77.8297
15.6935 13.8484 19.5304
10.5199 12.8689 23.5143
19.7651 26.3362 37.5785
42.5722 71.8581 104.742
23.2371 25.1201 26.3863
12.1298 18.8528 29.707
19.8717 35.7751 49.6708
2.53754 3.15491 16.2483
10.2575 9.33575 15.7974
17.4702 21.9372 25.1077
6.51812 10.0866 16.9463
10.1619 10.3767 14.6056
20.7195 34.0356 42.8479
8.51037 17.7716 38.3101
23.3524 35.6744 52.6812
16.3534 24.1004 35.8712
12.0701 18.8978 34.6557
23.4313 39.0196 58.1776
15.7155 20.7548 42.132
28.7902 32.1715 28.7832
8.08674 19.1173 35.5002
16.2594 24.3608 40.4783
26.0856 43.7408 62.1485
30.9662 65.2019 119.456
34.868 43.1185 63.8118
19.3169 14.2171 14.3004
27.8042 40.2507 51.7284
21.5518 38.7611 63.4231
31.3738 58.4371 103.9
18.2037 14.1364 12.744
8.04752 18.3217 40.1074
15.8878 13.6257 12.4666
11.9806 19.5137 28.6628
14.9523 26.1446 40.8507
16.8927 27.3968 48.9939
22.5377 30.1082 37.2553
6.69982 5.54143 5.13434
12.6431 23.9445 38.5746
8.71649 19.6028 48.3689
23.5055 28.3492 36.5052
16.0414 19.679 18.463
23.385 48.702 68.7265
5.5931 19.975 55.1002
6.29998 3.15653 8.6026
5.66664 10.4334 36.861
23.7044 24.7148 13.8837
8.09992 21.9155 39.8263
18.444 33.9989 51.6189
9.40658 14.253 28.4296
13.491 18.9453 26.3203
14.4907 30.0537 55.6427
9.5878 10.608 26.787
24.6698 33.3973 48.1513
32.2105 48.687 51.4874
14.708 39.6432 74.7497
16.8311 27.5697 52.115
9.66395 10.6464 16.708
10.3965 24.7516 56.4482
16.7904 21.5372 32.5882
20.7312 36.1333 47.9278
5.25777 7.00278 15.6399
21.8044 46.7938 84.6616
18.8377 38.0884 76.3525
32.1607 52.4156 80.2773
23.2388 49.1127 99.7972
11.3571 6.25513 23.2153
18.8872 19.7276 17.7529
15.1276 29.3137 48.9504
8.46077 10.7616 22.0515
20.4749 31.8594 42.6902
7.41961 11.1467 15.9768
7.31704 13.4679 17.802
10.2208 25.0316 52.6382
10.1401 17.827 33.9981
9.56678 12.8309 24.9119
22.0523 49.6095 87.3142
15.8544 19.2306 36.4523
24.8632 43.6299 64.1849
12.5185 21.227 31.9387
4.70103 17.1079 65.5749
31.9286 46.9467 55.8431
16.7567 37.4167 66.4057
7.87807 21.4974 69.0956
23.0709 22.6565 20.8415
15.9077 34.2432 67.4647
20.1502 35.8047 76.6966
33.2178 55.6065 65.9862
7.63008 20.4249 39.0314
13.089 36.2438 95.738
28.0241 33.9495 39.3993
4.46193 5.88464 16.1309
10.9817 18.9917 33.0938
13.6577 24.4184 34.7255
11.8465 25.3344 46.8844
11.6734 27.0492 53.5011
11.4346 24.8663 61.9671
12.1966 13.3724 20.1944
4.40796 5.53741 18.9837
11.8194 13.8426 10.5385
9.24449 22.1985 46.3293
17.635 32.6517 49.892
5.5322 13.2034 38.1309
14.4361 29.8043 54.4268
7.3641 7.26072 15.9962
10.1775 16.5234 22.0055
9.28224 17.4924 26.1374
6.05728 16.3649 31.3933
10.644 26.5646 49.5949
6.04459 16.4436 43.1783
2.8084 3.09294 21.6155
14.1786 30.6961 67.4305
15.0947 21.1643 39.0595
21.651 51.1826 101.877
24.0741 46.211 92.8395
14.7666 12.9875 11.9062
7.96268 24.8228 67.3151
19.4338 29.2513 59.2735
13.5655 16.3017 15.7095
10.5878 32.918 85.822
28.2172 43.8552 67.6806
31.9949 70.6407 121.13
23.6433 39.1021 76.729
29.8631 59.9721 87.2035
13.761 32.7597 67.116
11.1387 16.4584 26.8353
13.0307 30.4383 56.2986
11.0785 22.1612 37.1549
12.5995 43.3446 115.214
17.5445 26.7428 56.0418
12.0155 18.651 35.0373
9.22802 22.8452 62.881
16.7851 28.3936 45.3999
9.22062 16.5411 26.8817
12.4399 44.4325 122.698
28.0929 42.2811 73.8844
19.864 29.8738 46.7325
15.091 30.8166 59.795
11.0165 17.0151 26.0605
17.4137 49.1923 108.908
11.2974 11.6852 21.2167
7.81287 13.4722 27.3668
12.9382 25.1121 33.1053
6.22881 15.7171 30.7079
7.77863 16.2646 27.3834
11.966 34.6844 81.1009
12.9828 20.9971 34.34
5.89477 17.842 44.7329
7.31573 13.9929 35.6241
7.24315 14.4756 27.9636
6.96274 24.2477 74.369
16.5759 24.9683 34.4844
5.95302 14.6221 35.5658
8.55697 12.8943 16.0985
2.97777 9.85804 22.9499
5.85689 20.3214 61.462
21.3176 42.2251 75.6558
12.5705 26.4636 52.9214
6.39477 9.59007 26.6234
8.08104 14.878 27.8841
8.75411 16.0245 22.8596
1.99438 6.20028 13.7558
4.40712 11.7994 28.3863
4.90577 7.29048 7.30279
2.90356 11.2681 27.2677
5.25731 14.6999 36.0372
4.34625 8.07164 28.9379
13.7621 38.9949 81.2929
7.88164 10.7008 32.9906
11.9044 30.5466 78.7993
12.6619 14.5377 17.2071
6.3554 15.1531 39.197
6.74291 11.1804 29.5368
12.6102 28.3073 60.6101
10.1642 18.6599 37.0284
8.30385 14.1599 15.4289
5.81989 27.7211 87.832
14.7908 24.3084 45.549
7.7628 13.08 17.7044
2.45942 9.23399 31.6615
10.7197 25.3678 61.9204
13.1069 26.5983 35.5505
1.25115 7.69264 51.682
15.8169 22.3733 19.0478
5.31463 12.9239 24.3667
12.1582 36.528 69.8543
4.73215 6.3094 17.2746
9.00854 20.3861 37.1828
9.91826 24.4541 34.1146
4.88508 20.6769 44.1384
5.06923 22.1288 59.7211
4.75048 13.0024 47.0913
10.0955 39.615 122.734
14.2158 15.9426 54.2421
19.1254 49.0427 135.535
21.0783 27.9399 45.6411
7.68353 22.312 101.961
33.8722 62.7189 94.3355
12.1261 19.9958 25.3935
5.91397 12.8305 23.1326
2.7158 5.30847 7.44698
2.87117 11.6001 32.9993
4.58565 9.46471 25.2597
5.03572 7.31811 42.6454
19.9813 38.6988 39.5332
3.06404 11.9776 36.2769
9.28753 15.6291 15.7003
6.50456 24.3995 50.8328
5.42194 19.2915 67.2813
15.4373 39.8757 104.465
18.0177 30.2435 38.184
7.19436 23.3782 59.5112
13.9515 31.945 58.0131
10.8312 43.6954 109.623
5.43894 5.47364 43.8414
18.5853 47.0841 85.8572
9.81744 21.118 39.0163
2.7747 9.43827 33.1773
3.792 12.4686 52.9811
10.7616 20.7373 46.949
7.65721 18.5457 39.2687
5.81403 19.7423 64.5372
13.3054 27.5233 59.1516
6.3754 16.8227 53.0241
9.45619 19.2549 50.0026
13.3425 28.4351 43.8333
3.59321 11.0144 37.7329
5.59052 7.77709 21.8632
7.33183 18.7654 32.0791
4.50784 11.061 24.8878
1.8752 3.76497 24.4805
12.6419 38.3586 87.1913
8.96046 18.3997 50.3576
10.4041 21.2115 47.5788
6.87062 19.3279 54.0276
12.4317 26.6751 45.3174
4.15872 14.1897 54.1706
10.131 16.426 35.3181
9.39657 27.3529 54.4225
5.62277 11.6024 30.5151
4.88177 18.6363 56.976
6.67548 10.2183 25.9645
5.12443 7.94246 16.5615
3.45975 13.2589 53.4892
13.1759 24.2231 32.7555
2.21251 8.2957 39.4976
14.6414 38.738 74.9075
9.90279 29.1057 73.8702
13.9694 36.5774 76.6173
5.5196 22.3418 91.8923
13.6056 21.1529 30.6638
4.03728 7.08125 15.0407
2.84457 11.0816 33.8657
6.66745 14.4005 35.7733
6.35782 18.3603 41.7731
4.91314 12.631 41.894
7.26115 16.4772 28.7307
3.35756 14.2694 50.8021
6.6206 9.90104 26.8847
9.76153 26.0719 37.8732
4.24743 32.3183 133.251
15.7672 18.0396 22.1832
6.42266 18.9849 42.5707
5.05517 10.8053 27.5982
3.89645 10.618 35.0655
5.79236 15.2538 33.0759
5.81241 15.925 33.1434
4.29821 14.5528 36.8193
3.76547 12.03 41.0627
7.70336 23.706 64.022
5.0467 9.52421 42.5716
7.38861 13.8231 48.3992
13.3048 30.8454 46.3069
2.90264 9.66179 46.7831
9.3956 26.1281 73.8661
11.9097 23.3337 39.0755
3.57714 9.02828 31.0809
7.03466 16.302 21.7494
3.79029 15.4223 35.9718
4.25218 25.2176 91.4289
11.5515 20.3489 45.9737
4.56554 9.26822 28.7076
7.99451 26.9809 62.7211
3.27244 6.03549 35.7307
5.88626 12.535 42.0831
9.76439 24.8105 43.751
2.74487 10.5686 47.4606
8.2528 22.1001 56.9981
5.16303 11.9375 39.213
5.78793 10.0727 20.7222
4.0147 12.0944 37.9375
9.21696 24.1387 34.6089
2.20578 8.33792 33.3092
8.52583 29.5507 63.5032
4.89254 9.59717 21.2351
4.01918 20.4803 59.9182
5.70901 13.1497 35.0513
6.87188 26.4586 59.0338
3.63105 16.1637 69.1785
6.56687 13.4898 62.4358
8.8076 18.9883 65.4599
10.6802 22.6068 50.7902
4.02737 9.49591 49.808
7.68676 10.9265 20.5515
4.10357 14.7089 62.0312
8.69588 14.2732 24.3284
6.77025 20.1445 48.0734
6.4117 14.6713 27.5647
2.86692 8.66043 34.3876
8.27672 26.3801 56.8215
3.68315 10.4993 37.6111
3.91654 8.07759 29.4428
5.81644 16.7757 42.1318
4.21714 11.9149 46.8793
8.38919 19.1516 26.2279
2.0904 12.3021 58.1063
6.1352 14.4574 56.3417
7.9406 10.8685 27.6983
8.29253 19.1152 27.7851
6.01433 24.5758 66.5066
8.92451 24.4014 56.9569
5.91313 27.6942 102.721
11.5106 18.0053 34.9286
5.72512 15.3137 37.2122
9.92194 37.7922 77.4386
2.8777 7.72973 32.9551
2.34083 8.85328 60.547
8.974 18.189 66.0032
11.2572 25.2597 44.0174
6.54931 16.7014 41.3637
8.05085 29.7221 68.0673
5.30386 17.3794 59.6354
9.0329 29.9969 112.179
16.7674 43.6273 83.479
6.16269 15.4967 49.6577
6.06566 18.4928 57.0639
5.89864 12.2235 33.5829
5.57737 15.092 29.8558
3.92399 19.1408 55.1635
4.48439 15.9827 59.9386
5.89959 9.93396 16.3735
2.53636 16.2428 62.7678
6.42773 15.3518 49.904
5.60872 6.84173 12.5696
5.10904 19.4866 46.8954
4.21273 11 27.4489
3.49476 11.9534 20.6811
1.53127 11.1217 63.3256
10.2265 32.1088 93.8666
10.7192 25.3071 40.0254
3.26442 13.0544 40.2602
4.08764 16.7283 59.586
4.48576 3.62151 23.8133
9.03084 42.9216 131.108
10.0649 17.2795 60.9246
9.37176 24.8137 64.2993
6.56069 12.7039 24.4948
4.53335 19.3671 60.0245
8.66403 31.8844 80.498
8.33484 33.9521 100.919
6.63305 6.50486 25.5202
8.5859 45.3393 138.498
8.64004 14.6647 83.4349
14.7952 44.5774 111.273
12.6191 47.7317 122.693
4.67837 13.6931 131.141
17.5798 23.1162 16.4521
6.73529 31.4783 59.6329
1.67846 9.19993 78.8975
10.58 18.3089 40.6793
6.81533 19.4531 31.1178
1.87787 8.76187 42.1654
5.79998 14.3452 9.72546
1.06646 10.5828 24.7523
2.78593 21.6081 104.878
8.49138 17.8613 62.0702
5.63257 11.9489 53.9585
7.52151 17.7944 30.684
5.34009 25.7123 81.3969
8.03105 17.9755 36.927
5.03855 18.4514 57.1204
4.67531 12.6685 42.5857
6.70798 25.5226 58.4832
5.80444 23.1451 76.7889
6.36059 11.3161 31.5694
3.91103 9.84861 21.4335
2.25985 11.0924 60.0944
8.5568 20.1374 37.5759
4.34596 16.3746 31.0484
3.22238 23.7596 98.2246
7.24002 11.9543 37.1301
6.06363 17.1404 24.5362
0.900678 5.97515 27.696
3.26356 14.8729 49.0196
4.17288 12.0653 53.6879
5.97146 22.0714 76.0212
7.2019 13.0623 32.7795
3.57808 7.80929 18.0248
2.5118 15.3911 84.4915
10.2697 25.3083 95.7512
11.5303 23.6712 42.5988
5.26299 13.3569 12.0012
3.55402 24.1739 62.3479
2.9363 5.79615 22.0018
1.81931 5.64637 17.9931
2.16381 11.0231 62.3786
5.8603 9.50039 19.2323
4.88717 26.9507 95.8219
7.74735 11.3252 22.9767
4.93366 19.9749 51.4358
5.13129 16.4119 47.8138
4.7145 16.1825 38.8812
1.88051 6.23801 46.3082
5.32257 12.8619 31.3901
4.09227 15.4454 60.7752
7.58458 26.8252 60.6231
5.66383 20.5642 43.9363
3.26202 13.724 36.4155
1.44079 3.61 42.2063
6.17357 17.327 26.7323
2.52223 15.919 75.1557
7.46948 28.4985 73.1176
5.81536 14.6826 42.1307
2.49266 8.9564 68.8096
7.68364 13.5102 18.3921
4.14131 27.5001 69.0116
2.61273 6.91965 40.5031
3.85593 4.91124 13.5329
2.32129 9.89672 33.5868
4.58348 28.358 115.27
7.34652 9.79264 50.7534
5.75717 11.3805 39.5613
6.13938 22.791 94.7023
11.2067 28.3703 36.354
3.00391 21.9345 82.0907
4.83404 7.72577 34.0871
4.19331 13.6861 50.6259
4.99166 10.551 26.0844
2.51308 9.32209 44.6357
6.30909 20.0703 33.8408
3.28996 16.4457 49.6526
3.3732 15.0427 72.2773
6.48486 11.645 48.5864
8.91537 35.7049 65.5434
5.07665 25.2174 75.3454
5.18655 14.7587 40.3814
2.08325 8.29284 42.7509
3.19526 10.7216 73.3844
7.35945 13.7979 17.3539
1.60842 10.6493 33.7862
2.56578 10.0897 42.3229
4.36813 8.90033 26.7124
3.20904 17.2508 73.0233
8.69936 31.7335 111.259
7.74889 15.2784 22.5315
3.02944 20.8179 81.7354
5.63187 10.7806 44.6296
5.40834 22.5857 69.954
5.91023 18.2594 76.4306
7.01429 17.3203 50.8262
7.81908 30.1502 81.0971
9.39103 47.6975 123.972
8.23511 37.0842 138.286
11.5098 32.9754 102.711
7.7794 26.6549 92.4116
7.32457 17.4892 75.3202
5.8613 7.00032 14.4655
2.3322 14.0717 62.6068
6.96271 23.4734 72.6635
5.65497 11.1434 32.59
4.19575 15.3702 54.2353
4.84146 16.552 47.181
2.95539 8.98441 46.1874
5.35043 12.1185 22.5303
4.50325 26.8326 58.4315
1.31377 10.1012 121.538
12.5707 27.9967 40.9574
3.76974 23.3017 112.119
10.2829 21.5637 29.6385
2.27512 8.93723 19.3903
1.09375 9.06692 53.8342
4.26343 9.52803 29.3051
3.02182 13.2065 46.5568
4.61885 19.208 75.67
5.56393 9.14144 10.777
1.66812 12.7822 35.0661
2.40941 12.4677 62.6152
4.11822 4.27807 30.6517
4.34683 10.4787 11.9636
1.4676 8.80427 25.0064
1.65363 9.46806 35.2295
2.77606 9.54209 47.6523
4.05932 6.35797 14.8411
1.4411 5.54745 34.9133
4.30971 14.2801 26.6117
0.995018 7.02128 42.6785
4.38403 18.3982 47.5864
2.04561 8.21191 79.5197
6.74532 12.8715 27.9827
3.29744 14.4764 53.4657
4.81129 11.9937 38.215
3.37272 9.24185 31.7585
1.89911 3.58946 26.5408
4.25681 19.2178 37.2866
2.4725 9.61623 57.8113
5.80873 21.6154 61.5309
5.01095 19.7324 72.0188
5.00991 8.8207 28.0071
3.31466 13.6507 42.738
3.26154 11.6383 45.2969
3.50236 9.63106 45.3038
4.73945 11.7123 15.4403
1.59129 9.59827 24.2835
1.99041 10.8138 52.3929
4.13491 12.0014 31.0755
2.0891 5.06636 16.145
0.996372 3.36258 42.6406
4.80966 17.5777 36.5058
3.37344 10.9683 24.723
2.05563 11.9973 36.5191
1.82619 1.84082 26.0428
4.07148 18.2339 43.1298
2.73082 14.4756 48.1479
3.4492 11.6636 41.2413
2.74729 4.02298 31.6618
3.42934 11.9566 46.3239
4.50055 13.9694 24.7014
1.92225 7.0864 12.598
0.619603 6.48633 36.3604
3.47883 13.4045 49.6857
4.05637 10.4949 14.8946
0.854739 6.6913 36.2219
2.91741 8.33729 34.7126
2.93006 12.8276 49.9968
4.62966 21.4584 56.0613
2.48178 3.60283 39.6425
3.7436 12.8963 35.6928
2.77225 4.59623 24.7567
2.69585 11.0851 35.5309
2.7925 4.6149 19.6461
2.85576 18.0878 48.2165
3.61203 10.5456 31.9062
2.46825 7.51221 24.3437
2.28751 8.73539 27.995
2.22478 11.4881 59.2312
6.05716 20.5536 31.7011
1.55374 16.6013 85.0931
6.11896 16.9036 61.5937
4.23916 9.18822 15.1508
1.17394 11.5079 79.0216
6.32743 21.3789 57.9716
3.78926 12.3453 38.7949
2.58659 9.74754 45.4864
2.69543 7.68725 67.4827
6.58343 12.6627 16.6318
2.21903 11.2076 34.1979
2.62288 16.7866 65.9601
2.89903 5.31718 88.5809
8.08484 15.6377 47.0438
6.55533 45.6455 120.088
6.88727 14.8288 63.091
4.26124 15.7381 71.7688
6.19279 14.1966 35.5153
2.60877 2.64761 31.8729
4.74533 25.4115 108.077
9.8865 38.704 84.3755
4.71906 16.6296 73.5693
4.40687 7.70795 42.707
4.28316 14.4813 34.331
2.91585 11.5857 36.8567
2.49564 8.95669 34.6656
2.45386 4.53527 20.6842
2.65858 11.0869 28.9903
2.32413 12.5304 25.6415
2.4783 15.5849 36.9057
2.31783 14.6077 42.5992
1.61931 11.4098 91.0924
5.35531 12.2799 77.1122
5.95488 10.0428 37.551
4.97512 25.1797 76.1451
5.92037 30.6512 88.3219
4.75302 11.9007 56.1513
4.58269 20.9897 83.4329
5.12897 10.6935 43.5938
3.29127 14.1027 62.9519
5.59703 18.8762 63.1894
6.12401 43.1999 111.838
5.50128 11.9593 92.8165
6.49914 9.84646 33.9603
3.40371 15.4266 60.8331
4.94489 15.1883 20.3353
1.28518 5.76196 18.6827
1.8936 6.49509 11.4895
0.473915 5.62949 46.4193
3.85018 13.9752 30.2823
2.19297 9.45652 36.9677
2.50901 6.13768 20.1584
1.23043 7.5817 25.2106
1.98042 13.3559 100.5
8.11576 18.183 33.8618
2.35014 8.1756 14.531
1.0389 5.93702 24.1
1.84173 7.64324 26.5213
2.17763 13.0916 35.3941
1.97915 12.3014 89.067
7.10324 23.4653 37.7382
1.65377 3.20244 36.1363
3.31527 8.29439 24.4924
1.93583 8.97262 37.8853
3.22746 17.9928 67.5123
3.944 15.4053 67.8696
5.98857 23.8819 64.9383
3.66606 15.6395 49.9332
3.62225 21.5219 91.1798
5.54934 8.81302 15.8263
0.857496 2.52691 33.1553
3.09711 18.4134 81.5167
4.79493 7.72985 28.637
2.46787 6.6607 21.3101
1.13968 3.49737 61.271
6.08729 22.655 32.0402
1.4148 8.18946 36.7228
2.36658 11.3432 82.3528
5.29915 8.30523 62.5811
6.37079 20.8387 41.3997
4.16058 25.699 57.6485
2.89633 10.3436 58.8531
4.32087 15.065 24.3553
0.831823 9.92415 79.5877
5.30287 11.9767 47.059
3.34606 5.89953 43.5541
4.17023 15.1799 39.5667
3.07886 6.07402 28.3129
3.22441 15.4446 26.2701
1.51892 13.7634 88.8043
6.60062 14.7468 22.4344
2.32863 20.9659 84.4939
4.44349 6.92063 26.1176
2.03309 14.112 88.0062
5.64615 11.0742 31.5573
2.80565 9.37801 29.3842
2.72466 16.6607 51.1121
2.84903 10.5633 42.6604
3.0989 12.5719 49.3982
3.11059 16.3881 63.4039
3.53848 10.9919 57.1545
3.83638 13.0212 29.9685
2.00049 4.8089 38.8525
3.60412 20.387 53.639
3.0686 12.4318 77.4756
5.64743 15.3475 54.1131
4.34189 16.3558 45.6356
3.12258 11.0322 40.6297
2.91816 12.2357 30.1529
1.91714 10.3285 26.0255
1.65328 4.15996 24.0582
2.00394 5.34722 15.0448
0.987499 7.53833 53.652
3.94723 9.60456 12.9985
0.946241 6.4352 27.4173
1.67374 9.02879 36.2171
1.98232 5.52133 51.437
4.16974 14.123 39.997
2.32823 8.53875 18.8769
1.08109 10.0906 46.6637
3.26897 10.0893 41.3551
2.54508 7.59554 16.4852
0.824607 7.60135 88.0385
7.08779 26.9499 40.1055
2.12405 11.6389 35.6518
2.20607 10.6058 55.7107
3.51729 8.22485 48.2417
3.82973 13.5486 45.7433
2.41714 6.51978 52.9298
3.60951 9.44984 68.2398
5.0622 14.8746 12.1252
1.1083 10.2506 25.5756
1.39048 13.4843 71.4777
4.26377 7.7932 11.9899
0.963449 6.25004 50.5188
4.24321 15.8384 11.0773
0.61955 10.4252 24.4389
1.137 7.43409 35.5405
1.89941 4.72875 60.4565
4.43535 6.26685 20.4005
1.81094 10.2056 73.1048
5.02208 10.4334 29.5116
2.45373 7.02284 13.4621
0.937625 5.49727 56.6589
4.74399 12.2063 39.2727
3.62412 27.9535 79.4273
3.77647 8.05322 55.8604
4.22251 18.2494 43.6976
2.21684 1.25177 33.2497
2.87417 10.268 35.6152
2.75358 9.2967 29.6756
2.17696 9.8709 25.9055
2.04025 13.7506 36.3708
1.74405 7.71822 46.7481
2.55546 2.82981 25.5824
2.32391 13.4479 39.1839
2.33041 5.09949 31.3423
2.40882 11.7724 19.5821
0.911081 7.93453 53.8516
3.603 8.83076 14.6308
0.998832 12.1564 52.408
3.28834 7.50618 33.3514
2.00797 4.14509 48.8076
3.40178 15.1864 61.6989
4.08332 11.1612 54.1933
3.91588 13.0579 14.3204
1.16579 10.4165 38.553
2.66459 12.0524 42.7137
2.44143 8.76775 72.6896
4.83762 5.84871 28.2568
2.70096 10.7528 35.2824
3.08364 34.4946 112.501
6.11976 15.8435 53.6477
3.71753 6.83521 30.416
2.36333 18.6901 60.9716
4.20209 14.6783 43.3191
2.01404 3.08615 50.8437
3.74248 15.1309 34.613
2.43357 8.89548 15.5591
1.00398 8.91207 30.3823
2.34481 22.5916 88.2019
4.79665 12.4901 74.8712
5.48932 24.5718 62.5999
3.05502 10.0853 49.6925
2.66684 8.27194 72.3657
4.36067 10.4711 73.7429
5.10342 19.6975 42.6134
2.42336 7.16493 37.3292
2.5962 9.18004 32.5344
2.3741 12.6676 29.4054
1.96766 4.64268 37.1127
2.69262 20.4533 74.5819
5.47862 18.919 40.9264
2.05987 10.4059 41.8934
2.58412 7.74424 44.1859
2.73373 12.0697 46.8349
2.92545 5.45022 15.5814
0.858287 5.11501 39.0009
2.58243 10.4589 20.8759
1.51579 6.53215 33.2037
2.37183 10.4304 40.7055
2.5267 8.66897 36.4136
2.7219 13.2847 31.821
1.56575 2.90158 27.9045
1.67775 3.46502 21.5449
1.76293 6.98682 53.9561
3.95719 19.8295 37.8654
2.09798 10.9788 34.6572
2.19792 5.3534 50.5728
3.20379 10.0886 15.2472
1.11201 4.39668 21.3421
1.6796 8.1096 34.5841
2.22833 12.9802 77.8516
5.24944 10.1767 27.0168
1.60792 9.1702 35.1555
2.42937 16.4137 74.9348
4.75288 9.70268 10.2758
0.690189 8.89638 34.7231
2.28095 8.50137 37.9755
2.26202 8.84852 19.8524
1.1697 10.5502 46.8679
2.87051 4.8861 47.2866
3.34371 9.91148 19.0915
1.26575 8.4128 34.3143
1.88991 15.5651 52.2656
3.09181 14.4967 89.6899
5.49804 9.76973 20.5476
1.16607 11.6137 65.84
4.39239 18.8159 58.0851
3.70837 5.93162 15.6158
1.02515 5.89382 41.5439
3.13743 13.1484 52.8339
3.6906 8.387 12.9237
0.873086 6.15 60.4483
4.29669 12.9682 51.4893
3.81996 21.7629 77.6663
4.37486 9.91867 15.9371
1.08781 11.7487 46.0489
2.36138 11.5116 17.2699
1.03131 2.59584 15.9795
1.2125 12.4289 49.0704
2.69259 8.42893 48.3419
3.30215 7.25647 31.1211
2.17264 7.38893 21.4735
1.36908 5.87611 42.8989
2.72137 14.0359 23.4645
1.3669 16.0317 72.1332
3.84006 9.59137 69.2256
3.9533 12.1208 81.0215
5.32894 25.823 75.586
4.40539 8.36251 8.67364
0.493961 6.75095 45.7057
2.69896 11.0594 41.6496
2.67743 8.1862 22.9982
1.41559 7.78562 21.2646
1.55059 13.2441 117.049
7.61891 17.085 63.407
4.23851 16.8591 22.8373
1.21398 23.6086 68.3223
4.09459 12.5329 38.946
2.62027 2.16983 25.5348
1.66011 4.65144 43.6493
3.03471 5.68243 64.1032
4.30091 27.7342 62.9084
4.0478 14.4187 48.9731
2.94481 7.85508 25.8891
1.94114 10.7684 51.9637
3.00718 13.196 31.6786
1.95909 16.9434 102.384
6.72761 23.0977 70.1071
4.64293 12.6775 52.3878
3.22582 14.591 69.511
4.7833 15.2178 67.6497
4.37049 9.535 25.2135
1.79898 19.3226 67.8157
3.77237 10.0292 45.7839
2.78507 11.659 30.4387
2.00739 4.81506 25.3328
1.45269 10.352 73.2776
4.23836 7.8571 44.5389
2.68295 25.3026 51.6482
3.15496 5.92062 16.8766
1.30512 5.54998 57.7227
3.78169 13.3699 52.9742
3.44905 5.33999 10.0142
0.757445 9.98347 65.2926
3.68662 19.8073 31.0733
2.00244 2.36327 49.0339
3.18623 18.8872 40.9024
2.4368 10.0871 44.2183
3.051 9.45922 22.7078
1.42336 11.1029 69.9368
4.81959 10.9359 34.7181
2.34172 5.58918 35.7753
2.02271 10.5502 54.8264
3.91766 10.8733 37.3108
2.66254 11.5389 27.8282
1.9364 13.4523 110.524
6.93593 8.54955 61.002
3.63928 22.3398 46.4301
2.64588 10.5069 14.8014
1.0862 11.2081 50.7839
3.81184 14.7542 36.1736
2.17877 6.28313 61.7903
3.69952 16.3844 63.2425
4.30793 18.478 86.5161
5.94104 0 0