# pn-170911/RbIIR-59-NIST-1280-1959.psd
# Power spectrum* (dif=0,1,2) (really just |FT|^2)
# NOTE: only the first half! (symmetric)
# weeks: 1280-1959
# 3 clock-days, 3 excluded
# PSD: 1441
3.20344 0.0477872 0.0597837
15241.5 0.346261 0.197395
21241.7 0.205421 0.369771
30841.9 0.706787 0.427154
38762.6 3.24596 0.132472
4135.68 0.452621 0.386654
2220.66 0.833624 0.277196
2529.86 0.623451 0.267147
1232.78 0.665753 0.370917
1531.79 0.612295 0.143991
879.767 0.338069 0.269959
440.297 0.202814 0.292047
577.759 0.534919 0.23352
1013.44 0.874969 0.208515
552.092 0.751935 0.205986
425.959 0.317862 0.24158
1042.97 1.38659 0.212592
895.138 1.74737 0.331942
650.323 0.841688 0.150942
248.879 0.321785 0.293886
304.643 0.522566 0.37676
694.724 1.17641 0.18139
582.782 0.88234 0.436439
510.223 0.960268 0.173123
261.422 0.955562 0.318428
218.747 0.738778 0.463759
352.503 1.60763 0.148497
284.096 0.459283 0.464713
87.4262 0.598892 0.280556
141.99 0.333807 0.333968
193.975 0.633391 0.549585
45.8906 0.450368 0.178585
416.953 2.10946 0.37435
127.574 0.884071 0.295927
79.7038 0.681996 0.284297
133.283 1.2237 0.452105
237.778 1.85789 0.232648
245.051 1.61286 0.435336
220.161 1.30591 0.382032
125.61 0.895982 0.262001
126.087 1.44574 0.254282
369.973 2.73294 0.209403
376.959 2.43058 0.355966
170.3 2.47681 0.219051
175.147 2.20419 0.243882
139.077 2.03903 0.109906
106.306 1.90116 0.226433
69.7847 0.830123 0.276117
433.563 4.19601 0.21847
217.189 1.49345 0.217251
216.078 2.21007 0.273427
173.333 2.43785 0.151009
116.366 1.18833 0.375329
354.663 5.2876 0.303826
86.4669 1.82685 0.237592
205.937 3.94618 0.306706
134.577 1.30185 0.360565
428.46 6.72083 0.722983
285.437 4.10245 0.0712839
172.594 2.87309 0.431846
95.9112 1.51207 0.234606
250.094 3.2721 0.120131
331.224 6.77933 0.194525
176.708 2.9481 0.127134
147.782 2.77562 0.261878
135.399 2.135 0.551518
208.774 4.62788 0.181569
356.825 8.02217 0.470503
201.387 5.04877 0.112541
115.319 2.24217 0.0992
113.876 2.6432 0.237188
149.485 4.40877 0.257863
214.198 5.86016 0.189766
79.2036 2.64324 0.145902
362.674 9.63373 0.219895
260.226 6.32157 0.41447
218.144 7.73516 0.40511
256.93 6.43251 0.24238
151.616 3.87501 0.392049
362.455 11.3625 0.446725
189.79 7.387 0.244287
75.8919 1.64166 0.311411
215.533 5.32072 0.262736
61.3709 2.36739 0.267573
187.44 4.27299 0.37202
49.7575 1.86017 0.112865
156.725 5.40431 0.102693
103.82 3.6485 0.134419
352.161 12.6007 0.541793
106.475 4.31145 0.258788
153.772 5.03439 0.159376
89.924 3.59759 0.32365
35.3814 1.80597 0.241379
227.119 9.21174 0.560045
104.629 4.60059 0.564899
120.238 5.00719 0.526292
44.1307 2.47991 0.377064
232.726 10.9089 1.00403
295.652 12.6922 0.590601
133.222 6.83542 0.426592
125.076 7.57412 0.529454
96.1426 3.60348 0.194259
253.513 12.8874 0.614617
83.6445 4.04524 0.12572
114.497 5.95446 0.311032
192.242 10.9761 0.625192
150.009 8.53371 1.06773
191.145 10.3927 0.643321
54.9969 1.85589 0.167467
119.17 6.92151 0.149175
53.5461 2.86605 0.242606
40.0135 1.80525 0.261358
107.044 8.02328 0.38004
173.346 13.5654 0.851964
269.274 19.6711 1.36749
93.963 4.88819 0.339611
209.453 13.0921 1.28411
32.9804 2.12395 0.142974
58.8538 3.53521 0.386991
167.079 10.111 0.69118
299.18 20.0704 1.19855
56.8727 3.05665 0.656677
236.945 16.2283 1.57425
204.824 15.2021 1.38146
81.4769 5.29588 1.10601
73.9058 5.71613 0.265714
108.812 8.61496 0.821556
191.523 10.7122 1.6889
169.661 13.0803 1.06579
403.831 29.4402 3.25096
52.0565 4.83521 0.322478
94.4663 8.26824 0.678266
135.625 12.3726 0.809743
107.844 11.4512 1.15976
91.4105 9.61344 0.690454
176.659 14.3734 0.932841
207.298 17.8464 1.34341
71.7071 9.35748 0.917965
220.677 16.5014 0.817285
68.5238 5.17638 0.927662
121.333 13.6197 1.16414
209.438 16.4949 0.982738
157.257 16.8132 1.94469
30.6322 2.02094 0.322298
44.6081 4.4991 0.607314
74.195 9.28453 0.784875
138.672 13.4335 1.08388
55.4412 4.00265 0.242867
65.7425 6.97521 0.888076
48.6905 5.02919 0.943383
34.2705 3.68625 0.573074
210.344 22.786 2.40349
78.2515 6.99828 0.761943
147.166 18.8079 1.27984
103.802 9.10255 1.99331
60.5375 9.82835 1.15014
25.916 3.10624 0.319992
138.509 14.9573 2.24798
106.935 11.3789 1.60798
133.817 17.7985 1.36434
36.6139 4.42346 0.509674
20.4843 3.24135 0.53779
160.206 18.2726 3.15779
25.3999 5.02844 0.788581
134.104 18.322 2.93209
133.014 15.0183 1.72057
215.988 30.2262 3.79178
71.398 8.36326 1.61873
99.5369 14.6372 2.35986
69.18 9.18074 1.26137
115.813 16.4698 2.78799
72.8601 9.2341 1.04689
120.774 17.6005 2.00807
47.5119 6.15785 1.08853
73.4114 11.6284 1.79857
256.734 41.1149 7.28759
60.7264 13.3405 3.2157
217.137 31.7137 4.95745
59.9806 4.01703 1.05753
288.031 42.6444 6.58871
47.1345 7.88727 0.700544
167.452 24.4324 3.9615
67.4157 9.13319 1.40966
319.346 45.6466 9.61923
85.2826 8.85965 2.39196
126.986 19.6367 3.6173
79.2349 10.9979 1.60897
241.521 42.8149 6.88211
118.995 19.0986 2.37503
112.118 23.9535 4.43189
127.527 27.9862 4.29324
154.729 22.2609 3.32034
281.469 52.4103 10.3683
204.408 36.6773 4.85064
98.0522 15.3984 2.2889
126.65 30.5164 5.72719
205.901 32.1468 5.9048
205.69 35.3264 5.25562
54.6019 9.25153 2.37613
84.0619 15.1771 2.94427
61.3974 9.43729 2.03635
53.0104 9.47577 2.08301
25.6085 3.64829 0.622223
47.8265 11.7299 2.18236
134.968 25.5778 5.13726
101.181 18.7182 4.10831
111.814 22.904 4.06472
114.731 18.236 2.32905
11.5653 1.77595 0.614819
145.007 32.2298 7.89183
49.6799 10.6157 1.61942
111.434 19.251 5.2696
83.3059 16.8413 2.79228
56.7444 13.0962 2.88951
18.8745 3.90544 1.24793
84.3869 16.3246 4.92439
85.9993 17.5761 3.96016
46.3911 10.3104 2.38696
88.6108 20.1454 4.50534
76.7834 15.8989 3.18245
152.18 38.6837 9.35519
182.93 41.7572 9.04546
64.2163 13.885 2.42946
30.6788 9.79117 2.61145
243.356 58.9886 14.9628
73.4883 12.2668 2.90884
133.023 26.4003 5.57274
107.198 28.2864 6.38222
21.721 7.14298 2.0369
42.7487 10.0733 1.9419
42.2596 8.96375 1.42664
46.428 14.8742 4.09371
27.0192 8.81513 2.58254
177.249 45.8774 11.6024
23.8486 3.70698 0.975609
114.852 27.7777 7.06066
76.5739 19.2901 4.81911
49.8727 11.1516 4.16664
103.915 28.0832 6.91741
38.3175 8.13145 1.59798
24.2659 8.63255 1.39822
54.529 17.9737 6.43731
55.109 13.2256 4.33466
58.4301 12.6675 2.7572
151.204 39.1161 9.49782
130.06 41.6189 11.4513
67.7429 18.12 6.98679
134.251 39.8703 12.0122
49.1552 16.8525 3.79009
97.5603 34.214 10.6579
56.4347 17.3439 4.13398
17.5626 6.61343 2.16698
70.2491 19.8832 6.10198
85.7409 27.4619 9.20697
148.169 45.1156 15.4248
153.461 45.293 12.5597
46.8003 12.1753 3.08427
56.8878 22.1794 7.28197
37.7943 10.9093 2.65031
104.783 33.4604 9.01462
96.3786 29.9509 7.44801
9.00194 4.17545 1.57643
48.791 14.476 6.1151
23.6051 9.82836 3.50954
38.3811 20.6196 6.7916
116.171 36.7528 11.3684
190.624 57.519 17.5424
52.3834 14.4534 4.30653
68.3887 22.1372 7.02833
91.8546 30.2931 12.8245
18.1861 7.73237 3.5274
124.741 36.0803 11.6317
87.6237 39.986 12.2724
53.3718 14.3397 4.50849
111.004 37.9233 11.87
29.2019 7.23441 2.77919
95.6764 31.6241 9.64839
141.563 54.8976 17.9832
53.8375 24.1933 8.63842
22.4365 8.56595 3.74927
41.2932 15.3947 4.24291
40.7851 20.3531 8.74994
60.4849 20.1639 7.47313
147.398 60.9015 25.075
64.5692 25.2488 10.9282
96.6236 32.9137 10.6475
90.6833 25.6729 7.44996
22.8507 12.5253 5.14064
142.701 52.7001 17.3798
34.8333 8.97086 2.37739
96.9925 47.0916 16.6648
37.2388 18.4688 9.16532
93.4464 29.2786 10.1184
114.068 48.1969 15.9325
27.0454 11.4888 2.94643
35.0846 18.161 7.17716
57.1525 25.4422 10.8453
94.9339 34.8359 11.7636
67.758 24.8614 10.2317
85.647 40.7817 14.8853
102.647 47.857 19.9028
79.5832 30.1682 12.1855
94.6155 36.7208 13.7803
164.862 61.2362 20.5906
61.1906 27.277 15.0633
49.7308 24.2459 13.823
42.6793 13.2424 4.13532
29.7586 14.8619 4.62383
35.8708 22.6018 11.8596
41.5847 14.0361 3.13725
55.1248 22.2974 7.83454
52.5005 20.506 8.95426
92.5081 33.2005 17.4773
44.0746 16.2329 4.95692
14.9017 8.43246 3.59102
31.4114 11.7735 5.2249
17.52 9.66371 6.49585
85.434 36.9366 12.3886
18.6136 14.1584 8.16863
18.5905 7.71939 5.43841
82.4352 38.7717 17.0351
31.1007 11.3009 4.85891
12.8071 4.86105 1.76604
30.8322 15.02 8.39705
41.7705 18.0162 8.88422
54.9836 24.2287 13.618
49.4377 18.9618 8.25104
66.3735 33.1728 16.5243
70.5622 34.285 15.4233
57.9886 30.8791 14.6733
95.0832 45.5634 18.7479
39.3876 20.9979 10.1374
28.9055 13.4876 6.21909
28.3002 17.292 9.16398
24.5166 21.3649 13.5461
40.324 15.0388 7.74988
110.922 52.6081 26.0845
67.3247 39.4746 18.0197
45.4884 24.94 14.7498
15.6773 7.35133 5.22316
59.0998 21.2283 10.8785
36.3394 22.4933 11.4971
22.7007 6.42492 3.54324
36.4605 15.4299 6.56346
62.3086 43.3566 25.058
35.721 10.7685 7.25347
14.8092 6.42713 3.69832
66.1929 52.0953 36.2273
105.288 38.0462 13.7281
44.6217 25.4531 11.1246
54.1572 43.6902 27.6276
52.0463 29.7687 16.071
36.1206 23.7279 10.6136
25.7024 19.4618 13.6659
37.2266 21.8094 13.1425
48.2829 27.4324 16.9545
55.231 29.7674 20.1023
63.9446 36.6621 19.0087
52.8517 20.5032 10.5198
26.2359 16.114 9.95452
70.339 29.4504 14.653
29.0547 16.3161 8.75688
29.485 26.6924 18.2634
56.6222 25.9513 13.5095
11.399 7.29406 5.74845
58.914 35.077 15.9248
27.674 21.6893 18.8313
46.2084 16.5901 8.47695
45.1666 24.5683 14.348
81.8954 60.3929 41.8768
21.4467 12.4182 7.3122
15.445 10.6261 7.66068
38.8922 25.4798 11.5256
42.5738 35.3534 28.2907
9.49082 4.70713 6.45659
29.597 11.1352 4.26161
68.1249 35.9031 19.1876
16.8491 10.7115 6.41659
5.95963 5.70871 4.85235
28.1223 21.9531 13.2613
22.481 11.6037 4.32114
8.32239 7.02536 6.26727
84.3542 43.0438 21.549
82.9416 61.8695 42.9916
37.4663 23.1918 18.6733
21.3566 13.701 10.1932
51.2838 42.5033 31.8748
33.871 23.3583 17.0194
27.542 16.2561 10.621
24.7831 13.2609 6.43821
6.14482 5.92982 5.12949
26.3615 21.6073 15.5182
60.7934 36.9861 23.6936
29.7942 24.7031 20.2663
27.4547 13.6255 11.3421
30.1321 22.1174 13.3714
27.8093 16.4628 10.8863
11.7087 5.8582 3.1279
32.4868 22.0793 14.7997
17.1996 6.7129 6.00664
25.7446 20.1708 14.4193
27.3125 13.8985 11.5723
28.3916 20.395 14.8482
33.9031 19.4784 12.8521
21.9678 18.6237 14.0096
20.2117 11.8485 6.73947
5.68922 4.00224 3.21061
7.93768 6.70287 6.26339
46.339 41.88 32.9168
28.7141 23.0536 17.1567
43.951 33.3423 23.4313
55.1963 47.8091 34.8307
47.8492 26.8565 14.5339
14.1119 11.5214 8.94942
13.8217 10.8211 5.5502
56.0588 63.8309 51.2356
42.6727 28.3726 18.4936
38.5036 29.7159 24.7741
31.4769 18.596 8.78966
39.6289 42.8196 39.0408
24.56 20.6362 15.9035
38.1691 30.1447 24.4905
79.8226 64.0063 48.8416
43.3591 27.7941 18.4272
32.2076 35.2943 39.0425
48.2004 24.167 13.0993
93.5988 78.8644 63.9542
41.517 27.4829 18.6544
15.0848 15.6865 8.9168
2.38787 5.96322 7.15579
27.5161 21.2165 13.3998
11.0173 12.3498 12.4994
39.7288 25.5241 18.6302
47.8264 55.051 41.6675
19.4265 20.5984 22.6758
67.1348 56.8719 44.7802
13.7355 6.29956 3.47859
19.9412 24.3239 22.5597
15.5347 12.0532 11.7928
33.3405 19.9696 13.5959
24.9669 27.5206 28.2746
60.4405 41.5113 31.9773
39.5397 27.5226 17.7399
44.9147 45.022 43.1869
44.7148 42.052 38.7823
22.1449 17.7978 14.3888
7.87229 11.7363 13.0559
17.9917 14.4188 14.8335
59.967 52.8157 41.795
24.7288 17.5868 9.35723
20.8026 22.8869 19.5097
24.0682 26.2019 27.8117
23.0784 15.082 9.39167
12.3607 12.2223 9.8711
9.2578 10.8998 9.59522
15.1627 13.7577 12.4829
7.46665 7.89239 10.6721
24.9378 22.0389 17.3059
6.54162 9.3969 11.934
24.9648 23.3014 25.6775
29.5009 33.8786 29.307
57.2378 52.0681 42.2127
16.892 12.8436 5.70481
31.4228 35.1433 27.1113
47.1167 50.0814 37.8972
15.4046 22.1503 27.5819
30.8101 28.7104 31.1044
22.7079 18.5779 14.34
33.7962 36.9862 42.7141
30.5065 25.854 25.8063
26.9858 21.1127 15.4003
9.59582 14.6773 20.0366
16.6694 20.4568 26.7556
20.42 8.49651 8.35197
46.3712 43.8516 32.4768
26.7739 24.0675 20.3075
11.9813 13.2333 12.5944
28.5232 32.4255 32.7047
7.20423 5.54754 8.90189
9.12638 7.59294 13.3922
56.6537 58.8531 62.2388
36.7893 27.8363 23.017
16.3054 10.0277 6.72975
27.8737 32.4311 27.4036
13.9446 25.6763 30.9363
10.8558 12.9452 17.9089
12.9284 7.00041 7.44719
22.9762 15.9304 13.308
5.93799 4.99353 5.35351
42.8369 42.5562 35.6637
16.1487 30.5713 42.3449
24.9231 23.9477 31.727
60.2363 60.8073 60.9469
22.5142 17.479 17.9666
22.2498 15.2644 15.7449
25.2009 18.77 14.652
37.5977 67.3802 80.415
24.2213 10.1207 6.27403
49.4668 55.5131 54.8696
12.6287 18.042 25.0972
14.9614 15.1437 22.6062
26.1217 17.7656 24.3194
30.1662 19.3627 14.9105
28.8208 18.6823 9.30152
31.8446 44.1671 49.0631
31.8645 32.055 38.361
22.275 26.0554 31.3774
28.9232 27.0611 25.1479
19.9136 15.4217 11.679
6.60601 7.09982 7.16848
15.5555 24.0193 36.0867
12.3233 10.5349 15.0666
20.2359 23.181 21.2384
13.3898 13.0129 10.7931
20.8433 17.8835 14.7591
30.0986 40.9422 54.7226
26.3265 25.181 20.1073
2.21478 3.1664 7.46058
20.8126 27.638 38.052
17.9615 13.9052 16.6683
13.7804 17.8174 25.5331
20.456 21.9844 17.9997
10.365 14.4924 17.6163
17.9825 15.7607 17.8917
11.8288 17.5062 19.1894
12.0064 10.465 12.1343
15.1851 14.1764 14.1188
17.3993 32.362 45.3849
29.4376 18.5549 22.38
54.1704 57.0495 56.2157
22.861 34.9656 48.4504
15.6041 25.9212 40.4974
36.9521 31.0968 25.6953
3.49203 2.81 4.73373
18.27 18.5243 18.7085
11.7006 12.2034 18.5276
7.75873 6.71465 3.82697
13.6587 28.0183 42.8643
21.272 20.9603 22.4404
15.146 15.6615 18.179
9.00748 17.1206 25.7487
11.2108 8.20146 11.4239
13.6912 13.0393 12.5083
14.1688 24.2226 34.4375
8.55611 5.49648 7.41709
23.9626 30.1825 21.5008
36.2521 56.6009 64.5189
16.0915 23.1151 29.6023
10.4935 9.32358 8.53229
27.4821 38.2182 58.2404
14.3028 20.2609 22.6537
11.7638 24.2743 40.2547
8.49817 3.00124 3.75863
5.61242 10.1365 22.5582
27.3231 26.5318 24.42
15.1679 14.4276 18.8278
39.869 44.3255 42.2029
19.8346 39.185 74.0824
25.804 18.6255 19.972
32.2846 45.1891 58.1198
10.6551 10.3548 16.7746
35.3358 64.139 84.9863
20.6149 9.36207 5.32419
5.48192 3.933 4.95605
6.78685 12.9177 14.3915
6.15448 21.7203 55.1582
32.6938 28.2612 21.9791
27.9327 43.1585 64.4054
16.9716 17.3775 18.9966
19.6486 22.3471 27.9681
11.7595 18.4991 25.7891
19.1389 27.3446 35.992
9.8209 15.129 22.7795
7.76195 7.43128 13.5872
18.194 23.1629 26.7051
9.2086 16.0853 34.4296
15.5974 11.1547 22.228
36.187 43.1519 41.2458
13.4187 12.6118 11.4259
12.7626 24.0132 34.1347
11.3737 25.7139 43.8299
10.0884 10.3807 19.0232
13.853 13.7528 10.8001
8.01023 9.35525 18.183
27.3812 34.7965 44.7836
18.6316 37.386 52.4973
14.912 27.2866 41.2824
9.27592 13.2526 35.3763
29.9639 37.6955 34.1393
7.66051 5.40797 8.39989
26.2386 41.8149 50.8177
8.05831 22.8604 54.4503
19.5353 27.6045 38.867
18.4662 29.0808 50.8759
15.7514 13.0058 14.8194
5.44322 6.55036 17.2086
27.109 41.9107 51.7391
14.7091 19.8019 20.3016
5.77362 14.1636 29.4719
21.7284 31.0041 50.9342
19.1218 25.338 30.2255
9.10458 13.4876 15.6666
11.6851 20.5824 29.2531
11.563 23.0332 49.8009
31.3717 50.7883 89.8268
37.5828 37.2724 38.6009
22.1985 27.3277 39.1251
21.8555 28.9312 40.7804
4.27341 9.22605 20.6881
11.8171 13.1853 13.1873
7.50332 15.465 16.258
9.58353 17.8543 23.2475
5.35974 20.6515 51.485
16.6063 21.6281 19.2679
4.3645 8.24228 16.433
10.0656 29.3805 53.6439
12.395 6.4525 8.92951
19.0095 29.4089 42.25
13.8251 23.4639 44.367
15.5537 13.8636 19.79
15.3303 28.8803 44.1446
7.51744 9.29176 9.55447
5.79769 10.316 23.0632
14.2617 26.0677 50.3432
29.3444 36.2716 36.7942
14.8609 28.2817 59.0367
10.6787 11.6293 32.678
22.2846 23.0304 19.4957
19.4661 36.2206 50.4917
4.2211 2.43038 14.0082
25.2244 38.2127 39.9473
10.2708 21.1944 37.1883
4.28192 5.45009 13.1349
13.1512 25.3856 46.4226
12.4007 18.7755 38.7789
21.0148 21.2818 18.6671
3.69795 6.87034 9.78069
3.283 14.4959 39.0207
20.9819 19.124 20.3823
18.3279 29.3474 45.1132
9.80347 12.9679 15.071
4.06108 13.5307 26.9715
5.97562 8.80435 15.4707
5.98213 17.9567 53.5501
19.6435 12.2377 12.2352
18.9232 33.2168 41.0609
3.97753 8.05645 17.9663
20.713 52.7837 90.9306
12.8228 17.166 29.1421
7.49514 15.4349 29.7822
10.6738 14.2708 37.1963
13.0639 9.08805 4.15329
26.4561 50.0691 83.7598
13.6943 13.9589 25.3966
14.0584 18.4805 22.6048
14.328 27.6643 43.4049
9.42134 19.7648 37.3077
5.90643 10.8011 35.1256
17.8248 20.4396 25.638
8.49268 24.6971 59.9934
16.9391 14.6817 7.01171
7.9394 15.3229 16.5802
9.78047 30.3492 62.7443
14.0804 19.4923 30.4108
7.60089 14.468 34.1224
10.5273 15.5666 24.8886
9.26849 8.32507 12.972
9.49994 18.3178 48.005
23.1491 26.9968 37.676
20.1681 45.994 76.1881
6.68719 7.77489 12.2028
5.48129 12.5317 31.7248
13.0003 15.6834 17.4713
11.256 15.3112 29.7703
10.1873 15.9896 20.3983
7.48192 10.6828 20.1086
7.37543 11.9952 18.3761
4.89358 7.77476 10.8449
7.77241 25.4332 37.1606
4.45077 9.99353 20.2855
6.60204 11.6148 26.0366
3.65459 8.94834 24.12
15.642 34.6734 73.9175
16.4116 19.1768 25.1853
9.89633 31.5698 85.4172
21.5848 36.5044 46.7018
9.08377 5.28791 7.94582
7.48562 22.1928 39.5481
4.44663 15.77 55.2994
14.9136 24.8984 55.5429
20.6945 39.079 66.849
14.7353 17.4957 32.814
8.8348 5.28492 20.5392
30.4846 49.5982 52.7411
10.7224 18.8916 30.7954
6.4804 15.6502 42.7345
16.8703 25.4089 32.9555
1.86114 4.51486 21.7189
9.25542 14.4524 14.8487
1.49563 5.79403 17.381
10.2564 11.5715 23.3251
5.46863 9.13018 20.1631
10.3546 20.3641 35.2389
6.66307 11.6672 21.9979
5.10991 8.30927 14.5495
4.17605 4.81414 12.4628
11.4415 26.3877 43.8233
14.9338 24.153 64.5915
20.8483 51.1673 111.297
20.1435 32.8596 72.3195
29.812 39.5813 57.7902
11.5354 17.0728 15.9474
5.83764 20.4012 57.9105
10.7377 18.6074 37.8451
9.40348 16.0103 33.8195
17.6894 31.4222 57.0369
10.9555 9.28683 6.07105
11.8303 22.7786 33.3543
16.9582 57.1933 130.861
18.7817 18.2421 46.4121
27.4062 46.9651 69.3906
6.28781 14.4971 41.3891
9.96257 20.1493 54.2177
18.8193 26.7514 37.257
8.94062 11.3781 20.0909
5.41246 8.99069 11.7552
2.79087 10.5066 32.0942
8.71019 14.3218 26.1042
10.9489 26.0554 52.4674
12.9489 19.2211 21.4029
6.94091 21.0308 52.8779
5.95436 7.50438 28.6818
13.9181 14.3558 8.71964
15.3889 43.6618 95.3564
8.66721 16.1641 36.48
8.78186 12.797 23.9406
4.75134 5.1212 15.4802
19.8646 42.7063 79.5437
15.1879 25.8504 50.1295
13.0038 22.1992 37.3281
5.07998 14.1476 32.1694
3.47596 10.9656 34.3657
9.61615 11.7218 35.316
8.7345 18.4034 28.3969
7.3874 17.5703 38.4977
11.1563 20.3942 46.4606
15.8194 18.727 26.8194
17.8388 37.1922 74.4936
8.28819 11.1348 19.5731
3.17969 13.646 63.3509
21.5274 33.4796 46.327
25.4708 72.3082 139.482
11.6909 24.2919 58.2099
13.7179 13.0059 14.0975
3.14597 14.9695 31.432
5.40284 10.7249 27.0445
5.03351 12.6008 45.9497
11.0826 17.4414 28.931
11.4636 27.0239 42.6351
5.01475 14.3062 34.9037
3.5986 10.9061 34.3611
5.39811 4.84601 16.7871
11.2776 22.7042 34.6146
8.37521 24.4121 68.8101
6.80513 6.60436 12.6646
7.59046 14.1068 24.8097
5.23173 10.7304 31.6594
9.46633 11.1487 12.104
10.9739 28.6195 53.0022
9.94048 21.3092 51.2997
8.42756 12.7391 35.9772
10.2652 31.685 71.8706
13.0129 26.6913 39.4778
5.0207 17.2327 45.5384
4.51804 9.04257 53.1006
9.74712 9.82348 22.2545
11.7579 20.4058 39.3158
11.6058 16.3896 9.71437
4.41303 23.873 64.0691
15.2154 38.4069 118.268
22.2942 27.6969 45.9192
9.36942 27.2762 46.7065
4.39284 8.8632 32.6785
10.3686 23.2386 50.9388
10.4227 22.8752 53.1441
7.39568 4.32371 6.3202
10.3564 31.9572 53.4753
2.15486 14.6869 52.5315
7.00241 6.99642 47.7305
23.635 43.6015 67.4225
2.65355 5.7777 21.046
5.51702 6.43785 10.2484
2.38575 7.54765 29.8749
9.99017 25.7893 55.4668
8.65475 5.56141 9.81597
5.90824 17.1879 41.4371
7.46083 20.9947 41.832
8.14652 20.7887 60.5368
8.30916 15.5867 20.6508
2.71779 10.2699 22.779
6.73265 20.0668 78.6581
9.27406 12.0546 18.2963
17.6391 46.3382 75.9375
7.40696 18.4143 49.7174
2.85261 6.08593 18.2272
6.38584 14.0677 23.6715
8.37759 28.3503 51.8708
4.03522 6.91614 29.2967
6.39451 21.0466 67.1724
10.5041 17.8013 57.3846
17.566 33.6178 59.7102
8.66455 25.0144 71.3191
6.74265 8.17277 10.9507
4.20463 14.36 48.3207
11.8714 15.0693 38.59
12.1195 33.6976 49.0221
5.0605 18.3837 45.9261
4.7875 25.2816 103.929
15.9287 20.8876 25.9349
4.44659 17.4937 58.9168
7.96204 11.9862 9.49115
2.79811 12.4404 33.7521
6.05362 8.58443 21.1409
3.70184 5.24301 21.352
9.39612 17.0378 27.7805
2.92275 9.55145 19.8795
7.38267 26.7104 59.065
3.55704 7.11403 36.9403
8.86073 12.0198 10.07
4.91797 10.3103 25.8779
4.56035 13.2087 27.7437
4.37447 20.0442 55.938
4.86679 1.21297 10.9636
3.5755 10.0864 34.8087
6.02848 13.7235 26.0923
4.5965 9.31573 29.9037
6.19228 16.9637 50.249
8.36368 28.7548 47.865
4.16226 12.4095 43.0481
11.3158 22.2356 42.3313
1.94008 7.83265 42.6019
10.9243 22.3552 33.2075
4.7847 18.8885 40.6997
4.32257 13.0835 40.0681
4.42839 15.4588 49.7434
11.3435 32.9429 122.646
25.871 49.2333 69.485
4.19737 5.87538 25.4603
2.8326 6.76008 20.0402
5.36858 16.9088 56.9208
11.9698 15.0956 28.4439
4.164 10.0354 28.3676
9.13009 27.5919 55.009
5.23131 15.6944 44.3149
7.3327 21.7192 74.8502
10.3551 16.747 42.6768
9.71756 21.4646 37.9517
6.72517 43.6516 119.236
18.8812 29.2954 72.4117
9.17214 26.8067 71.3275
6.46582 5.082 23.6781
8.56408 26.2143 71.2836
7.52868 21.8323 78.0527
11.7813 19.0211 53.289
10.7136 25.8675 80.7336
6.92528 9.9789 25.574
5.57746 9.64437 15.6554
6.41021 32.2965 105.798
16.873 28.8385 47.2708
7.31841 17.7618 21.747
3.00616 12.8088 22.7347
3.90374 14.8694 47.1136
3.69925 3.00431 8.50698
9.26048 33.1242 68.2938
1.13942 3.08073 37.416
8.18918 17.6325 34.4555
5.55379 10.2292 20.7802
2.43613 8.92435 57.7511
10.6673 22.9305 21.8035
0.596934 7.71931 39.4291
7.6247 18.817 29.5091
2.34329 11.6326 53.5822
5.93192 19.0333 59.6574
8.05172 15.3308 8.5741
1.38132 13.3293 38.1952
3.57573 13.0165 30.6002
3.1651 8.51124 31.5753
3.99733 10.4388 30.2379
3.9258 7.10529 35.7006
8.19427 37.503 85.0543
9.35883 14.863 75.2084
13.2352 18.613 29.5743
9.25118 23.6784 51.7886
3.74966 9.72784 25.97
1.0702 7.61246 56.6393
10.0339 7.70131 8.33658
6.3651 14.0663 28.7218
1.61828 5.29813 30.5937
4.36635 17.9496 48.1261
3.99363 5.43211 11.5052
3.99107 12.3717 41.7165
6.31853 18.2226 41.4319
4.18433 10.4469 48.3735
11.3627 17.98 28.0896
7.47058 28.1972 50.1133
2.68905 19.6899 83.6639
8.82399 9.60339 12.9239
3.70933 14.4159 44.6818
5.78478 16.8077 44.4631
3.11586 5.31959 7.15126
2.42261 10.8683 47.8414
5.52632 13.9369 20.8938
0.545855 5.56852 43.6365
6.28463 22.1621 85.5469
10.9946 21.2022 49.2341
10.1137 33.6231 83.1466
8.20831 19.077 32.2305
6.79428 23.8473 62.607
5.05554 13.3314 31.4882
2.68617 9.05036 40.942
5.32724 10.5847 54.8683
9.33446 13.6318 46.7989
11.1271 28.841 35.5556
4.21356 18.784 43.8995
4.34904 17.8643 89.0693
11.2813 6.35939 10.5083
6.9931 8.46586 5.4059
5.88841 30.5479 60.2827
3.40451 12.6332 70.7673
8.2012 10.7321 43.119
7.13265 15.5035 63.5631
13.5787 26.1724 36.5483
3.91672 11.0934 41.8382
8.88858 32.2292 100.645
9.76481 21.5071 56.2547
6.07699 14.0675 30.4721
4.02978 5.65243 26.958
5.91421 10.8913 35.8665
5.01873 15.3935 28.1319
3.74898 15.5142 54.3914
3.23027 7.6045 14.5116
2.03156 3.93608 4.59882
3.51315 29.8868 119.995
9.90388 9.58304 3.26537
2.22972 5.77341 19.7011
2.04244 8.30154 20.1322
3.98209 13.8551 32.8569
1.83416 5.08241 19.7505
1.32128 6.11601 32.7806
6.66052 17.2822 43.0166
1.1868 9.51488 40.8932
4.37581 4.43234 23.4729
4.72159 8.16363 12.2741
2.7871 4.47952 31.5678
3.61168 11.1011 51.8496
12.4479 35.7551 63.9838
3.53674 7.04685 16.8483
3.11539 12.2006 42.327
3.95599 3.84617 37.4827
12.1945 36.7601 80.5205
4.64135 9.05018 20.9452
2.20142 3.54498 20.0317
4.57172 14.282 24.392
0.685602 3.88998 22.7056
1.87919 2.28488 34.6587
7.56149 18.2827 29.5628
4.28823 9.89331 17.6925
1.79645 18.6754 74.0266
5.82015 18.6191 54.7633
6.45185 17.6195 51.4207
5.32482 17.2801 54.5911
4.13396 14.5095 68.5865
7.6605 16.3739 47.2295
7.60297 17.7295 47.6437
6.25623 17.9047 26.3428
3.21529 19.8848 69.3565
4.93978 6.33186 20.4102
2.31192 5.63955 31.367
3.91523 6.4747 35.9447
6.9974 6.58439 17.1999
2.83149 7.72283 35.6484
8.54948 30.2546 88.4995
8.09296 10.0661 14.9595
3.7285 13.8269 26.5226
1.16677 10.4984 33.3694
5.63997 7.2255 32.7579
4.24594 3.25518 5.48854
3.74182 13.1423 49.0468
5.14489 13.1937 48.2092
4.11961 11.122 41.0602
7.12386 4.47573 10.4063
7.1026 20.0961 33.1
5.33674 20.8443 81.3876
8.59168 9.2904 11.2144
2.06454 6.01987 8.08332
1.28214 4.53983 15.8413
2.57409 5.28228 12.6284
4.60593 12.1383 24.4246
3.16883 15.4293 50.855
5.02132 14.2595 32.6799
2.64743 14.2894 54.8622
3.60912 10.0558 29.5185
3.65871 23.4296 75.1818
5.06318 18.2614 80.4714
10.3564 33.1763 73.5057
4.44806 2.48008 21.4659
4.14312 5.67033 6.27641
1.97786 10.4678 46.8175
5.25233 14.4077 55.8865
3.71392 8.63342 15.1821
3.55063 19.7974 51.0871
4.27345 10.3589 33.285
2.82259 10.5758 18.2237
0.270576 9.49825 46.9936
5.64215 2.31515 21.0619
4.11235 6.69105 20.1119
3.56894 14.2276 43.6615
5.42669 11.2119 25.2134
4.1234 14.2209 44.2935
5.67515 9.81743 43.6902
6.32261 12.3065 24.504
2.16388 6.82318 29.3552
3.09157 18.8948 49.5655
3.12442 4.03726 14.3717
1.589 7.91055 40.9149
4.66238 8.89344 21.3039
2.3055 7.27503 27.5845
4.79586 5.75737 28.4165
6.01348 24.5734 62.9702
3.71048 9.03771 27.7505
1.16084 2.89299 51.1831
8.96752 26.7104 66.3535
3.75758 10.9713 18.3689
1.33661 4.03035 19.6092
3.40234 23.3435 73.8334
4.15057 3.62585 62.3795
8.92697 23.0165 45.8552
4.68922 15.0901 76.3385
7.18334 20.8951 44.1214
3.50913 15.1078 47.1361
4.17717 17.7493 35.5471
2.53902 7.63278 26.6644
1.75489 8.86116 37.6129
3.57475 6.21776 15.2677
3.64274 19.5875 78.9619
8.4523 16.5905 36.552
2.96273 9.68424 66.8847
7.00875 7.82146 34.0129
5.47691 19.2186 49.446
4.83736 12.2154 19.1604
0.91535 2.47384 22.5674
2.00589 11.0184 42.6024
9.25744 34.3965 98.8699
10.738 27.4557 97.1821
4.17096 9.74213 18.665
2.22444 7.05526 70.6167
9.7846 22.2567 27.6595
3.46233 20.3423 94.227
8.15678 16.2393 30.0555
2.23385 13.7181 56.3147
6.72552 11.6976 42.5222
5.031 10.113 27.6807
2.68284 7.3702 20.856
2.16886 14.1336 63.9285
6.66693 9.83613 28.2889
3.34684 18.7992 69.6791
5.66877 18.2891 47.2608
4.56168 10.1129 26.4701
2.5065 5.06575 41.744
6.88069 26.9714 55.5824
3.04542 5.5699 26.1824
1.93246 10.8418 24.4562
2.46411 16.7026 54.0341
1.59427 1.29929 26.9643
2.61525 9.24698 18.1006
3.2406 15.1456 61.4383
3.52568 7.21926 14.0942
1.18926 5.15699 18.6299
2.50144 10.0976 28.2676
2.0122 5.84936 28.4055
3.55441 20.0262 65.2174
3.53987 10.1494 35.3125
1.43538 1.84644 18.2076
3.74584 13.9362 49.2333
3.91921 8.33876 21.7845
2.5425 13.8975 44.799
4.24021 7.74122 18.3902
2.60114 33.871 142.988
11.6834 20.6963 46.3569
3.24168 10.5716 64.9599
5.61791 8.8505 24.7536
3.42943 11.8655 13.2661
1.06418 8.35996 47.7421
4.76118 18.8543 47.3266
3.13859 9.17439 36.37
2.24363 8.22165 50.0111
4.60286 10.1003 38.4198
3.34558 10.5066 51.9266
4.76625 6.64375 1.90416
1.56814 11.2751 40.9394
5.0734 16.7918 26.31
5.72236 36.1483 141.664
10.3758 15.0488 18.2544
1.27182 4.47916 26.0879
3.94215 9.94372 21.3575
1.03194 6.55067 36.3014
2.57544 3.6662 42.508
3.62402 11.8174 52.4041
4.76409 11.032 24.4438
2.45251 8.13995 9.61614
1.54196 8.93207 21.916
2.16705 13.7141 52.7972
3.19836 8.08621 40.0729
4.92367 19.7834 72.4613
4.81956 11.4793 30.055
1.55461 6.7891 25.8338
3.95072 14.2707 58.5099
4.56435 10.2952 12.0799
1.10216 5.48414 22.5224
3.99672 12.1136 24.9692
1.04202 15.2707 82.1367
5.34631 4.31939 21.7361
4.45039 14.269 47.9504
3.08494 6.36487 18.0515
2.00221 14.8745 45.234
2.57515 6.13277 27.3043
2.65439 16.5396 55.9173
4.0365 5.85247 19.0335
2.36003 12.1591 61.2866
4.14409 14.2291 65.4175
8.23209 16.0663 31.8244
3.4684 10.746 34.2518
3.18785 13.1428 44.772
4.53504 14.6372 75.76
6.66366 15.3561 46.8288
2.21186 10.3914 12.8795
2.54189 5.27658 24.8564
0.92207 1.79089 29.7949
5.16359 14.4335 21.3856
0.658794 4.9039 9.18816
1.35389 13.91 83.1956
4.09587 1.19065 39.4682
4.29841 19.565 62.6217
5.92536 20.8675 54.8784
4.71219 12.2397 27.3545
2.02086 11.9727 24.8083
2.71927 12.9635 43.3639
2.05617 8.26926 44.1625
4.88793 9.26007 9.04514
0.393316 7.63238 44.5818
3.06463 8.1372 17.2028
2.3219 20.0368 67.6767
4.29315 13.2424 76.7216
7.38164 19.1559 60.3
4.27217 2.02629 41.1659
4.33847 5.18892 16.2426
2.36598 11.0843 17.3118
0.789114 4.87358 61.0175
5.03668 12.5569 30.9168
3.42135 18.1813 34.3793
1.63306 1.40207 19.3033
3.01951 18.1706 77.0379
7.72845 19.8104 43.3441
1.69967 4.86364 31.8519
1.46403 2.81729 11.9342
0.976215 2.5719 17.6649
2.39393 7.79089 27.903
2.08727 12.2358 61.0252
6.55125 9.39173 25.3368
3.70706 19.6621 44.1103
5.05135 10.3547 37.8415
2.87174 7.80218 23.383
2.84866 10.9829 39.135
2.82699 4.60788 47.5812
5.70506 20.2135 38.248
3.70636 10.1482 46.2905
3.12997 5.5752 43.6206
5.13745 19.4867 13.384
1.08102 15.8807 60.1709
3.84583 25.6257 116.25
9.77014 15.8573 57.8963
4.77948 10.3264 66.4385
6.55534 23.5342 46.0702
4.71219 18.0001 47.5909
3.005 14.0887 21.4565
1.37584 8.94639 30.1109
1.01553 11.8787 70.23
3.71799 11.3338 32.7208
1.16336 7.51719 54.0051
4.33961 3.07473 24.6533
3.7712 7.72578 45.2082
4.29475 7.66927 7.95489
2.18807 11.7981 70.3385
4.80838 17.0607 33.7758
3.08825 10.4705 32.1338
3.30373 17.7344 65.5584
3.43925 8.15028 21.0776
3.5533 3.08375 22.0232
2.82323 2.93431 20.4922
1.92718 5.08626 4.18396
0.720587 3.63317 15.8359
1.9762 11.1723 44.9715
4.64313 19.5736 59.1688
1.8791 2.16754 24.2729
2.95253 11.7738 38.9492
2.65841 6.94769 63.5981
5.03688 14.3794 68.949
4.93483 34.7479 57.4922
3.29203 4.54674 37.7789
4.13322 18.8088 44.3853
1.26709 9.90442 54.5514
3.49202 1.41127 38.4017
3.74637 9.26411 15.6613
1.55891 2.97906 2.68878
0.259699 2.27437 9.88879
1.35006 2.75106 12.9014
1.50378 7.93528 40.0767
2.82895 16.4369 48.9664
2.53095 11.392 60.88
5.54298 8.04779 72.2498
7.54171 11.34 31.1771
3.93439 22.8118 34.2509
1.74903 2.79044 24.6801
1.58798 13.8013 50.1045
3.87783 29.0522 127.962
8.19844 10.3124 12.4003
0.839367 10.4554 35.2993
1.98869 4.62435 31.0543
2.69196 15.0087 58.8896
3.18779 2.38983 18.0335
2.04408 3.67329 13.7069
1.02737 3.14445 16.4418
3.82264 17.8359 103.667
7.30746 22.2961 35.0062
2.00746 7.70681 42.921
5.12373 17.1575 38.3428
1.45816 4.42894 16.6181
2.13498 2.52178 31.1871
3.14685 8.37946 18.153
1.34232 9.19617 35.838
2.50006 9.68275 47.8128
3.36362 9.93558 30.4252
2.07758 10.4292 10.661
1.04321 16.1026 84.7779
6.0045 13.1254 55.9218
2.64507 6.56362 9.65776
1.34458 8.2918 62.0301
7.98726 30.5829 91.5775
5.11045 7.98784 19.2518
2.26692 5.93908 24.0179
1.90973 14.0382 30.9288
0.587545 5.76414 46.9402
3.76542 10.4596 58.6732
4.60811 14.8201 16.5014
2.04637 8.03881 21.4739
1.87433 9.70029 41.8791
2.94389 10.3665 63.6702
3.67056 6.86436 14.3516
1.13933 3.7328 20.4103
1.54578 10.7358 72.7959
6.85175 25.9566 33.9346
0.833006 6.39018 15.1655
0.580616 5.86883 34.5188
3.56108 11.0021 31.2304
2.53713 7.51375 36.6247
4.08829 6.57632 22.8223
1.53004 2.65198 9.47119
0.565827 4.45117 46.342
3.19883 10.1442 23.1947
2.05361 12.2641 41.9041
2.45387 4.87595 47.3115
2.69289 9.23841 32.9233
2.5142 18.6544 53.0754
3.78661 14.8515 38.1751
2.29555 14.1005 58.8503
2.65353 2.32511 11.4753
1.44325 10.4777 56.233
4.7205 12.9188 64.8647
4.91531 24.1646 84.7496
4.82097 5.42293 25.274
2.56191 7.49705 37.8229
4.74068 25.8751 61.8664
3.26198 4.88224 25.213
1.79369 7.50902 55.2477
3.7504 5.91215 24.406
2.54907 10.9725 35.1796
1.70089 8.2171 30.1912
1.77808 4.21313 4.06274
0.25642 2.07352 20.9789
1.34699 6.35963 56.3075
4.83344 22.1981 68.5465
6.68636 9.23937 27.1163
0.627566 9.6996 49.2361
4.49138 11.2017 21.677
2.2176 9.06248 33.7098
1.57096 3.52381 6.76748
0.414292 3.64097 28.9559
2.31989 13.0708 15.5252
0.361062 12.4175 77.9025
5.83214 15.3617 26.7035
1.33911 3.78896 43.3379
3.75728 7.00704 48.567
3.67875 19.4933 48.3054
2.05621 1.72042 65.826
4.5071 18.7572 48.1624
3.32328 15.1433 68.8339
5.6992 17.3618 52.461
3.59859 14.87 22.7234
2.35442 2.19374 41.6172
4.6254 16.9017 27.7071
1.88095 13.2082 55.1161
4.75124 22.0431 64.966
3.08001 5.79966 15.2489
1.44377 8.24225 39.74
2.64216 10.9066 46.8066
3.92879 8.39207 30.6374
0.99201 4.40785 28.616
2.46816 10.6924 39.1292
2.87085 6.32691 24.8684
2.87355 8.53027 24.3276
1.96521 12.657 36.1421
3.80332 8.77724 29.9857
2.694 1.60681 26.6838
2.14314 12.7339 44.5063
2.0853 13.2522 46.0706
3.0505 8.31594 81.0605
8.57742 9.1492 46.4898
4.91723 4.34332 30.683
2.49022 5.90144 87.7983
6.83591 26.3564 24.687
1.36958 10.5865 23.3602
1.69681 12.5543 34.1337
3.27751 17.1373 62.0324
4.32555 10.327 51.8197
2.94888 23.2234 42.4992
2.09703 2.50987 20.1464
1.77458 12.7296 54.0565
3.0763 5.11127 36.6141
2.49206 7.46182 23.9645
1.72206 6.7637 12.6053
1.26476 14.628 127.134
9.22693 14.0091 7.67124
0.568124 9.31234 57.5095
3.75655 4.85428 25.5636
0.878098 4.21053 44.3348
3.03183 13.6535 21.6208
2.86519 14.4798 26.164
1.59201 10.0052 17.4056
1.20615 5.88055 50.5245
4.36065 20.3237 68.0183
3.56885 2.90144 13.2948
1.34377 7.18374 12.3069
0.640016 8.93048 34.9806
2.45223 12.4151 103.926
5.17678 7.37559 41.9917
3.004 11.6528 11.6809
0.789804 9.04405 69.3233
4.85099 20.3468 51.3147
3.6076 11.2369 29.8738
2.23255 5.92726 46.9679
4.00242 11.714 66.0482
5.87913 12.5608 28.9045
1.34698 9.59945 18.7615
1.75217 10.5173 27.1397
1.16508 3.16078 73.7648
4.11233 12.6805 21.7723
2.46967 4.64952 26.4075
2.25676 6.53262 15.9389
1.42928 9.41775 63.0957
3.68297 7.53137 20.1895
0.619356 8.11441 49.8151
4.44144 20.7666 30.2523
0.768683 8.30013 82.3437
5.5646 16.1239 32.0754
1.85393 7.35174 86.7409
5.72386 14.496 12.0482
0.909028 4.6767 57.0909
4.19236 20.3345 46.1017
1.61316 4.83668 63.7767
4.27131 9.13898 14.4831
1.23494 7.42535 65.0247
4.18537 15.4158 26.0077
1.57395 7.63827 27.302
1.48557 11.6187 38.7277
1.97151 4.45 36.5069
4.00522 8.88918 25.9213
1.24092 7.67756 36.3691
2.61421 12.0934 49.979
2.19759 3.95325 10.7859
0.616178 7.67684 42.5663
2.71137 9.61189 26.2325
1.96935 5.38752 9.90911
0.526865 4.67145 45.9313
1.22496 3.74497 8.48906
0.412467 3.82144 23.7464
1.7774 7.67194 9.40923
0.625339 7.20847 16.654
0.835475 4.62892 48.1949
2.66048 7.62258 11.8617
1.36616 5.42456 21.602
1.19556 10.0449 24.6655
1.97296 11.3843 68.009
4.22105 2.3422 18.0918
1.25304 8.80426 49.1494
2.48165 14.7657 32.918
2.83834 7.4252 19.0446
1.55068 10.3851 59.2202
4.68573 10.6729 37.4387
2.95038 2.7503 21.0913
0.822447 17.8929 118.489
8.52217 22.0008 19.0823
1.8835 7.2809 20.4732
0.51756 1.51184 31.0233
1.78609 13.2821 47.1125
3.78515 6.63666 25.8984
1.77778 12.166 72.4771
4.80248 12.6211 37.1455
2.51221 4.20155 29.4006
1.61171 18.8183 70.3593
4.29727 11.0125 15.7217
2.14079 6.91845 37.9688
2.50408 8.01717 19.8431
1.70763 1.93206 8.83616
0.906701 3.39967 30.6037
1.8562 16.747 43.9295
2.2753 14.2241 41.5672
3.10538 5.49399 42.8995
2.69383 0.818668 48.4246
3.59798 13.1401 24.1356
1.1184 4.92406 40.3013
2.94578 7.88443 37.2137
2.9455 10.2221 12.1175
1.64034 10.8282 36.4687
1.46606 16.0258 97.8132
6.20066 10.4185 79.8003
3.67736 28.6217 34.3764
2.97011 3.05273 8.9073
0.587192 9.13071 48.3655
1.61611 5.67078 15.4455
1.19547 2.23735 7.39896
0.789864 0 0