# pn-170911/RbIIR-45-RbII-1280-1959.psd
# Power spectrum* (dif=0,1,2) (really just |FT|^2)
# NOTE: only the first half! (symmetric)
# weeks: 1280-1959
# 325 clock-days, 13 excluded
# PSD: 1441
63760.4 1.32232 0.0533932
2.15421e+06 53.2124 0.170917
2.98759e+06 51.4453 0.158459
829598 17.5477 0.180966
567844 18.3224 0.151489
345254 10.1458 0.163352
237597 9.9977 0.155841
162424 8.35631 0.162539
130698 10.2128 0.130617
102869 8.14825 0.154826
79190 8.70601 0.135517
76465.3 7.87906 0.163185
54439.7 9.78489 0.148952
52130.3 6.61868 0.144515
46028.4 9.40355 0.151103
41485.1 7.53121 0.161992
36234.4 12.114 0.138165
31650.7 7.35402 0.155789
34764.3 19.9668 0.177751
25071.5 6.56767 0.158674
20935.6 15.7762 0.179273
26262.5 7.59113 0.167692
26091.7 21.6231 0.206252
14913.9 7.20859 0.160942
16801.8 16.0534 0.178548
13858.7 8.04298 0.183904
15714.3 19.7843 0.199591
11808.7 7.45445 0.157668
14104.2 18.8184 0.219843
9796.62 8.53855 0.187539
11256.7 18.7106 0.235335
9394.96 8.30397 0.184896
11390.6 23.5981 0.233784
7217.97 8.9304 0.201194
10602 21.3249 0.272646
7184.33 9.16821 0.193551
8872.07 24.8474 0.288029
6709.17 10.1767 0.214293
7786.41 21.7551 0.325812
5895.25 9.82937 0.22782
6832.1 20.8532 0.286325
4483.28 9.62786 0.241733
6902.31 26.082 0.354233
4483.75 10.7704 0.258942
5271.67 20.0583 0.351569
4384.21 11.0058 0.269884
5941.95 26.6156 0.401774
4613.87 12.0712 0.300315
4684.39 25.3705 0.408376
3938.19 12.1251 0.282546
4998.67 25.2312 0.427946
3859.71 12.9916 0.285701
4426.54 27.0378 0.456025
3254.3 12.573 0.31653
4881.07 32.4221 0.567532
3258.81 12.5206 0.300905
4197.48 29.4026 0.565511
3482.38 13.8293 0.372868
4171.36 26.7184 0.597069
2876.73 13.2401 0.379545
4033.87 32.3415 0.705946
3054.93 15.318 0.416005
4013.04 33.3844 0.782023
2895.34 14.5995 0.38571
3444.22 29.9962 0.74183
2808.17 16.7126 0.47987
3638.39 35.9576 0.889994
2690.86 16.4936 0.516921
2686.15 28.0212 0.771338
2475.26 18.7056 0.567609
3151.9 36.1066 0.951155
2196.24 18.6648 0.57663
2708.56 33.3626 0.987608
2039.61 17.7211 0.644419
2641.01 31.1135 0.951399
2165.56 18.5649 0.677849
2519.61 30.6763 0.980058
1888.67 18.1796 0.660955
2181.12 27.9724 0.973504
1925.6 19.3429 0.714524
2089.61 30.3104 1.15828
1715.29 19.3165 0.753905
1996.11 31.7609 1.21882
1474.67 18.5782 0.784789
1847.79 31.2619 1.20329
1688.27 19.2638 0.831344
1753.67 35.6989 1.43456
1514.7 20.4006 0.914125
1812.47 31.8453 1.35282
1402.66 20.5072 0.922982
1585.32 33.6004 1.3986
1423.14 21.0336 0.971009
1572.82 33.4328 1.5397
1273.14 19.5627 0.937561
1595.7 28.9953 1.39595
1424.38 23.1483 1.18172
1473.71 34.1044 1.65846
1377.58 22.0241 1.09702
1649.88 35.4565 1.70103
1085.93 21.6325 1.15847
1335.89 30.0013 1.49284
1422.15 21.6964 1.18236
1424.88 34.1491 1.82538
1216.31 22.1346 1.16066
1386.85 36.0324 1.94513
1158.85 21.2626 1.3049
1109.69 33.6026 1.93789
1162.41 23.2805 1.39338
1167.63 33.9747 1.94921
1063.45 23.2054 1.44865
1147.2 34.1667 2.1092
1091.65 23.6352 1.44934
1242.08 33.4507 2.14216
849.517 23.3682 1.55473
1049.3 31.0666 2.06786
968.49 21.7042 1.46482
935.356 35.3722 2.3395
772.067 24.2292 1.64504
1047.93 33.869 2.34654
801.381 21.1071 1.53128
1039.24 30.616 2.27284
775.195 23.8482 1.79947
839.798 32.1215 2.4063
1001.1 24.6534 1.8434
903.494 33.2952 2.51393
852.93 23.5102 1.81062
939.804 36.8874 2.87247
729.59 25.3222 1.98541
860.335 33.2399 2.74172
718.605 26.2415 2.12523
917.704 35.8384 3.04463
784.497 26.0901 2.20368
761.17 32.8394 2.95558
778.155 27.1033 2.3222
779.115 30.7819 2.62662
740.535 26.5354 2.4381
853.896 30.039 2.73412
661.736 24.2105 2.25254
744.877 35.4126 3.34043
724.888 26.2208 2.40349
759.841 31.8727 3.05057
700.075 25.6711 2.51433
592.391 30.9996 3.08242
641.681 25.8259 2.71342
733.329 32.6943 3.34719
642.212 26.7971 2.76721
640.802 33.6768 3.51679
655.877 26.0002 2.80822
626.641 33.776 3.6766
586.184 24.9253 2.87581
618.755 33.6636 3.61166
558.992 27.0469 3.09623
686.39 34.7325 3.91922
663.021 30.0904 3.39328
639.952 32.271 3.80664
546.381 27.5809 3.22775
615.057 38.3501 4.45525
597.419 31.5646 3.68335
570.313 31.1157 3.69644
509.774 27.6073 3.38808
554.104 36.9371 4.54248
486.953 28.7148 3.65376
532.17 33.4721 4.3639
518.993 28.6134 3.51102
575.105 31.0005 4.11545
544.534 28.2765 3.83215
549.342 40.2581 5.18959
457.316 32.587 4.31083
564.209 32.8747 4.49436
463.184 30.3246 4.01787
486.789 33.0163 4.50943
385.747 30.2631 4.14646
413.265 33.5703 4.75682
494.02 27.6966 3.82789
448.75 33.8162 4.93059
398.845 31.0465 4.55589
433.865 32.6098 4.96731
474.716 30.0086 4.34648
473.891 35.0387 5.37605
425.141 31.8357 4.79143
474.117 37.6959 5.7867
478.924 30.3025 4.77152
406.287 33.6236 5.3876
458.045 34.2008 5.44013
485.581 37.9112 6.18378
497.297 36.2679 5.90264
403.402 34.74 5.61266
485.264 30.5657 5.07345
385.299 36.5273 6.30976
377.91 32.301 5.32714
419.068 31.3953 5.57603
477.904 33.7214 5.82268
395.768 38.3067 6.67804
438.657 32.0027 5.44875
415.396 33.2979 6.04833
387.654 30.1036 5.24183
378.048 32.1596 5.83293
450.391 32.085 5.7596
292.902 27.8548 5.26561
360.31 33.5364 6.17755
406.134 36.8213 6.96941
351.273 31.9456 6.19271
320.962 35.1427 6.91443
378.786 32.8309 6.36587
353.641 36.7454 7.40072
337.965 32.1384 6.397
383.258 34.7644 7.14969
349.572 32.7164 6.61116
350.896 33.305 6.97293
360.389 33.9033 6.65839
332.825 34.1094 7.07784
343.246 30.7407 6.30009
378.116 38.3965 8.05184
324.109 33.2256 7.03959
371.745 38.3572 8.30693
301.699 35.6475 7.55577
330.765 35.9959 8.05128
331.942 33.8573 7.5174
339.744 37.3343 8.44072
314.552 33.1953 7.42743
316.352 33.924 7.86361
334.232 30.1947 7.00343
312.879 35.4957 8.27294
325.691 36.1972 8.24184
325.325 36.5186 8.71599
331.603 34.1415 7.95871
309.787 37.6079 8.97423
295.759 34.4584 8.38483
289.983 37.2824 9.14729
304.997 36.2497 8.86887
295.523 35.2766 8.81706
290.727 35.0228 8.71744
291.573 34.2777 8.75336
291.401 35.6362 8.79661
267.441 36.1239 9.32318
255.105 33.0395 8.3521
248.408 32.3195 8.5674
267.422 32.0257 8.27388
296.565 37.2603 9.98651
285.365 34.1654 8.91038
268.852 36.7017 9.89029
283.933 35.349 9.57404
267.647 39.8175 10.9889
245.581 35.8735 9.84545
222.964 34.4734 9.7355
260.196 33.3072 9.27296
265.84 38.2131 10.6811
237.941 34.2793 9.61784
244.43 38.8597 11.2762
270.02 35.7797 10.061
244.576 34.3507 10.0844
259.618 34.5401 10.0916
250.645 39.358 11.6477
232.612 34.6999 10.6752
253.192 36.157 10.8612
214.743 36.2794 11.0815
252.887 31.0754 9.87512
234.694 35.1649 10.9067
249.302 37.2319 11.4654
219.652 33.0605 10.2718
262.322 40.1871 13.0251
230.826 37.5603 11.8351
210.028 35.0576 11.4092
216.155 34.7141 11.3307
229.068 39.8074 12.7321
208.338 34.0137 11.0021
260.053 37.7056 12.4537
248.91 36.3976 11.9346
195.761 34.9623 11.7226
246.649 35.8643 12.0414
215.824 34.603 11.6976
206.835 35.0979 11.9969
213.512 34.3114 11.9265
209.345 33.807 11.3988
225.025 37.2772 13.1666
215.177 38.2225 12.9749
198.658 37.649 13.5577
216.615 32.9001 11.6866
199.62 36.5055 13.2177
203.614 37.5415 13.5932
178.177 33.7946 12.437
208.305 38.8575 14.2175
195.943 36.0126 13.1363
189.859 36.4286 13.671
191.545 39.0774 14.4302
153.667 35.5927 13.6647
154.286 34.7918 12.9392
209.868 35.638 13.693
171.559 39.8557 15.3785
158.596 41.196 15.5977
192.744 42.365 16.6399
154.996 33.1076 13.2331
178.448 37.9194 15.0985
193.528 38.4742 15.1489
176.112 36.2468 14.4748
180.496 35.5385 13.9532
177.235 34.8184 14.2591
182.99 40.3834 16.1321
166.604 36.0763 14.9614
198.001 37.2736 14.8049
170.547 39.1675 16.5354
186.167 35.8242 14.4296
161.114 37.2929 15.9823
193.247 40.0369 16.8636
182.472 40.0042 16.9501
170.674 37.9469 16.1057
175.428 39.072 16.5028
169.446 39.8521 16.6966
147.409 33.9023 14.9497
190.147 37.6727 16.3843
178.301 40.7464 18.2512
151.967 34.9323 15.7627
143.781 32.8527 14.3998
159.041 35.5133 15.9553
143.57 38.8953 17.819
164.561 35.8814 16.4698
147.876 36.7827 16.9336
147.389 35.581 16.3648
137.548 36.6569 17.1858
155.509 35.8737 17.0385
156.141 39.8048 18.3495
138.402 34.0359 16.5926
187.876 41.6494 19.6638
147.922 34.8529 17.0937
148.773 37.3116 17.6324
155.268 37.6495 17.8872
159.258 39.3332 18.6143
150.288 36.2157 17.3862
133.938 33.6962 16.5704
126.673 36.2773 18.0738
144.474 36.9781 18.2577
118.748 33.8094 16.9904
138.657 38.7056 19.799
122.329 35.9 18.7028
133.882 37.7426 19.1937
157.351 41.1052 20.4185
132.351 39.5159 20.5293
123.607 35.8821 18.4966
136.258 38.0774 19.9165
145.332 40.5531 21.3059
124.64 37.0181 19.7452
122.175 35.9469 19.1817
133.8 39.343 21.1561
130.983 36.1452 19.0158
133.225 35.8076 19.4782
132.481 34.0012 17.962
143.495 36.1318 19.7576
131.092 38.4756 20.3646
119.133 34.995 20.0546
139.615 37.7825 20.3938
132.344 34.5583 19.3885
137.932 36.6717 20.5187
131.962 34.9399 20.0872
151.477 39.7962 22.1185
131.051 38.2782 21.8762
153.352 41.1996 23.2309
139.722 36.4268 20.7609
125.656 35.3608 20.6872
130.92 36.5312 21.6667
142.85 39.4938 22.423
131.519 41.3809 24.2778
112.727 35.2995 20.4245
127.161 37.2156 22.2015
134.123 38.8059 23.0914
128.886 38.1452 22.6201
103.772 33.6775 19.365
118.832 34.4733 21.4122
123.964 38.6982 23.29
115.668 35.6508 21.8742
110.676 34.5283 21.3101
106.407 34.5029 21.0317
116.606 39.24 24.246
122.947 39.2044 24.8594
115.978 38.6045 24.5989
110.132 36.171 22.1718
114.294 39.8813 24.9127
106.577 37.5335 24.577
108.644 35.2983 22.7131
101.72 37.7188 23.9486
114.189 36.327 23.6312
113.657 36.6641 24.3468
114.583 38.0105 24.4226
120.263 38.9332 25.2973
108.541 37.1501 23.9593
108.2 44.3913 29.7392
118.207 34.9035 23.8411
118.626 41.3731 27.8779
102.982 41.9635 28.6955
119.668 39.2387 26.247
123.987 40.6159 27.0093
113.604 40.4628 27.2838
115.854 38.9793 26.4978
101.257 37.0483 25.8599
115.844 37.2621 25.0815
88.3467 33.7497 24.8598
111.588 37.4111 25.6869
94.8119 34.5424 24.4671
112.452 36.6278 26.1061
100.322 37.0054 26.5239
114.067 37.9134 27.321
117.204 39.1063 27.6791
94.9902 37.6208 26.5196
108.88 39.8246 29.0812
113.685 36.4525 26.0749
94.9805 39.289 28.6939
93.9815 34.2238 25.3478
102.165 36.4585 27.0889
102.823 38.0172 27.9847
104.105 37.0203 26.927
88.2121 35.6757 26.2877
99.311 37.0878 28.0199
106.215 33.7385 25.1866
94.201 39.1901 30.5038
101.143 35.9012 27.3659
91.5153 32.5485 25.1069
84.7038 33.4153 26.0602
98.5751 37.3688 28.9488
90.4703 37.0795 28.5429
99.8768 37.5358 28.5911
94.3351 37.9613 29.2592
87.6769 36.1284 29.0774
85.9311 37.1771 28.942
83.9745 37.1117 30.5779
88.9796 37.188 29.0459
90.9127 32.6 26.2832
91.7972 38.5448 31.6133
91.7739 41.9195 32.3737
92.3754 38.4749 30.621
97.8435 39.4134 31.8799
93.5119 36.8473 29.8152
78.7643 38.2695 29.9875
84.3113 33.99 29.1018
95.5928 35.8393 28.857
84.2725 35.4462 29.4673
86.6562 35.1636 29.6438
87.5378 36.8138 29.335
85.9818 36.2054 31.7974
90.6111 37.1811 31.7645
92.6006 37.0865 30.9822
88.2549 35.9521 31.4187
88.9162 33.9622 27.7368
89.1949 37.712 33.6113
87.033 35.2725 30.5808
94.12 34.1697 28.2688
85.8267 38.709 33.0782
92.7796 35.8243 31.1685
81.71 39.0466 34.4917
84.9567 40.819 36.2512
72.8468 39.2247 34.4424
67.0938 33.0413 30.0373
82.6253 35.0034 31.4334
81.0824 37.3173 31.385
90.1937 38.2915 34.5986
88.7242 38.7144 33.8222
68.8313 37.703 35.4198
85.8148 40.2419 35.9725
105.164 36.9081 34.1078
74.9268 37.9654 33.7571
77.2137 35.3194 32.4978
70.0313 35.6413 32.3225
71.963 37.4577 35.2239
88.1912 37.912 34.3145
76.4391 34.6866 32.5576
70.8426 37.1689 34.5279
74.8252 37.6657 35.431
77.0714 38.7572 36.5927
76.596 38.2599 36.6913
71.5646 36.608 34.8856
77.5513 38.2789 37.4291
79.149 35.4971 35.2416
73.8425 38.685 35.176
73.8278 32.5886 32.1879
72.5472 39.6753 37.7702
86.2533 44.2869 41.3845
74.8428 35.3079 35.4215
77.9535 38.4569 36.6116
67.1643 33.5881 33.7686
70.6945 38.8528 38.3717
80.3812 38.338 39.0228
76.2527 37.598 39.0389
70.1056 40.5465 40.5149
70.1861 34.4678 34.5091
76.1176 33.8783 34.6781
69.3443 36.2895 36.2078
80.1486 36.8783 38.6732
80.5452 38.2458 38.084
66.1884 35.6679 37.325
79.4579 36.5417 37.2766
69.3481 39.1705 38.0755
72.3328 37.486 39.023
67.0724 36.9091 38.7723
77.7129 38.8041 39.4693
78.1379 38.7151 40.4328
63.4455 35.1681 37.5899
74.9429 34.6201 37.759
73.0763 38.5444 41.7802
70.9832 40.5372 42.0843
78.5293 39.7538 41.4002
68.1075 36.0242 40.6982
75.593 36.453 37.9573
71.1551 34.8988 37.935
66.6531 34.7404 36.0128
63.5564 36.0838 40.0595
71.4799 40.065 41.9612
68.8371 36.6461 42.6134
65.0102 38.3787 42.6775
66.9174 33.9756 38.098
62.3531 38.803 42.7093
67.9186 36.2586 39.6418
71.9944 38.1571 40.6038
63.1088 36.2442 39.8808
70.743 38.2105 42.3603
66.9196 36.8024 42.7112
64.3208 38.8678 43.602
72.1894 36.0343 41.5712
66.8378 38.4983 43.2649
66.1093 34.1438 38.5412
69.3195 39.2684 43.4959
60.1841 37.3682 43.127
62.2729 35.8986 43.0256
60.9959 34.1905 40.0513
69.5037 35.9334 40.4092
64.0401 36.1689 42.5005
63.1834 37.1227 43.1692
58.2868 34.2758 39.3736
66.6712 36.4393 44.8325
58.972 35.4695 42.926
70.7208 35.5414 40.5654
58.6597 37.4708 44.5746
62.019 33.9305 40.3748
61.3936 35.6402 41.8504
57.6878 36.6366 42.6643
59.9195 37.0901 43.2281
58.7468 35.2392 42.6442
60.1983 36.6698 44.516
56.5263 36.4701 44.4977
57.6265 33.732 41.4226
63.0671 35.828 43.0409
56.5949 34.9101 44.3746
65.8296 35.3672 41.7633
57.115 33.3093 42.7105
57.8618 35.2056 44.0122
58.5711 33.3335 40.5918
59.2267 36.3935 45.107
54.8857 31.9553 39.8977
58.789 38.2683 48.8902
56.2509 31.5502 39.4256
53.6014 36.1166 44.3219
61.7966 31.7544 40.7284
60.515 39.8557 49.1105
48.9381 35.5245 44.4563
57.0893 35.3205 45.5376
55.5119 40.7915 54.1093
53.1285 35.407 46.0075
58.4945 36.6235 46.7945
56.0897 33.3232 44.7181
50.7304 36.5612 47.9951
64.3659 35.6425 45.4208
61.9427 36.9712 47.3477
54.4867 39.1046 50.3551
52.5152 39.3745 52.5944
56.6873 31.056 41.5358
54.0855 35.717 47.4155
60.5107 37.6526 48.3391
54.9382 36.7754 48.7709
58.5592 39.9097 51.5093
55.4317 38.7233 51.9924
59.1365 36.1306 49.6374
47.3081 31.7606 42.4095
55.7021 36.5967 49.5298
50.481 34.7279 48.5833
55.5761 39.2179 53.0337
47.537 33.8064 48.0544
43.8011 34.0369 46.308
48.5892 39.1181 55.985
67.8821 34.1904 45.5532
48.5476 40.9454 56.7409
48.9142 37.978 52.5402
53.3104 35.9267 49.0132
50.9449 35.1856 48.3877
57.1326 36.8946 50.7564
54.3415 36.4248 47.7309
48.3104 35.4198 53.7028
51.0619 32.8137 47.8933
50.8014 38.9085 55.9349
46.0741 36.2396 50.5967
47.5507 32.4411 44.4103
49.4022 35.7509 53.2138
48.9705 38.5797 54.5513
51.5356 36.7267 51.5112
47.8006 34.5576 48.5803
47.4711 30.9445 46.8327
45.4098 34.4249 50.5584
47.4683 33.109 47.0626
43.7818 31.5328 47.2692
43.8483 34.6937 50.9981
48.322 38.4866 54.2553
50.0129 37.0618 52.9708
47.2575 36.5161 58.0611
51.7 34.8718 51.2744
43.1458 34.1035 50.0284
49.5523 36.5675 54.5737
46.1307 35.1396 50.5852
47.7641 32.0391 48.4705
48.1209 36.5622 54.2628
43.9357 32.902 51.1864
39.6455 33.327 49.2478
47.9377 33.6691 51.149
44.5965 32.4393 48.8066
49.187 34.6034 51.3216
48.3807 37.5761 60.1797
50.0129 38.6885 52.0473
43.4542 32.6716 51.2098
45.5454 33.9354 52.7238
41.8182 36.0373 53.821
37.3657 31.8506 48.9773
41.681 31.425 48.9914
43.4292 37.4655 60.3887
50.482 36.6331 57.7802
41.2888 35.3605 53.9272
47.7418 36.6957 54.5758
42.9571 32.6641 53.4674
46.4441 34.655 53.1635
45.2828 35.1047 56.7379
41.8513 36.6998 57.4941
42.1362 33.8532 53.5462
43.2379 33.7817 55.2366
45.5537 35.3615 54.6042
43.7381 35.2765 56.0931
44.5602 35.1734 56.9683
41.969 29.3678 47.8428
42.7928 34.8919 57.9173
42.8168 33.9342 53.216
43.6785 34.8495 54.5581
47.7677 38.4006 61.8699
46.6367 36.9369 56.4823
43.1495 31.5421 54.0632
43.8475 37.0101 61.3829
42.5874 34.2166 57.3436
42.672 34.6288 59.4252
41.5143 35.879 62.2818
45.9986 35.365 55.3469
40.9875 30.1044 50.0147
41.1787 33.7617 56.4122
40.9754 32.4617 53.8986
43.9519 32.0633 53.1712
40.5346 31.488 52.2084
44.7541 33.7733 55.3899
41.8547 35.5997 62.1495
38.2155 33.7297 54.8442
42.9806 33.7895 56.7747
44.0393 33.2759 56.4048
43.1115 32.9931 53.4903
38.5657 34 62.1019
42.5873 35.0336 58.3499
39.8554 32.0281 57.8422
44.6276 30.995 53.5042
37.9719 31.9614 55.8968
40.4769 35.6467 61.3942
39.6812 30.9356 55.765
42.8984 32.6499 55.4645
44.2452 34.4876 59.621
32.8364 29.6208 53.2681
41.6756 33.2421 58.5407
41.9002 33.9882 58.3459
38.5312 32.8347 57.8854
38.6466 32.3467 55.9933
41.5314 34.7289 65.7769
39.9519 34.0038 59.3799
34.3673 33.308 59.9014
41.0893 33.8254 59.4876
39.4042 30.9368 57.3264
38.1571 35.3789 60.9127
38.8446 34.9303 59.1566
39.8194 33.6556 63.1915
35.3494 33.6934 64.3144
43.4802 33.2871 59.3399
42.1066 33.7276 59.4018
35.1466 29.4119 51.4146
36.446 29.7863 56.2339
40.7059 33.0123 57.085
35.2854 31.0931 57.1
36.2348 32.1698 58.1719
39.0777 33.3195 64.652
38.632 32.6749 56.5192
38.6424 33.8868 63.7245
36.2506 32.8614 60.6284
43.4599 31.4222 59.7442
43.6452 34.1264 62.4779
38.4258 30.6511 55.2356
38.005 32.6264 62.1218
36.5875 31.8341 59.8426
32.9384 28.843 55.1737
38.2783 29.506 55.9215
38.9282 33.4658 60.6371
36.9581 33.4253 59.9696
34.2322 32.338 62.6275
35.2813 32.386 58.6857
38.4529 33.0025 62.7688
40.8435 30.027 55.9966
30.5746 31.4855 63.7996
38.5447 33.6453 61.6404
35.8501 30.6868 59.9238
34.6224 28.7881 59.2982
35.6081 30.7124 59.4014
37.1473 28.8811 58.3362
37.6969 32.2593 61.8851
37.0444 33.7645 62.6377
33.5323 32.4362 64.387
38.9638 33.4314 63.0768
31.1885 28.4758 54.887
36.3722 30.6487 59.2049
30.128 29.7681 57.0844
29.8357 33.756 66.3471
32.0909 28.8563 59.3426
36.5882 33.0178 61.9569
36.0154 31.0369 66.8648
38.1022 30.1134 62.77
31.3755 30.809 57.3383
34.8806 34.5617 69.9579
37.745 35.3316 71.0965
36.8389 31.8706 61.8687
37.3223 33.1149 62.5146
30.0161 31.476 60.8578
31.4699 31.8168 65.9268
34.1846 30.6711 62.3692
33.5455 30.6698 62.4034
36.129 31.3067 65.6933
33.7932 29.9597 60.5616
40.314 30.3948 60.8139
33.0374 32.6557 65.0153
35.4319 30.8395 59.6211
32.7999 29.5399 64.0746
38.3101 33.9796 67.9022
34.358 30.0147 60.9132
32.7326 30.3928 65.7707
34.0811 31.3537 63.5966
32.0182 30.0155 60.9801
34.3738 31.3145 64.4149
31.3418 30.778 65.6339
37.1487 30.0434 62.1436
34.1727 29.613 60.6703
31.7957 29.3308 57.5554
31.6274 30.4294 66.0945
35.6635 28.8644 57.6426
27.6194 31.7759 69.6498
33.9817 29.2672 59.5821
30.2076 30.6901 67.8762
31.325 33.9013 67.584
27.9769 28.6814 63.692
31.4639 30.5841 64.3445
29.1117 30.8417 67.9572
27.4782 29.8502 63.9541
32.567 30.7703 62.6515
30.3418 29.6913 63.8051
29.5991 31.9916 64.8337
33.1314 25.9156 62.4853
31.3815 32.0777 68.6275
28.3406 29.3637 61.5635
26.8274 28.5986 62.2409
31.1426 31.3534 68.0137
31.8442 29.7158 67.3008
27.4287 29.6121 61.7783
28.9509 29.0535 58.9469
27.7381 27.0776 58.9776
27.6367 29.3125 65.5877
30.9992 30.2442 65.7487
32.542 28.1472 64.2443
27.5245 29.677 64.6787
31.5165 29.7181 65.865
30.4977 30.0683 68.1219
28.1007 28.544 64.8833
30.7498 30.112 68.1655
31.2346 29.17 63.889
30.4212 30.5461 67.1679
29.4549 27.7567 59.8784
27.5418 27.6593 64.1616
30.0603 28.0829 61.8624
27.8908 33.087 74.2639
33.951 28.417 62.8964
29.0014 26.9108 62.4724
28.9726 27.4919 60.2471
34.8412 29.4348 66.3669
32.4296 28.2995 64.0307
28.0778 29.0398 68.6524
32.6984 29.3829 65.8755
31.2394 30.5487 70.7958
35.5294 26.7226 61.2539
28.9848 29.3202 62.4777
25.9566 29.4063 70.6505
28.9947 26.9131 65.4945
30.3934 29.2832 64.4729
30.6029 26.2267 58.8184
27.0771 27.8208 64.4763
27.3408 25.5029 60.5631
26.113 27.4052 64.8539
25.0634 26.3555 63.9527
26.5498 28.5576 66.6296
28.2858 28.9607 64.9608
28.4229 27.6634 64.9478
27.4996 28.6081 61.6931
27.7925 25.3942 61.8498
28.8351 26.5493 62.374
27.0006 26.5679 63.7674
25.3881 28.906 69.537
29.1734 30.0922 68.9044
27.1704 29.5567 73.6204
25.675 27.9109 61.8402
24.9985 27.6672 66.596
34.4209 28.4607 70.0209
28.0269 29.6597 65.3393
29.2593 25.0473 61.2864
24.9703 28.0494 64.6425
29.6962 26.3853 61.8627
26.8804 28.4297 70.2803
27.6413 25.3855 66.9982
29.4524 30.2209 72.4297
27.7458 28.4616 65.4636
25.3972 27.0761 65.3989
27.72 27.2055 65.9651
25.4285 27.3109 65.8649
26.7246 28.0358 64.2669
29.3925 27.6121 71.9255
27.1509 27.7989 67.6727
26.3516 26.3174 59.3281
27.2595 29.4077 77.9962
25.9387 28.559 72.5784
33.0224 27.3511 66.6082
29.8357 27.9749 63.5849
26.0037 25.9954 64.3323
26.194 25.1079 63.7621
24.044 26.9984 69.1347
28.2931 29.201 74.3196
27.9485 29.164 69.9862
25.9628 26.3013 65.1915
25.0538 25.6727 67.4145
31.5863 27.0276 64.8623
23.3711 28.4002 69.0143
22.8425 26.5393 70.8085
26.1553 26.1904 66.4018
25.8209 24.437 65.9528
24.9203 28.5231 69.5191
27.5572 27.5379 68.304
26.8911 28.3352 74.5606
24.3089 25.6894 65.8518
29.5886 28.0973 72.0401
28.9864 26.7171 63.0688
22.9321 28.1252 70.7679
27.3072 27.486 63.9815
25.9213 25.6232 68.9263
28.993 25.6832 64.1835
28.3836 25.8998 63.2325
23.5824 23.4592 61.2669
28.1905 25.7367 65.4029
28.6754 25.2309 66.7305
26.9737 27.6768 71.678
25.7786 26.595 68.5788
26.5331 25.9573 65.4744
23.1343 23.3698 64.8224
25.4034 28.6665 67.0729
24.1972 25.9431 65.7967
23.3733 24.9434 62.3509
25.726 25.3292 68.8123
40.7485 26.9922 78.4554
25.6298 29.3196 73.137
27.3259 25.6239 67.8093
30.6896 24.5398 64.4452
29.6947 25.4042 70.1266
28.0027 25.5973 64.8791
25.1332 25.7515 66.7441
26.1666 26.4415 69.8918
25.1718 25.9743 65.5112
23.4456 25.8481 64.5478
21.6231 24.8398 65.5593
22.3537 22.066 58.5904
20.8929 22.4627 63.0761
21.2386 28.6147 78.2756
24.8993 25.8031 64.2196
25.2457 24.2198 68.7685
25.539 25.2563 64.3521
24.6867 24.401 69.9074
26.0715 27.8089 68.4403
23.1451 23.4165 62.8224
21.754 23.4777 64.3166
22.8768 25.3601 68.1796
24.1278 24.6017 75.882
22.7314 29.6666 78.2834
24.5985 26.4874 65.7178
22.4678 25.1612 67.0613
21.4688 27.3214 73.031
20.1683 23.1289 69.8091
23.9795 24.2403 64.982
22.4154 25.6821 70.0229
24.8584 26.3191 69.4644
20.4948 25.2364 68.8508
24.1253 22.9159 61.3594
21.4634 24.781 71.5327
23.9002 25.0215 72.5333
25.2203 26.4218 69.026
28.2915 27.1976 74.3057
22.5889 25.0964 70.0475
22.2186 26.019 69.2673
22.0656 24.9553 73.2851
24.7093 25.2107 61.5323
21.0914 23.5539 67.0563
23.0847 25.2702 70.3916
24.5038 24.775 66.6898
20.5753 22.5207 62.6644
22.5457 25.5021 73.804
24.0475 28.1746 81.6261
24.5196 25.7197 68.335
23.4197 23.795 67.5955
24.0412 24.6652 71.8894
21.8712 25.8488 71.5345
20.5033 24.8239 67.0583
25.2826 23.835 65.8977
21.4596 22.5518 72.9436
23.6032 24.7814 71.4166
21.8118 23.4453 64.8408
22.6159 24.3208 72.0005
21.7031 26.729 69.602
21.4616 23.977 67.4438
22.7718 24.5312 66.7934
20.9721 23.9097 69.5809
21.4946 23.5276 68.1962
23.7778 23.8283 69.2064
24.5495 23.7564 66.776
20.6095 23.923 69.2379
20.2409 24.5026 68.6426
25.6147 25.3669 73.6843
22.7212 22.0294 60.8627
20.1496 22.9089 64.5671
22.7022 23.1557 70.7224
23.5115 24.8495 73.1138
23.2642 21.0765 55.2361
24.197 20.7048 59.9272
20.2137 23.1318 65.5553
17.7992 23.1822 71.6574
21.3399 24.349 73.3878
25.0179 26.8 74.377
20.199 22.6144 67.6457
20.0387 22.1726 67.6897
21.3553 23.7282 69.9087
24.2322 23.4914 69.3812
23.3514 24.8181 68.653
19.8946 23.3461 67.8907
22.235 23.1597 68.6375
24.3813 23.2619 68.0557
22.9426 23.1683 62.6896
19.4882 23.0082 72.4689
19.9575 23.6961 70.3493
24.5736 22.6844 68.8685
21.5813 24.1967 73.5971
22.0211 24.2051 74.0548
22.1684 23.9478 69.0401
18.9876 23.4395 68.7917
20.0578 25.1474 73.5503
19.019 23.7051 71.5787
22.566 22.2436 65.1972
20.3461 24.0817 80.2756
19.5094 27.3299 77.1785
19.6519 23.885 72.4266
21.632 21.289 65.1236
21.382 23.7244 69.2392
21.2482 22.847 69.0494
19.9198 23.3363 72.1521
18.6658 24.8804 75.2254
18.8893 20.2744 61.8052
18.4842 22.2851 68.0992
18.4991 22.2197 66.899
16.8623 23.1567 74.3177
21.882 25.9798 71.3904
17.3374 24.0251 68.7937
18.8056 23.3156 71.7579
18.6197 22.1149 69.4647
20.1624 21.0289 68.2409
19.4682 22.3755 63.9179
19.5774 20.3687 63.1322
18.5059 22.9653 67.6756
19.8668 20.0508 66.8043
21.2466 23.1514 70.1178
20.7676 23.7184 66.4483
19.411 22.5147 65.5607
18.7804 20.9586 65.0507
19.2868 22.7532 75.7325
22.1378 21.4309 65.246
18.3959 20.1859 68.2051
21.8184 23.5297 69.8521
18.6422 22.1511 66.0045
21.2248 21.715 63.8126
19.2935 22.806 71.0931
19.149 21.7668 69.6386
17.3467 21.0838 65.1666
19.0841 21.8542 66.1899
20.0259 25.1736 74.9954
18.4968 23.3701 75.777
19.5538 23.0873 76.5552
18.9505 23.5027 71.5524
19.4421 23.9944 77.6377
18.5554 23.6868 77.6593
20.5647 25.8616 74.8444
16.5127 25.4351 77.7105
19.2466 23.146 79.5201
19.7242 23.5713 74.6475
20.3512 22.478 63.606
18.4983 23.2273 69.0651
17.3742 22.5045 75.3849
19.5241 22.0643 70.3674
17.9103 21.1232 69.1607
20.2211 20.9905 70.2667
18.7644 21.0547 64.5371
16.5051 19.9623 67.953
19.0694 22.3425 66.8173
19.3556 21.6974 70.0008
20.8595 19.786 64.5703
20.5138 20.9847 67.8937
20.7967 20.344 62.261
19.8124 22.6616 72.3631
20.0096 22.7364 66.7132
21.5183 19.6491 62.6308
17.3016 20.8871 69.3351
22.2192 20.8787 69.4014
20.3169 20.6885 66.041
19.7948 22.758 73.0496
18.5508 21.928 69.6156
18.1157 20.1327 62.7917
18.3017 21.8821 71.647
19.2708 19.9851 63.6616
19.2508 19.9787 71.0016
19.5626 20.9061 65.0684
16.3314 21.2355 66.8804
17.9349 21.429 72.8118
24.7448 22.6782 69.1
16.7422 21.232 70.9769
20.4397 23.7013 75.4843
19.7861 23.3362 76.265
17.1922 21.5732 65.7569
17.9524 19.0363 64.358
21.6431 21.1896 64.3072
16.6516 21.8448 77.1018
18.6818 21.9828 69.7393
17.825 21.8623 68.399
18.1695 20.56 66.8985
17.3225 19.4558 68.2749
17.8062 20.5923 61.9286
19.3683 19.8229 67.3292
16.7897 21.2045 69.5321
16.6302 20.9296 74.3153
18.4254 22.4123 70.5716
17.7287 19.6842 63.6095
15.8199 21.1096 71.0203
15.9693 20.5056 64.8451
17.6892 19.8198 72.9242
17.2964 21.0687 66.1268
17.0761 21.1488 69.1557
17.2834 24.036 86.7233
17.1771 24.9548 74.4388
20.6715 21.1504 68.3665
18.6523 20.4462 69.8959
16.6845 20.0112 72.4966
17.8618 22.6298 70.4354
19.7421 19.3196 64.6519
17.4294 21.4117 73.052
18.4408 20.8237 72.5518
19.3947 23.1314 74.4949
20.5175 23.0121 71.7663
17.7171 20.3524 67.8459
21.3079 20.1147 72.9116
19.9611 21.4705 66.0704
18.2662 19.9515 70.5966
19.7661 20.4002 69.6262
19.5799 20.3459 72.5509
17.5273 21.0191 68.1996
18.2192 19.9062 66.2241
19.0917 21.8708 74.3401
19.9292 22.1952 70.1046
15.2167 19.0712 66.264
18.6537 20.2333 68.6749
17.079 21.74 74.9298
15.9699 21.5617 69.2923
17.5716 20.9302 78.2465
16.8521 21.6783 72.5894
18.933 23.223 77.6025
17.2615 19.1303 65.3316
16.8951 23.691 75.7488
16.602 20.9683 80.003
19.0119 24.8195 76.1831
17.872 20.048 66.5968
15.2954 20.7397 66.1206
16.0511 19.9945 76.7193
19.7333 21.0982 73.4444
15.6069 19.7962 72.2177
17.1704 22.1543 68.9894
17.5454 19.1946 67.6492
15.1063 18.9883 66.161
16.0107 21.1016 73.7654
16.3024 20.4127 71.1194
18.0588 18.0771 63.6779
16.4302 20.467 71.2871
18.4098 20.3579 68.8294
18.6018 21.8619 72.7181
19.0689 22.3103 79.7355
17.2014 21.826 73.9171
20.0025 21.5359 79.8351
19.59 20.9235 73.0903
17.5017 22.17 71.7149
16.5321 17.873 67.6273
19.4593 21.2537 72.2441
16.7807 20.5908 70.8166
17.3403 19.4028 60.6279
16.3432 20.4672 72.3727
18.1891 20.2965 77.534
17.855 21.2163 67.6624
16.9112 19.9108 70.7624
17.3839 18.5614 65.147
17.8193 19.7345 73.2395
18.185 20.0427 69.8294
17.2131 20.6414 75.0391
17.3461 21.4563 72.3251
18.6093 21.542 71.2859
17.8463 20.1395 69.9737
18.5578 18.6515 68.481
20.5237 19.051 69.659
17.1866 18.7163 69.9866
20.1272 21.6078 74.3627
16.0846 20.0858 73.9792
15.2595 20.2347 68.5347
16.2085 20.5287 71.8773
14.9286 21.0583 69.0112
15.1421 22.1403 79.1059
16.4884 19.5493 69.9277
15.3906 22.2595 77.3334
15.9074 18.3335 67.9058
18.9473 19.9265 69.2598
16.4853 19.6264 73.4531
17.3937 22.1483 74.4927
17.1303 19.8752 72.3078
15.5476 20.0789 71.6876
16.4623 19.778 66.847
16.6887 19.703 71.0212
16.8985 21.3446 75.7515
16.7532 20.4167 76.4299
18.8702 18.1314 68.8832
17.6358 20.4962 70.1436
16.0943 18.9639 70.4417
18.7767 21.0097 79.1914
18.2779 20.0558 73.8739
18.597 18.9787 65.9005
18.1901 19.3682 70.1758
16.6249 19.7424 69.3847
19.9688 19.0024 64.05
29.2097 20.2136 86.1975
17.2645 22.8636 77.3122
27.0478 21.2335 78.4218
24.6509 22.5414 79.03
21.6421 20.2529 77.6463
20.7505 21.6731 70.8173
19.8503 18.3429 67.1197
17.624 19.3105 71.7239
17.5174 19.9137 67.1644
15.9677 19.5535 73.9475
16.4892 18.8104 69.3013
17.8332 18.8588 69.2523
13.8997 18.8329 71.1169
15.9226 18.4519 72.6446
17.0133 21.2485 68.5479
15.0063 19.2885 72.9409
13.9096 18.9453 69.7718
16.9947 20.6044 72.752
16.7912 19.0216 69.1908
16.0111 19.8994 70.4371
14.6371 20.5485 73.9804
15.215 19.9059 76.1071
14.9422 20.233 69.7186
15.8751 18.0924 68.589
15.5514 20.1183 71.8286
13.5605 17.6715 67.2592
16.5699 18.4912 64.1662
14.1806 20.6271 71.1125
16.306 20.1281 74.3144
18.8448 19.444 72.5661
15.3649 17.7637 66.2778
14.3663 19.8501 67.1488
17.1732 16.9493 71.1381
15.8322 20.9818 72.3573
18.6941 18.5672 70.4015
14.7392 18.194 68.419
16.7849 18.1398 72.1815
16.72 18.8645 69.0838
16.3365 18.575 67.1636
15.8363 18.2736 64.1704
14.7117 19.3411 68.3643
15.1312 19.132 70.4053
16.2835 18.8436 69.4729
16.0674 17.7882 73.5257
13.5083 18.9614 70.6967
15.6012 17.9315 68.2806
16.6542 18.6963 66.5281
14.3467 19.929 67.8971
15.7754 18.1438 69.671
15.2309 17.0559 68.4987
15.0547 18.9 70.2238
15.5375 19.1693 73.2723
18.0606 20.1105 76.3577
16.3076 20.0075 74.1268
15.5233 20.5056 74.1384
17.1988 21.4924 73.8104
15.962 18.6503 69.5591
13.4762 19.7117 67.7722
14.7684 18.5472 66.6993
14.1635 18.7984 75.4291
15.6741 17.5658 65.1116
16.0888 18.3531 64.7396
15.2204 17.2292 64.7113
15.2449 17.4058 68.5137
14.1783 17.9938 66.0334
12.8334 18.9163 72.2454
15.8996 19.3798 73.3862
14.0203 18.0206 67.2038
13.6727 18.3299 71.7633
13.3904 17.2979 64.3562
16.0223 16.5271 64.8496
14.1255 17.7473 69.67
17.891 19.7575 73.5832
16.6287 18.5584 70.9122
13.8714 19.9485 73.0282
14.8624 18.2225 69.5512
14.8539 18.3583 73.1344
12.7212 18.2026 63.9343
15.4218 16.3671 71.8028
15.888 19.1848 65.9913
15.8374 18.1893 67.9216
16.1414 18.73 76.0369
16.4655 18.4804 68.3967
18.3816 17.4642 65.6129
18.3255 18.9911 70.4574
16.1307 17.466 67.5116
17.403 17.0596 69.5535
14.312 18.6262 64.4246
17.7249 18.7077 70.7501
16.3422 19.3869 72.8534
15.6887 16.4993 73.5303
17.7834 18.7179 64.4791
16.7831 18.0513 70.0841
13.4461 18.9149 73.4837
14.765 18.2555 67.7818
14.8988 17.5931 69.5039
13.8554 18.1418 81.8142
14.4133 22.4107 73.7288
14.0792 19.2168 65.8481
13.617 16.408 69.3005
13.9638 16.3945 63.8548
15.3113 19.0656 67.264
13.2836 18.7471 70.3188
12.2205 17.0365 66.4494
15.9291 16.9396 62.2157
14.3043 20.399 75.4208
13.5728 17.5746 62.138
13.8987 18.2933 73.1937
15.237 19.339 72.7281
16.3981 19.1521 72.9425
15.6592 19.4865 77.4731
14.7857 18.7712 72.1091
17.3825 19.4382 69.4871
14.7435 16.7514 66.9466
14.8557 17.7052 67.8886
15.8697 16.3615 63.0003
14.5813 16.7711 66.4785
16.9693 19.1725 72.3661
15.4156 17.1385 73.48
14.7271 19.2729 75.4999
15.4241 17.3939 65.6482
15.7057 17.6396 69.4623
16.0372 20.8026 72.193
16.2259 17.5159 72.1023
14.4178 17.1278 69.2139
14.7705 18.6629 64.8032
16.8022 16.5796 68.6752
14.5192 18.553 71.0855
16.0535 18.6097 70.6814
13.8589 17.4076 70.1943
14.519 16.9899 66.0964
15.8464 19.5593 71.1523
13.9404 17.9108 74.2724
14.3471 18.6885 71.0824
15.8813 18.8283 72.259
12.9588 19.3423 72.9777
15.1749 16.7947 68.99
13.8792 17.2631 65.787
12.0774 17.4647 63.9569
15.2718 17.9508 68.5793
13.1066 16.6813 70.8738
16.3486 17.0324 64.2098
14.0272 16.3551 64.5874
12.6531 16.6255 64.4654
16.3183 17.7262 66.0502
14.2329 15.9179 60.3959
14.6209 15.7524 66.2789
14.7511 18.1305 69.6562
12.9474 17.6935 64.6504
15.1309 15.2298 63.1524
13.6314 16.1664 64.2763
14.4359 16.8999 66.3668
14.4823 19.257 70.4663
13.8822 17.0827 64.4915
14.9694 17.5145 72.579
14.5651 20.1066 71.6575
14.7827 18.6024 75.2381
14.0321 17.2567 67.968
16.0709 18.1264 74.2295
15.1806 17.7014 69.7764
17.9798 18.1927 67.6143
13.4413 17.0425 75.3705
15.2439 18.6534 70.3997
14.9358 18.0825 64.3125
13.812 17.8333 73.288
15.7012 18.2898 71.6795
14.0194 18.6558 74.2211
12.4308 19.0334 73.6649
17.0872 16.3407 67.9035
16.0124 18.5943 75.3658
12.0692 17.8429 65.4056
14.4713 18.3058 76.8778
15.2696 17.9371 67.3521
15.2565 17.2708 67.2711
14.2209 19.5016 76.8108
15.7185 19.0104 78.7678
15.4645 19.2724 69.9142
10.7612 17.9084 69.0407
15.4337 17.1977 73.1933
15.7307 19.1726 65.2798
12.4382 17.5153 78.6244
15.893 17.2328 60.0249
14.4196 17.4041 65.7343
10.7165 16.4805 77.2222
14.2484 17.9815 59.5525
12.2432 16.6711 68.8659
14.0762 17.8453 74.7436
12.8581 18.2664 64.8194
10.8829 16.902 69.2004
15.5066 17.8039 59.5253
12.8777 16.4235 73.7249
13.5009 18.3693 71.5557
15.1848 18.592 81.8114
14.0369 19.2618 68.2366
14.4109 18.6901 66.1276
13.7972 18.9153 75.059
13.8471 16.5296 64.9527
14.4642 16.4575 66.9772
15.9329 16.4515 63.7716
15.5917 17.4442 65.3862
14.1147 15.9018 67.448
12.8518 16.7928 63.3491
15.61 15.9065 63.5976
14.7285 15.5202 68.5355
15.4061 17.1275 67.4436
14.539 15.9795 68.1097
15.7345 16.577 69.2769
17.2341 17.1575 70.0416
16.4487 19.3474 64.8918
15.3882 16.5535 69.3767
15.1184 18.7155 70.0838
14.3466 17.229 71.5636
15.1683 18.0858 71.2287
14.0069 17.2909 61.445
13.8358 17.7219 74.2375
14.7262 16.3817 63.1261
12.7062 16.9692 66.9275
13.739 17.2004 75.6841
15.0717 18.553 64.5097
13.457 16.0513 69.644
14.3765 19.4382 70.3173
12.9393 15.6481 64.5214
12.1306 16.5313 67.1465
13.8842 18.4069 71.7318
14.8294 19.0763 70.9596
11.5101 17.426 76.5255
14.7052 17.0914 70.0973
14.9586 18.2459 73.9968
14.5319 18.516 67.9229
14.0624 19.1096 80.3294
15.6638 20.1945 70.5758
13.5914 19.0312 68.3556
12.8699 16.2809 68.7987
12.4099 16.5048 74.2201
15.615 17.3204 71.8877
13.0133 18.6868 67.8182
13.4855 17.1915 66.4193
15.2364 16.2136 66.6763
15.436 16.9007 63.8232
13.0893 16.9632 70.8115
16.8394 16.6268 59.5367
13.8048 17.0193 60.9571
14.6154 16.6871 72.7744
13.6837 19.798 74.191
15.6574 15.9493 74.0541
13.9584 18.245 68.7876
14.3749 16.7178 64.6225
16.4211 17.0783 62.9228
15.1674 16.5056 68.5473
14.1181 15.8682 64.7119
15.0576 17.7618 68.7378
14.7409 16.279 65.7421
16.2597 16.5086 67.727
13.963 17.9655 69.5881
15.5769 17.7501 70.8184
14.3717 18.2239 72.2882
15.558 18.8083 85.1535
16.379 17.8189 64.0243
15.0548 17.2525 74.536
14.8711 18.0999 68.0679
13.55 18.4303 75.168
16.4104 16.3136 72.2204
13.8964 17.4564 64.8681
13.2673 16.654 70.2386
13.5504 19.3547 70.2986
13.9631 19.8221 79.3906
12.8231 17.3676 68.2551
12.6431 18.4266 71.4579
12.205 16.513 70.0166
12.8541 17.6835 69.4338
13.0193 17.4581 70.3657
12.5874 17.7613 63.4136
12.6595 17.094 66.4869
14.7155 16.8753 69.8693
12.7777 16.6569 69.233
14.8452 17.5896 71.1397
16.2801 17.9749 69.8258
13.7988 16.432 66.2411
14.1347 17.9775 71.613
16.6076 18.4422 76.0628
15.1907 16.9339 64.635
15.7343 16.021 62.2513
16.1567 17.4503 65.4356
16.4656 16.0898 68.887
17.7071 18.1053 71.1417
17.0417 18.7784 69.8842
16.8738 18.9848 75.679
19.8127 18.1373 73.4735
24.0518 22.0484 111.378
16.8995 0 0