# pn-170911/RbIIR-52-RbIIA-1280-1959.psd
# Power spectrum* (dif=0,1,2) (really just |FT|^2)
# NOTE: only the first half! (symmetric)
# weeks: 1280-1959
# 3382 clock-days, 22 excluded
# PSD: 1441
6011.43 0.260446 0.0285707
624581 12.8357 0.0177856
1.88195e+06 35.2577 0.0179094
372868 11.8174 0.0183273
260252 15.2981 0.0185951
113509 8.17105 0.0188586
77059.2 8.65012 0.0189743
49608.1 7.37773 0.0190949
43858.6 8.55673 0.0201212
30008.8 7.08634 0.0211346
25007.4 7.00182 0.0208267
20196.2 6.73007 0.0217251
16911.1 6.82813 0.0224758
13938.9 6.56617 0.0228472
12310.9 6.82866 0.0247191
10533.1 6.50244 0.0245329
9411.95 6.58023 0.0260952
8183.47 6.50849 0.0261493
7427.96 6.51393 0.0274172
6327.59 6.21551 0.0275776
5993.34 6.58523 0.0305671
5417.98 6.55362 0.0312216
4863.04 6.63379 0.0331105
4392.78 6.33338 0.0336793
4174.33 6.49555 0.0358623
3763.09 6.42919 0.0369164
3420.54 6.23096 0.0383348
3149.55 6.35935 0.0408498
3019.31 6.49976 0.0425449
2851.76 6.6606 0.0442051
2657.58 6.45895 0.0459611
2498.53 6.50045 0.0481251
2286.12 6.41692 0.0489348
2215.33 6.84033 0.0526837
2069.16 6.46793 0.05461
1999.21 6.61246 0.0552826
1855.98 6.81724 0.0594163
1783.73 6.87208 0.0633706
1674.65 6.81972 0.0628685
1572.18 6.63254 0.0661261
1487.15 6.63497 0.0689242
1441.51 6.71447 0.0719663
1370.58 6.86413 0.0764554
1377.78 7.09111 0.0808206
1272.1 6.85026 0.0807809
1219.21 6.9691 0.0838875
1185 7.0382 0.0888929
1150.38 7.34084 0.0955164
1119.89 7.30317 0.0985766
1047.34 7.37272 0.102098
1016.4 7.2759 0.10424
984.444 7.25093 0.106716
960.328 7.49913 0.115377
930.695 7.48111 0.117238
916.305 7.72882 0.125312
864.97 7.74333 0.128792
845.267 7.86896 0.137993
819.562 7.81696 0.137104
774.864 7.76378 0.142509
762.474 8.06426 0.150104
748.912 8.17069 0.158498
735.656 8.0854 0.160285
722.329 8.19522 0.168267
697.937 8.22722 0.174045
672.674 8.26242 0.18029
648.743 8.34596 0.187248
632.982 8.48143 0.193795
629.18 8.69483 0.201905
588.321 8.46255 0.203576
585.413 8.6884 0.217691
574.025 8.3293 0.214738
580.6 9.04012 0.236593
553.779 9.07236 0.242598
515.883 8.53939 0.237669
548.788 9.17647 0.256248
520.799 9.03051 0.260818
509.752 9.00765 0.266787
491.649 9.2089 0.274984
477.829 9.13974 0.280149
471.687 9.09282 0.289334
473.025 9.55755 0.305559
465.868 9.53086 0.314177
465.282 10.0768 0.34234
440.33 9.88131 0.34353
427.367 9.9433 0.35313
429.706 9.98908 0.359171
425.707 10.0753 0.37236
398.247 9.87045 0.373548
399.761 9.94267 0.382593
396.498 10.1721 0.397515
390.969 10.111 0.406164
393.574 10.9193 0.446818
376.549 10.3353 0.430139
376.362 10.6872 0.459835
365.224 10.4114 0.459393
371.115 10.9764 0.487672
416.597 13.3403 0.600203
356.256 11.1537 0.519336
341.278 10.9607 0.518561
339.495 10.8671 0.525348
326.667 11.0032 0.538461
340.607 11.8954 0.594435
330.789 11.628 0.590269
324.118 11.4908 0.599522
326.266 11.9003 0.627999
313.628 11.5544 0.627014
312.19 11.9044 0.654561
299.749 11.6126 0.648755
295.588 11.5914 0.660966
298.561 12.0702 0.695348
296.209 12.0729 0.709118
285.832 12.0462 0.722948
272.974 11.3042 0.688559
285.522 12.4457 0.770832
286.492 12.883 0.809346
280.359 12.7279 0.81843
276.944 12.7806 0.833326
270.79 12.402 0.819642
271.116 13 0.875533
269.638 13.233 0.907565
263.793 13.3313 0.92616
257.906 13.2654 0.93823
263.175 13.3543 0.963212
249.924 13.4264 0.980934
250.531 13.285 0.979704
245.07 13.2202 0.996616
251.376 13.7557 1.05137
238.205 13.1173 1.02175
235.5 13.2727 1.04104
239.325 13.8493 1.10104
235.399 13.6925 1.11668
232.227 14.2062 1.17346
230.242 14.3699 1.20294
226.032 14.1113 1.20189
222.494 14.0045 1.21459
222.586 14.2691 1.24985
222.528 14.4082 1.27688
216.15 14.3966 1.30171
209.559 14.0967 1.27937
213.162 14.3857 1.33035
217.677 15.1219 1.42392
208.345 15.0218 1.42683
205.746 14.6286 1.40213
206.419 15.0838 1.47369
206.077 15.5699 1.53933
198.77 15.2499 1.5291
199.967 15.183 1.54097
204.684 15.8154 1.63902
201.245 15.4868 1.61426
195.645 15.4747 1.64572
202.759 16.2742 1.74239
189.473 15.5014 1.68813
191.125 16.0575 1.77314
184.863 15.7716 1.75827
183.332 15.8799 1.79049
185.438 16.2796 1.8634
185.241 16.5599 1.92106
181.156 16.2403 1.91182
183.384 16.4179 1.95648
172.03 16.3906 1.97712
175.089 16.3876 1.9942
177.325 17.0653 2.11599
177.705 17.0448 2.11629
171.832 16.8429 2.14171
170.69 17.0063 2.17325
175.105 17.0945 2.20006
166.435 17.3029 2.26921
171.553 17.817 2.35984
170.586 17.8178 2.39286
166.709 17.7882 2.409
160.402 17.1223 2.35326
164.768 17.7345 2.44344
160.747 17.4435 2.45123
157.487 17.1657 2.44276
159.082 17.78 2.55302
159.201 18.0506 2.60474
152.45 17.1527 2.50215
157.571 18.2005 2.70276
154.827 18.0965 2.7104
150.752 18.1963 2.76732
152.925 18.7283 2.86465
144.78 17.9446 2.80077
148.971 17.9619 2.81227
147.683 18.8843 2.99772
145.608 18.1676 2.88669
149.258 19.3512 3.12951
147.782 18.8795 3.07915
141.393 18.4475 3.04511
142.666 18.7734 3.12216
141.002 18.82 3.16869
138.514 18.4014 3.14418
140.319 19.3047 3.34304
178.981 25.6697 4.39648
133.409 19.1247 3.36181
136.957 19.1369 3.39874
137.774 19.9788 3.58563
138.112 19.6324 3.53809
133.718 19.3534 3.55055
132.094 19.3601 3.57754
134.54 19.7307 3.68746
128.613 19.6371 3.68872
122.82 19.0938 3.6464
134.73 20.4877 3.9282
129.788 19.9817 3.87882
127.35 20.0688 3.93024
126.668 20.1011 3.9925
122.678 19.5294 3.88001
125.202 20.347 4.12569
124.633 20.1877 4.05141
123.005 20.1463 4.14802
121.976 20.4058 4.19636
118.692 20.2264 4.26034
118.936 20.1616 4.24039
118.005 20.2091 4.30512
118.71 20.7461 4.47065
118.385 20.8647 4.54291
116.478 20.6817 4.51165
115.366 20.4047 4.52853
113.539 20.5637 4.55623
115.384 21.3716 4.79329
117.043 21.3753 4.85606
116.353 21.416 4.90294
115.698 21.3904 4.92093
111.847 21.0027 4.90662
109.966 20.9688 4.93154
110.633 21.5003 5.10463
109.68 21.5857 5.16254
110.383 21.852 5.25305
108.135 21.8267 5.35015
108.771 21.6551 5.2894
106.472 21.5763 5.3366
107.772 21.8098 5.41086
104.358 21.8948 5.56949
106.322 21.9545 5.56007
109.609 22.856 5.834
103.806 21.6897 5.60907
105.452 22.2958 5.76284
101.764 21.755 5.69693
104.338 22.5697 5.99579
99.4249 21.9932 5.8746
100.816 22.0307 5.89742
98.6605 21.9764 5.95647
98.5982 21.9121 6.01414
98.2267 22.1917 6.10287
97.3774 21.9337 6.13989
99.3673 22.609 6.31076
99.542 22.9659 6.42507
93.965 22.2104 6.33229
91.6036 21.435 6.15727
96.6724 22.5783 6.48916
95.4455 22.7799 6.64495
93.4543 22.1765 6.48149
92.3783 22.903 6.78527
92.5565 22.8336 6.81521
91.4698 22.9837 6.92543
96.1917 23.5406 7.11518
91.4879 22.8403 6.94175
90.649 23.239 7.18843
91.1019 23.5017 7.23564
90.8478 23.2369 7.25596
91.6634 23.8208 7.43831
87.8811 22.9626 7.2355
84.2462 21.9559 7.00475
86.0318 23.018 7.43848
88.2685 23.7273 7.69042
86.1648 23.2606 7.52046
88.2014 24.0052 7.87836
84.3271 23.019 7.61374
83.7271 23.773 8.00121
86.3807 23.949 7.99741
84.5967 23.674 7.98031
81.6684 23.0801 7.81699
82.9306 23.349 7.95667
79.9777 22.9405 7.94791
83.9521 24.1046 8.35239
82.0634 24.1304 8.51108
80.9823 23.7073 8.40343
80.763 23.7542 8.385
81.1895 24.0041 8.56481
77.3467 23.0217 8.31664
81.4176 24.5089 8.81994
79.3633 24.3747 8.92815
77.1511 23.3203 8.52158
77.6503 24.3981 9.03997
77.3306 23.7838 8.83644
76.6438 23.6687 8.88773
76.0727 23.8113 9.05556
75.7689 24.4852 9.5542
104.367 34.1307 12.6347
75.5343 24.7275 9.57586
73.8076 23.9271 9.34898
73.5266 24.3949 9.55126
72.7648 24.0433 9.49899
73.6436 24.0789 9.48215
72.7354 24.4373 9.75116
73.6155 24.416 9.83703
72.6063 24.1112 9.6848
71.0306 24.1782 9.82508
71.8587 24.7668 10.1115
71.4145 24.5907 10.1704
72.5454 25.1237 10.3704
71.75 25.1071 10.4278
70.3034 24.767 10.4013
70.3919 24.6026 10.3516
67.1462 24.0732 10.219
70.0642 24.5688 10.5314
69.7931 25.3572 10.8694
67.4254 24.6088 10.664
66.6011 24.1897 10.5081
65.1947 23.9351 10.507
65.1415 24.1368 10.6962
64.8054 23.9049 10.5532
65.5641 24.6349 11.0589
65.2434 24.4176 10.981
65.896 24.8707 11.2157
64.0194 23.966 10.8029
64.7277 24.6885 11.2189
64.5749 25.1543 11.5812
63.3077 24.5212 11.6135
65.0787 24.658 11.34
63.9473 25.3545 11.8335
63.2708 25.0065 11.788
64.3768 25.5681 12.0389
62.2725 25.1755 12.1266
63.0738 24.7621 11.7344
60.5441 24.1591 11.7575
62.0709 25.5411 12.3951
59.4565 24.107 11.8651
62.3947 25.8569 12.7197
59.4206 24.2814 12.1408
62.1724 25.9611 12.7909
60.4178 25.1591 12.4622
59.7001 24.9471 12.5589
58.4631 24.6986 12.4486
57.0822 24.4675 12.4419
58.6833 25.3244 12.9968
56.9227 24.2564 12.5092
59.7263 26.4333 13.654
57.8988 24.845 12.8643
56.2882 25.3224 13.298
56.8679 24.8269 13.0161
58.8226 26.1085 13.9126
57.1235 25.414 13.5542
57.3162 25.9653 13.815
55.7275 25.24 13.6191
55.9576 25.9848 14.0502
56.953 25.6647 13.9038
56.1349 25.7697 14.1079
54.5571 24.7237 13.5893
53.3295 24.8083 13.6661
55.1659 26.1241 14.6303
54.3962 24.9859 13.9395
54.778 26.2116 14.8126
54.5955 25.8279 14.5625
55.5538 26.4396 14.9205
52.5751 25.3283 14.405
52.3903 25.541 14.835
52.916 25.4925 14.6952
51.7343 25.0925 14.5974
51.6953 25.175 14.6311
50.9967 25.2833 14.9541
52.9991 25.92 15.2098
48.9396 24.8253 14.7039
50.6471 25.3282 15.0601
48.7466 24.5074 14.7406
50.5365 25.9264 15.6277
49.7182 25.2567 15.2552
51.1133 25.9686 15.8044
50.471 26.0851 15.936
50.7091 25.9759 15.9392
48.9526 25.1696 15.5924
49.5065 25.7783 15.9737
48.0073 25.1891 15.8808
48.2932 25.5548 15.9121
47.8424 25.4769 16.1461
48.2676 25.5622 16.0828
47.9829 25.5962 16.3176
46.1554 24.8127 15.8651
47.5049 25.7119 16.686
47.2891 26.059 16.9206
47.1586 25.973 16.997
47.5286 25.7421 16.5998
46.4332 26.0008 17.1514
47.0311 26.4314 18.2814
63.8127 36.7777 22.9578
44.715 25.2738 17.0071
46.2974 26.6458 18.0695
45.3565 25.4251 16.992
45.0933 26.0204 17.5575
45.0446 25.6661 17.5792
45.708 26.324 17.9718
45.5466 26.1164 17.8224
44.2544 25.5433 17.4962
44.0655 26.0624 18.0671
43.4943 25.4217 17.7979
42.7953 24.8214 17.4572
42.609 25.5482 17.8795
44.2927 26.2637 18.5459
43.9701 26.1331 18.4561
43.0674 25.7321 18.1526
42.6779 25.613 18.5483
41.8029 25.2621 18.1136
43.1564 26.4446 19.0812
41.6428 25.4692 18.4459
42.1432 25.8965 18.7367
40.8173 25.4422 18.7435
41.3579 25.5338 18.7224
41.5181 25.5364 18.9214
42.1556 26.2628 19.52
41.2843 25.9888 19.1683
40.3046 25.7879 19.4851
41.0436 26.1706 19.8166
41.0105 26.2656 19.7891
41.2153 26.0315 19.6121
39.8889 25.9 19.9984
41.5069 26.4658 20.1147
39.7351 26.2952 20.4175
41.1339 26.6814 20.5227
40.5718 26.3681 20.3689
39.9406 26.2189 20.5853
37.7595 25.1184 19.8303
39.3447 25.6264 20.1678
40.2356 26.4862 20.6243
38.5725 25.6953 20.672
37.6098 25.2656 20.1276
38.5991 26.2909 21.2982
39.6435 26.8548 21.4975
38.4082 25.881 20.7371
37.9156 25.9466 21.1479
37.5538 25.7222 20.9957
38.5111 26.4751 21.4214
37.7196 26.2025 21.4039
37.286 25.5563 21.215
37.0323 25.8729 21.2546
37.7027 26.078 21.7399
37.4219 26.5987 22.3883
36.8619 25.787 21.4742
35.8605 25.5473 21.3546
36.4217 26.0238 22.1212
36.344 26.1913 22.3074
35.3844 25.2439 21.5716
35.6987 25.7 22.0476
36.1952 26.0996 22.4222
34.6602 25.3435 22.3205
36.0626 26.0141 22.517
35.3688 25.9994 22.8181
35.6489 26.1699 22.7394
34.415 25.2802 22.3809
35.1979 25.9407 22.5159
34.8279 26.007 23.4183
34.9319 26.1053 23.1509
34.9841 26.0343 23.029
33.8586 25.3449 22.9375
34.036 25.6168 23.038
34.6275 26.2745 23.897
34.4085 25.7085 23.1788
33.7465 26.0729 23.7397
33.8283 25.9898 23.7442
33.3857 25.9782 23.845
33.0941 25.5117 23.4491
33.9449 26.3975 24.4964
33.2483 25.621 23.7232
32.7758 25.7636 24.1746
33.5787 26.4074 24.6485
32.8018 26.1267 24.6765
33.6691 26.3895 24.8798
32.054 24.9947 23.832
32.1598 25.5734 24.2912
32.4834 26.4975 25.3138
31.826 25.4667 24.225
30.5276 25.0153 24.0954
31.2205 25.5941 24.8881
31.499 25.8494 24.994
32.3813 26.104 25.4187
31.6308 25.8217 25.2618
31.5707 25.9425 25.7384
31.0542 25.7985 25.4161
31.4127 26.2088 26.148
31.5727 26.0503 26.1094
30.548 26.2214 27.9566
43.9078 38.0067 34.6932
30.2372 25.7388 26.0511
30.4277 25.8691 26.2334
29.843 25.603 25.9501
30.2049 25.5406 25.9457
30.6636 26.3454 26.9044
30.4864 26.7569 27.2859
30.0252 26.3797 27.2199
29.442 25.1915 25.8815
29.0741 25.2693 26.4126
29.9154 25.5603 26.5504
29.6323 25.8406 26.7639
29.9213 25.9437 26.9121
28.4963 25.4325 26.9005
29.272 25.5387 26.6078
28.596 25.9255 27.4617
29.5342 26.6825 28.2141
28.0556 25.1091 26.7768
29.0752 26.2645 28.3615
29.0141 26.0798 28.1636
28.7271 25.4024 27.3247
28.3988 26.0099 28.3047
28.073 25.3491 27.1651
28.0361 26.1353 28.7403
28.1829 25.6823 27.8012
27.4086 25.1266 27.3692
27.3616 25.9468 28.6412
27.3308 25.1192 27.6136
27.086 25.5092 28.714
27.9399 25.8913 28.5171
26.8918 25.5852 28.5183
26.381 24.8907 28.0659
26.1906 24.7815 28.0886
26.8296 25.4155 28.5251
26.599 25.7261 29.0581
26.8042 25.3608 28.7926
26.3512 25.2073 28.5921
25.9847 25.0966 28.8622
26.2891 25.3127 29.1997
26.8226 26.1189 29.5403
25.9477 25.8969 30.2308
26.9009 26.0791 30.1536
26.3747 26.0949 29.996
25.5535 25.298 29.4702
25.3861 24.5902 29.0829
25.5117 24.963 29.1717
25.8837 25.8753 30.8594
25.4622 25.58 29.9729
24.1853 24.5644 29.8441
25.2859 24.4898 28.6844
24.6811 24.5682 29.7403
25.4476 24.9161 29.6759
24.8856 25.4494 30.8353
24.7351 24.9497 29.9581
25.0578 25.5406 30.782
24.3964 24.7019 30.105
24.292 25.0405 30.4576
24.3655 25.2023 30.9149
24.6906 24.7598 30.3064
24.1996 24.6505 30.329
24.5231 25.7339 31.8617
24.3988 25.3799 31.4047
24.6059 25.3649 31.4869
24.5932 25.4705 31.7012
23.6858 24.9198 31.3296
23.9795 24.7783 30.7267
23.7587 25.3213 31.9314
23.9444 25.6894 32.803
23.8217 24.6326 31.0394
24.0555 25.726 32.7551
23.4382 24.4547 31.3501
23.6883 25.1913 31.9434
22.4787 24.6185 31.8142
23.2656 24.8463 31.8086
23.333 25.1083 32.414
22.9565 24.7587 31.8186
23.4067 25.7156 33.1652
22.4281 25.183 33.236
22.8021 25.1993 33.305
23.5784 26.2879 34.0828
22.3227 24.7565 32.3541
22.0517 24.6406 32.9354
22.6837 25.1828 33.7036
22.4811 24.7912 32.4714
21.5279 24.1646 32.4989
21.8783 24.6058 33.1378
21.9495 24.5187 32.6915
22.1327 25.5931 34.8573
22.3271 24.923 33.9495
21.8413 25.0757 33.9922
21.8173 25.0471 34.2018
22.2056 24.7746 33.5383
21.9168 24.7863 33.6908
21.8758 24.7818 34.1033
22.4556 25.9848 35.7347
21.8577 26.1084 38.817
30.5935 35.9611 44.9971
21.6614 25.1135 34.6283
20.889 24.3685 34.6975
21.2903 24.6352 34.359
21.6645 25.1824 35.3789
20.449 24.0409 34.1211
21.0414 24.9219 35.6992
21.2012 24.9522 35.3877
21.2677 24.3789 34.708
21.5132 25.2684 35.4033
21.1936 25.0051 35.3169
20.7222 24.6602 34.7739
20.3583 24.3737 35.1923
20.1951 24.4394 34.9035
19.9308 24.3108 35.3401
20.6054 25.0731 35.7631
20.2289 24.3832 35.3136
20.5134 24.6732 35.9827
20.03 24.6102 35.7691
19.7462 24.0912 35.5253
20.1601 24.9829 36.8853
20.1527 24.1371 35.5248
19.6434 23.8379 35.0207
19.456 24.3676 36.3128
19.842 24.3785 35.7688
19.1253 23.8735 36.0034
19.4426 23.9532 35.5238
19.2699 24.327 36.7476
19.7998 24.2537 36.0404
19.1725 24.0854 36.0277
18.8922 23.6857 35.7937
19.4356 24.4099 36.4348
19.1574 24.5741 38.1546
19.6345 24.8856 37.3419
19.1475 23.9602 36.0529
18.6976 24.0522 37.3418
18.9413 24.0262 36.4864
18.5738 24.1005 37.0669
18.6219 23.9084 37.4758
19.225 24.7662 37.6525
18.3784 23.3724 36.8993
19.3328 24.6476 37.2269
18.146 24.0087 38.1325
18.4324 23.5012 37.109
18.5984 24.1735 37.7325
18.4186 23.9253 37.001
18.4375 23.9485 38.1416
18.0768 23.8376 37.9748
18.8913 24.6181 38.8535
17.9646 23.6495 37.4215
17.4381 23.2099 36.8279
17.7271 23.7499 37.8958
17.8931 23.4819 38.0879
17.8392 23.6224 38.1279
18.7015 25.0539 39.45
17.7818 23.6729 38.8515
17.4006 23.2255 37.9772
18.0866 24.4226 39.6934
17.5327 24.0252 39.2837
17.775 24.0301 38.797
17.6373 24.1288 38.8671
16.9973 23.5293 38.8919
17.2509 23.5992 39.1784
17.4114 23.2674 37.6966
16.7816 23.694 39.4152
17.2324 23.6339 39.4093
16.7533 22.8868 37.7079
16.8487 22.8253 38.012
16.8301 23.4343 39.1843
16.5009 23.6102 39.8732
16.7001 23.1658 38.7582
16.2374 22.8405 38.8415
16.9842 23.5951 39.644
16.7817 23.6031 39.6777
16.2271 23.1043 39.799
16.4998 22.9493 38.9355
16.4203 22.5983 38.63
16.5677 23.5637 39.7583
16.2288 22.9799 39.4085
16.7646 24.0951 40.9198
16.0861 23.1847 40.7141
16.2131 22.4892 38.5276
16.4108 23.5878 40.8487
16.2823 23.2683 40.5159
16.1155 23.2224 40.2285
16.2002 23.6825 41.4985
16.4817 23.5646 40.7669
15.9652 23.2539 40.8187
16.0023 23.5675 41.3054
15.6962 22.7593 40.5336
16.4862 23.9659 41.7823
15.4148 22.5207 40.0871
15.4258 22.947 41.4375
15.7032 22.6485 40.1798
15.734 22.7531 40.92
15.7034 24.0595 49.2101
23.0924 33.4917 50.8343
15.416 23.4429 42.436
15.1921 22.9906 42.5328
15.8041 23.4078 41.978
15.192 22.7707 41.2204
15.253 22.8702 41.4638
15.4577 23.0652 41.9415
15.5037 23.5262 42.5974
15.0095 22.7131 41.429
14.9477 22.3714 41.2807
15.2098 22.7562 41.57
14.6798 22.944 42.4247
14.8703 22.8814 41.7825
14.7518 22.9312 42.9404
14.8058 22.776 42.4389
15.2751 23.0823 42.6114
14.6761 22.052 41.3931
14.8882 22.5614 41.7388
14.8459 22.836 42.3076
14.5954 22.8273 42.7851
14.9079 23.1315 42.7359
14.3556 22.4669 43.098
14.6817 22.7328 42.6852
14.5609 22.4024 42.0464
14.1872 22.3203 42.9489
14.4733 22.1406 42.2133
13.9864 21.8616 42.0604
14.6214 23.0944 44.2498
14.3757 22.2873 42.4029
14.3883 22.6011 43.2506
14.4575 22.2604 42.5454
14.3569 22.512 42.993
13.9465 22.3029 42.727
13.9308 21.7102 41.9183
13.6722 21.7433 42.6786
13.7603 22.1998 42.888
14.0301 22.5149 43.882
13.44 21.4297 42.6212
14.3157 23.0898 44.6576
14.1608 22.6619 44.5133
13.8449 21.5762 41.5915
13.5886 22.3496 44.4661
13.5174 21.8415 43.3241
13.8652 22.7072 44.6687
13.8463 22.3431 44.1229
13.4338 21.936 42.9599
13.2554 21.2614 42.4799
13.0292 21.7581 44.884
13.8495 22.3823 44.6179
13.3789 22.3618 44.829
13.6129 21.9664 44.0368
13.2945 21.8446 43.8673
13.2801 21.6417 43.5211
13.1026 21.9757 44.4638
13.1073 22.1233 44.7647
13.404 22.3523 45.8425
13.4976 21.8399 44.5891
13.1763 21.8018 44.122
12.9221 21.7879 44.6281
13.0639 22.0828 45.1747
13.1142 21.7703 44.5166
12.9798 21.3413 43.9842
12.6285 21.0608 43.4043
12.5219 21.4853 44.4961
12.7925 21.4139 43.7509
12.8863 21.8474 45.4727
12.8472 22.1312 45.7691
12.5949 21.1621 44.6463
12.8193 21.7286 44.8164
12.393 21.7881 45.9185
12.7122 21.421 44.6932
12.2639 21.4422 45.4443
12.8126 22.0231 45.3439
12.4525 21.0967 44.9581
12.5548 21.9006 45.8047
12.5445 21.6238 46.298
12.5401 21.7095 46.1073
12.1529 20.777 44.9378
12.8177 21.5629 45.3082
11.9424 20.8217 45.0036
12.0812 20.4544 43.9507
12.1007 20.8118 44.2216
12.2685 21.8631 46.3974
11.9266 21.1939 46.2947
12.4016 21.3003 45.5716
12.0221 20.8745 45.521
12.1251 21.2005 45.3393
12.0722 21.4989 45.8729
11.6883 20.7545 45.404
11.9254 21.3703 46.7272
11.7203 20.4084 44.8384
11.7724 20.7559 45.436
11.6933 21.3242 45.6607
11.2759 20.3209 45.2094
11.5147 21.0994 47.5769
11.686 21.9873 58.4039
17.1809 30.3954 55.193
11.7042 21.4679 47.118
11.5186 20.8585 46.7266
11.6359 21.1962 47.0098
11.4588 20.64 47.0709
11.9945 21.4032 46.7452
11.2129 20.7361 46.7592
11.6816 21.1968 47.3937
11.3915 20.7859 46.8026
11.2483 20.4588 46.0752
11.4509 20.7838 46.4674
11.1896 20.8654 46.5271
10.8984 19.966 45.7441
11.265 20.7912 47.1195
11.2136 20.4693 46.9402
11.2335 20.7528 47.8023
11.5707 21.3178 46.9937
10.8562 20.1202 47.5194
11.131 20.172 45.9955
11.0279 20.7261 47.2411
11.0105 19.8228 46.2724
11.3016 20.7036 46.6295
11.056 20.6772 47.4465
11.0791 20.3718 46.969
11.1902 20.8759 47.7612
10.9706 20.1917 46.2774
10.3457 19.739 47.1338
10.9068 19.9952 46.7618
11.1458 21.4034 49.3787
10.8607 20.5949 48.3472
10.5628 19.8977 46.6538
10.6104 19.762 46.5637
10.7398 20.4156 47.7294
10.6771 20.4058 48.0051
10.665 20.5437 49.4284
10.846 20.1773 46.9981
10.6606 20.332 47.9685
10.5489 19.7448 46.2913
10.3569 20.2109 48.3317
10.7008 20.4192 48.5537
10.6393 20.2439 47.0266
10.2758 20.0246 48.4538
10.3431 19.6123 47.4016
10.546 20.0963 47.4538
10.3677 20.2134 48.8746
10.4355 19.9199 47.4761
10.4042 20.2521 48.6412
10.2369 20.1295 48.6107
10.1994 19.5371 47.0995
10.0024 19.3647 46.1752
10.3104 20.1797 48.2057
10.3189 19.9668 49.0326
10.0897 19.894 49.1763
10.4794 20.4195 49.5885
10.3496 19.8527 48.4766
10.2796 20.6731 50.1558
10.123 20.1652 48.5004
9.82879 19.3251 47.8288
10.0717 19.9867 49.2917
10.2988 19.6625 47.5233
9.94139 19.7919 49.016
9.84549 19.604 48.2938
9.97217 19.5872 48.7926
9.73004 19.6724 49.6976
9.93921 19.4269 48.8688
10.0775 19.5702 48.9715
10.0909 20.3376 49.8052
9.88577 20.2192 50.4647
9.79172 19.7423 49.1312
9.901 19.9922 50.2244
9.91846 19.8803 49.4195
9.87731 19.8382 49.9687
9.70222 19.4542 48.472
9.62564 19.6928 49.7014
9.5748 19.3918 48.8556
9.44143 19.2711 48.9587
9.44006 19.3964 50.0615
9.77312 19.4859 48.8469
9.51672 19.5233 50.7623
9.62658 19.3438 49.4006
9.82973 19.6023 49.6672
9.63813 19.538 50.0726
9.76608 19.5332 49.7702
9.59088 20.0468 51.2978
9.40059 19.2519 49.6185
9.36257 19.6114 50.4858
9.287 19.1398 49.5876
9.15508 19.4084 50.6157
9.42795 19.3461 50.3254
9.57087 19.3847 50.412
9.62726 19.6757 50.3292
9.40422 19.4611 50.3757
9.23496 19.267 51.1506
9.46788 20.0391 52.2409
9.18655 19.371 51.8601
9.58628 21.204 68.0203
13.6552 27.7034 57.8103
9.34023 20.525 53.6933
9.59989 20.367 53.2649
9.37486 19.7043 52.3053
9.14369 18.8473 50.1902
9.20119 19.5874 51.0333
9.13308 19.1137 49.7247
8.89439 18.7458 49.5399
8.78545 19.1326 51.1453
9.05384 19.2179 52.0236
9.1722 19.4498 51.4496
9.11672 19.269 50.6613
8.72001 18.9715 50.9121
8.86015 18.8348 50.3633
8.90259 18.6572 50.3998
8.71105 18.5631 50.0908
8.83409 19.0403 51.4442
9.03252 19.3803 51.1014
8.68918 18.3144 50.0806
8.76974 18.3291 49.4901
8.79622 19.0544 50.1486
8.55901 18.5053 51.017
8.78856 18.8125 51.1682
8.73648 18.7044 50.8399
8.85247 19.4118 52.8501
9.01591 19.7905 53.799
8.59068 18.0392 49.0781
8.59291 18.3241 49.7251
8.4903 18.4404 50.6585
8.67882 19.1942 52.5956
8.54908 18.5599 50.4088
8.65041 18.8232 51.5195
8.56794 18.6405 51.1685
8.45417 18.5774 50.858
8.57577 18.4188 51.4994
8.63287 19.1598 53.1787
8.62355 18.7043 51.2118
8.48589 18.8062 52.1329
8.48482 18.9597 52.5666
8.55451 18.6592 51.3718
8.51149 18.5625 51.4726
8.3261 17.9468 50.7912
8.3588 18.1787 49.9126
8.32862 18.5405 52.5227
8.34358 18.7709 52.4588
8.43702 18.8285 52.6846
8.491 19.0621 53.2161
8.40871 18.8328 53.7361
8.63448 19.1043 51.9376
8.31203 18.2568 51.4665
8.20913 18.9171 52.3379
8.17557 18.1544 51.6339
8.22898 18.3709 52.1899
8.38853 18.7992 52.6656
8.19433 18.2146 51.964
8.1968 18.5247 52.5126
7.91628 17.4929 50.4917
8.1929 18.3942 51.9786
7.94121 17.9181 51.7555
8.252 17.9277 51.6397
8.28796 18.4302 51.8242
7.88388 17.9317 51.9502
8.0742 18.1376 51.8343
8.13184 19.0671 54.0566
7.89646 17.5084 50.7298
7.94937 18.5332 53.4024
7.97066 18.1184 53.071
8.14432 18.6611 53.1368
7.93706 18.3653 53.3216
7.98085 17.9725 51.6312
7.92417 18.0714 53.1821
8.01572 17.9545 52.7978
8.03214 18.2565 52.6212
7.78477 17.8102 51.707
7.78715 17.712 52.0642
8.00493 18.3236 52.2163
7.82707 18.2146 54.3456
8.0182 18.3745 54.7803
7.94413 17.7385 52.0413
7.78519 17.7432 51.2915
7.80261 18.2058 52.4808
7.70636 17.6748 52.0062
7.61191 17.7582 52.0916
7.74871 17.8341 52.6002
7.53544 17.5591 51.8676
7.57994 17.5569 52.7229
7.78685 18.1675 52.7511
7.61416 17.4968 52.4094
7.60139 17.9884 52.8772
7.58567 17.5243 52.6842
7.67597 17.8393 52.6635
7.4712 17.7541 53.5285
7.76302 18.0179 54.3676
7.78542 18.0778 53.2273
7.69442 18.4565 55.7172
7.65445 19.85 75.5829
11.123 25.3425 58.5625
7.50345 17.9427 54.7338
7.68841 18.4745 54.4324
7.42951 17.1061 52.0022
7.50954 18.1112 54.774
7.65 17.717 51.935
7.23772 17.2641 53.0955
7.2844 17.0646 51.8135
7.45671 18.103 55.2364
7.61921 18.212 53.8677
7.43705 17.2331 52.9381
7.20347 17.212 53.402
7.4331 17.6882 53.1316
7.14937 17.0934 53.1813
7.3917 17.6059 53.1993
7.27331 17.3553 53.2896
7.3978 17.8173 54.3435
7.43686 17.9189 53.3047
7.13192 17.4906 54.9321
7.46981 18.1588 55.0098
7.32231 17.3882 53.2069
7.19537 17.0357 52.2127
7.00268 16.4922 51.1566
7.01577 17.3653 53.0512
7.00386 17.2633 54.6275
7.35251 16.9707 53.6607
7.4414 17.6037 53.6394
7.17855 17.6448 54.4224
7.46058 18.236 55.3231
7.18959 17.278 54.6908
7.08982 17.2475 54.3466
7.16728 17.5603 55.6069
7.31618 18.0688 55.9484
7.35827 17.8649 55.9152
7.1175 16.9709 52.8488
7.07606 17.1973 54.0598
7.0749 17.3749 54.4363
7.10301 17.0527 53.7818
7.1094 16.7954 51.4506
6.84241 16.941 52.8554
6.90027 16.9349 53.5905
7.01197 16.7602 53.1586
7.07882 17.2559 53.8164
7.01292 17.0674 54.5488
6.98791 17.3017 53.8374
6.86709 16.3206 52.6002
6.90142 17.091 52.6391
6.76996 16.9524 55.921
7.2702 17.3361 53.8863
6.90567 17.5059 54.7142
6.9848 17.1021 54.0898
6.90297 17.0934 56.3213
7.10922 16.9516 52.7044
6.88278 17.4253 55.6586
6.89633 17.0808 55.5081
7.10062 17.3497 54.6699
6.74496 16.5059 53.4344
6.85537 17.2993 55.2898
6.74366 16.5761 54.367
6.91591 16.7761 53.3706
6.81907 17.0928 54.2967
6.69 16.8127 55.1742
6.87584 16.4065 51.8866
6.58562 16.7932 54.7884
6.83263 17.5829 55.103
6.64156 17.0089 55.3915
6.73571 17.0245 54.5949
6.73631 16.8497 54.2161
6.76793 16.8628 55.7154
6.92317 17.1176 55.2828
6.68392 16.8119 54.3429
6.6485 17.2154 55.6374
6.60122 16.2767 53.0131
6.57231 16.5668 54.4534
6.75626 16.9665 55.3095
6.52087 16.7176 55.6707
6.67142 16.5745 53.958
6.55566 16.121 52.1329
6.50929 16.9029 52.8175
6.4032 16.7287 54.9414
6.41379 16.439 56.1779
6.76402 16.8685 55.6077
6.46417 16.6159 54.7929
6.62237 16.5665 54.5334
6.5401 17.1464 55.9136
6.57468 16.7877 54.8064
6.33048 16.5081 56.0153
6.57733 16.8734 55.5756
6.69447 16.5327 54.6088
6.49808 16.7632 55.6171
6.46447 16.9117 56.7775
6.70317 16.9141 55.421
6.5626 16.6113 54.8088
6.38379 16.3298 54.0052
6.22977 16.8603 57.9998
6.65953 19.1845 84.4152
9.7403 23.5058 59.0168
6.46838 17.0011 54.8522
6.31419 16.5355 54.667
6.26756 16.7651 55.7767
6.32962 16.4573 54.1264
6.28071 16.3586 55.7867
6.43231 16.6025 56.2011
6.20314 16.0962 54.3309
6.28458 16.528 54.9443
6.30532 16.4008 55.1407
6.2224 16.6027 55.0712
6.21104 16.3591 55.0859
6.28923 16.9137 56.8528
6.28456 15.9744 55.9456
6.50125 16.6823 54.6701
6.17904 16.5122 57.0914
6.39934 16.8384 55.8303
6.23709 16.4704 56.966
6.41457 16.6317 55.0249
6.16084 16.4095 57.5191
6.22947 16.0506 54.8628
6.13569 15.9985 55.5282
6.16356 16.3857 54.502
6.0648 16.3765 55.8883
6.10526 16.3599 55.7296
6.17205 15.9454 55.7918
6.27569 16.5763 54.9987
6.1188 16.2561 56.1942
6.26176 16.1104 55.6026
6.21877 16.2398 55.0865
5.94644 15.9232 54.0125
6.07158 15.8227 54.3534
5.94157 15.8825 55.538
6.29041 16.7531 57.6215
6.41097 16.59 55.5851
5.96378 15.8707 55.5334
6.02016 15.9014 54.913
6.01819 15.8421 55.2892
6.0781 15.6601 54.4539
5.89406 16.0456 55.4107
5.98514 16.6592 56.9387
6.1892 16.238 55.8757
6.03533 15.7271 55.4419
6.12989 16.1683 56.2631
6.09954 16.1722 56.5142
6.13986 16.1679 55.2501
5.90821 16.3363 55.5957
5.90554 16.202 57.822
6.04699 15.8941 55.0585
6.00612 16.2041 55.8233
6.03281 15.9426 56.9766
6.17601 16.305 56.0402
6.01874 15.9897 55.6898
5.89185 15.4818 55.3735
6.08146 16.7339 57.4482
5.94055 16.132 56.037
6.02569 15.9453 56.5679
6.10054 16.1554 56.0212
5.95376 16.0263 56.6202
5.9319 15.9044 56.4697
6.06533 16.3339 56.0716
5.81463 15.4781 56.3119
5.95359 15.9928 55.9475
5.88115 16.119 56.3203
5.94907 15.6347 55.2902
5.89011 15.9008 55.3737
5.90495 16.0755 56.3554
5.73004 15.5859 55.6026
5.69439 15.6424 57.1313
5.89822 15.9641 56.0005
5.85528 15.9858 56.9635
5.92587 15.9876 56.5331
5.83677 16.0184 57.2097
5.83041 15.2889 54.9703
5.76733 15.712 56.3554
5.82649 15.9339 56.1771
5.8077 15.5028 56.1196
5.85026 15.9572 56.5694
5.77154 15.5057 55.1559
5.68907 15.7517 56.3486
5.80747 15.9323 56.0596
5.78813 15.8782 57.6651
5.76825 15.9709 57.4273
5.88853 16.1247 57.5417
5.79876 15.5871 55.7458
5.75143 16.0864 57.658
5.9282 16.3309 59.402
5.7848 16.0815 57.5714
5.8739 16.4406 58.5484
5.91233 15.6656 55.8941
5.80664 16.3007 58.2186
5.84804 16.4961 59.0409
5.82751 16.3422 58.7621
5.80232 16.5196 58.6439
5.88604 16.5752 62.0783
6.02749 18.6249 89.2466
8.71233 22.1611 61.3022
5.98308 17.3776 60.7043
5.93521 16.1416 58.5355
5.77241 16.2056 58.2826
5.77079 15.9107 59.2604
5.87141 16.1056 56.7447
5.61851 15.8426 59.2952
5.85726 16.4597 57.6744
5.64214 15.8297 56.9903
5.65284 15.6371 56.7408
5.60356 15.5726 56.9818
5.56872 15.6357 58.0577
5.68451 16.1067 57.9377
5.7349 15.454 56.081
5.59789 15.2739 56.5701
5.69787 15.9601 56.9749
5.64454 15.4866 57.8991
5.63252 15.7187 57.6508
5.63175 15.3151 56.1998
5.54763 15.3623 57.6688
5.70619 15.7531 56.6931
5.59682 15.446 57.432
5.69246 15.8813 57.8161
5.70453 15.4982 56.6456
5.56914 15.5714 57.0306
5.61383 15.2131 55.1128
5.39605 15.1043 56.7071
5.56189 15.4838 56.4595
5.53016 15.2901 55.4363
5.46822 15.447 56.9249
5.38968 15.1102 56.0932
5.43515 15.1289 55.4625
5.43012 15.1811 55.4056
5.44974 15.457 57.2417
5.40938 15.1165 56.5843
5.43917 15.1867 56.8533
5.46685 15.4273 54.8521
5.45973 15.1318 57.5302
5.43025 15.6628 58.005
5.61586 15.6765 57.2625
5.53149 15.7413 57.3834
5.34939 15.3832 57.6847
5.38074 15.0265 56.1098
5.53982 15.2371 56.969
5.46996 15.3463 56.312
5.46384 15.2146 57.1226
5.54162 15.4239 56.867
5.30061 15.0571 55.6793
5.33204 15.2776 58.2266
5.54102 15.3695 57.0894
5.36496 15.5134 57.7835
5.47213 14.9604 56.6548
5.41535 15.6137 56.944
5.36987 15.1909 56.4925
5.37985 14.5208 55.1278
5.25042 15.0503 56.5908
5.31839 15.4254 57.1979
5.28804 15.1602 57.6562
5.36918 15.377 58.3349
5.3896 15.4208 56.9984
5.34567 15.1749 56.1284
5.19439 15.0788 57.3228
5.29788 15.2544 56.6704
5.23217 15.8196 71.7831
6.56873 18.6045 58.4377
5.26671 15.1711 55.4978
5.23399 15.1615 59.0032
5.5363 15.2492 55.9806
5.25636 14.842 56.5483
5.22585 14.7992 55.7619
5.24723 15.1839 57.1641
5.31325 15.0085 57.1241
5.23378 14.7886 56.3429
5.26251 14.7969 56.4556
5.32922 15.1835 57.4912
5.3149 15.4501 57.9167
5.28101 15.1896 56.4539
5.25992 15.2542 58.4599
5.30366 15.0259 57.85
5.33963 15.1019 56.9158
5.28034 15.4375 56.9566
5.20602 14.8877 58.1837
5.37318 15.0812 56.5958
5.22999 14.9297 56.7676
5.26665 14.9643 55.6577
4.96711 15.0655 58.7601
5.44949 14.8373 56.08
5.23827 15.3243 56.5137
5.14101 14.7996 59.6029
5.46299 15.4486 58.9352
5.26468 15.1319 55.5828
5.20825 14.8759 57.3165
5.12076 14.5221 56.5644
5.22017 15.4199 57.0273
5.1325 14.9931 57.6083
5.17804 17.7199 91.2807
7.7406 19.6323 58.168
5.28339 15.1635 56.844
5.24373 15.3021 58.0761
5.2637 15.2317 55.3519
4.97373 14.9592 57.5569
5.17253 14.9216 57.6302
5.3307 15.2884 58.3759
5.20003 14.8441 56.345
5.05319 14.8586 55.4075
4.95433 14.4362 56.8855
5.09503 14.9686 58.8729
5.28425 14.9494 58.8455
5.34459 15.1431 57.0269
5.15965 14.9313 57.6901
5.12558 15.207 56.7927
5.08681 14.7491 56.6901
4.98935 14.7603 56.5141
5.07881 14.4961 56.2832
5.22553 14.8521 56.6699
5.05858 14.9227 57.6647
5.12422 14.7562 56.7851
5.01785 14.7239 56.6337
5.15669 14.9908 58.0283
5.12293 14.7647 57.1041
5.03205 14.2539 57.0006
5.24805 15.0047 56.3561
5.07509 14.6361 56.3117
5.09357 14.4041 57.449
5.14269 15.0644 58.1435
5.2091 14.8716 56.4095
5.06949 14.6736 57.5458
5.07976 14.688 56.5877
5.03037 15.1913 57.8589
5.1246 14.6213 56.8074
5.07422 14.8422 57.8485
5.14307 14.8017 57.1189
5.01076 14.4205 55.9208
4.85892 14.6216 58.3146
5.15964 14.8737 57.2439
5.04926 14.6866 56.8114
5.02968 14.9302 57.9453
5.0625 15.0154 58.505
5.19446 14.8465 57.6999
5.07423 14.9566 57.6824
5.16189 15.2326 60.7385
5.32851 14.4858 55.9642
4.93313 14.5316 55.416
4.89713 14.7168 56.9492
5.03353 14.7883 58.1126
4.97881 14.2673 56.0423
4.9874 14.4804 56.2273
4.93543 14.4013 56.6444
4.96544 14.4555 56.2009
5.01655 14.7952 56.5352
4.996 14.302 58.2579
5.06207 14.4668 54.906
4.85302 14.2455 57.3306
5.09013 14.6548 57.1985
5.02868 14.7379 57.8634
5.09047 14.6105 56.4593
4.97225 14.762 57.2103
4.9573 14.4316 57.3451
5.04792 14.8844 56.552
4.99397 14.603 58.4426
5.0409 14.4326 57.3064
4.93913 15.1325 57.9622
4.99341 14.1473 55.6665
4.93777 14.3034 57.9833
5.0184 15.0407 58.2493
4.99171 14.642 57.352
4.98328 14.8674 58.0588
4.98503 14.9384 58.5081
5.02717 14.6375 56.2304
4.89097 14.4892 58.5793
5.04462 14.4932 57.2768
4.98758 14.5013 56.6212
4.90489 14.6808 58.941
5.03158 14.8402 56.8114
4.99036 14.5925 57.1668
4.88748 14.4071 57.5993
4.99462 14.3757 56.7821
4.94003 14.6975 55.948
4.81421 14.1415 56.3575
4.89242 14.7561 56.5842
4.89197 14.2771 59.179
5.09404 14.8691 57.7812
4.93915 14.6097 57.3324
4.91853 14.2198 57.0483
4.9571 14.2954 55.7661
4.79049 14.1134 55.4405
4.74623 14.5507 57.8705
4.92993 14.3591 57.8278
4.9335 14.5028 55.797
4.82512 14.6987 57.9563
4.97015 15.0194 57.6031
5.00986 17.4765 94.4174
7.33274 19.5337 59.2812
5.01835 15.0018 56.6427
4.85468 15.1857 59.3336
4.89184 14.5233 57.9675
4.97717 14.8063 56.8563
4.93001 14.5563 58.0281
4.96476 14.435 55.9331
4.77521 14.3611 56.6846
4.80208 14.1972 56.6269
4.92293 14.4031 56.7499
4.87584 14.3716 56.7183
4.84596 14.5829 58.335
4.89739 14.7215 58.9692
4.89255 14.7607 57.2426
4.85793 14.2408 57.2239
4.8736 14.3627 57.6305
4.83448 14.72 56.6446
4.87909 13.8229 56.3703
4.84047 14.8197 57.9178
4.86861 14.0493 56.5188
4.74323 14.1725 57.5683
4.85383 14.4959 57.3279
4.89085 14.5026 57.3647
4.8669 14.1748 56.0502
4.87679 14.0439 57.3368
4.86964 14.3853 57.2781
4.763 14.8598 58.5611
4.88639 14.9641 59.034
4.87182 14.9146 58.594
4.87954 14.6649 58.9549
5.01155 14.5142 57.9581
4.89615 14.7956 57.0367
4.74277 14.5341 59.2746
4.87633 14.4064 58.7194
4.8242 14.4121 58.359
4.96245 14.9922 56.7097
4.81424 14.2498 57.5703
4.88167 14.8016 57.878
4.87114 14.5584 58.7145
4.85215 14.6143 57.9347
4.86657 14.9283 58.2662
4.95466 14.6861 58.8678
5.03422 14.581 57.9468
4.82801 14.5397 58.5062
4.9037 14.4424 57.6136
4.92806 14.3794 57.0675
4.85716 14.3985 57.5821
4.79133 14.3743 57.3454
4.80386 14.6827 58.5398
4.89193 14.7613 57.6335
4.83871 14.6123 58.6392
4.87269 14.2597 57.6788
4.97933 15.0313 59.3533
5.0186 14.8567 57.9549
4.90571 14.458 57.0636
4.73985 14.2032 57.4281
4.83975 14.8659 58.0596
4.7988 14.0894 55.8006
4.71759 14.3386 58.2453
4.87379 14.2977 57.1937
4.75984 14.3067 57.7077
4.86994 14.0178 55.3176
4.73578 14.4693 57.7855
4.84711 14.6929 58.3325
4.89973 14.455 57.8007
4.8254 13.6699 54.9508
4.64392 14.574 58.082
4.87845 14.2249 56.5828
4.76606 14.2595 56.8446
4.79335 14.2826 56.3605
4.78368 14.3303 57.9073
4.83246 14.5497 58.6607
4.92212 14.8461 58.7202
4.78053 14.2694 57.2355
4.74517 13.9702 55.6717
4.71989 14.2971 57.4999
4.83574 13.965 57.1882
4.70597 15.0221 56.8181
4.90649 14.3914 58.8994
4.92413 14.4144 55.9763
4.66638 14.2776 59.5806
4.99084 14.8674 59.5006
4.9253 14.3588 57.859
4.83249 14.4387 57.5751
4.81028 15.1966 58.315
4.89668 14.4037 57.8338
4.82734 14.2034 57.834
4.84774 14.896 58.5148
4.87585 14.6987 58.35
4.84676 14.2568 60.525
5.0638 15.4608 61.0943
5.04348 15.3253 58.8677
4.94279 14.8293 60.4824
5.00175 15.1132 59.5624
4.99549 15.6549 61.1704
5.09977 19.0993 97.8155
7.23813 0 0