# pn-170911/RbIIR-60-RbIIA-1280-1959.psd
# Power spectrum* (dif=0,1,2) (really just |FT|^2)
# NOTE: only the first half! (symmetric)
# weeks: 1280-1959
# 4157 clock-days, 59 excluded
# PSD: 1441
7080.62 0.22132 0.0259743
524257 10.5203 0.014831
1.65481e+06 31.5846 0.0153549
313442 9.96133 0.0150351
207339 12.2375 0.0155765
96325.5 7.22569 0.0158121
65449 7.46368 0.015817
43600 6.57783 0.0161154
35500.9 6.93086 0.016825
25914.4 6.36924 0.0172216
21814.8 6.29825 0.0174717
17789.4 6.14575 0.0184244
14517.8 6.14149 0.018665
12346 6.01222 0.0197515
10633.1 6.08796 0.0203431
9200.99 5.90751 0.0208338
8275.29 5.99733 0.022388
7223.4 6.01315 0.0225831
6451.57 5.85981 0.0235702
5557.82 5.71146 0.0243509
5223.58 5.90647 0.0261475
4671.95 5.87686 0.0271515
4284.23 6.01038 0.0287154
3796.84 5.6484 0.0295525
3624.04 5.75297 0.0308197
3283.12 5.75521 0.0312593
2956.5 5.58627 0.0322956
2710.75 5.63489 0.0343704
2622.45 5.88762 0.0362366
2472.24 6.03918 0.0378858
2330.52 5.83272 0.039433
2162.95 5.82909 0.0420071
1987.13 5.80312 0.0432438
1865.17 5.92915 0.0455813
1797.41 5.92973 0.0475938
1720.88 5.99059 0.0503476
1587.19 6.01428 0.0524105
1563.28 6.12408 0.0552092
1457.63 6.07082 0.0564146
1367.7 5.92802 0.0580408
1311.45 6.03167 0.0608654
1271.47 6.19829 0.0652941
1183.74 6.20711 0.0675005
1204.6 6.32374 0.0704422
1097.35 6.28548 0.0731307
1048.34 6.25188 0.0748131
1015.5 6.39188 0.0790036
984.073 6.39762 0.0825809
963.126 6.46271 0.0859455
899.55 6.40722 0.0895135
868.802 6.53862 0.0933429
842.307 6.36286 0.0950013
816.187 6.61106 0.0998808
801.479 6.6536 0.104192
775.147 6.66777 0.106771
745.164 6.81866 0.111781
728.433 6.85924 0.115788
700.568 6.98276 0.123849
666.263 6.76673 0.124131
664.207 7.16391 0.133629
644.939 7.10555 0.136312
632.294 7.22456 0.142336
600.169 6.9911 0.142552
594.038 7.25003 0.152328
598.145 7.41481 0.159425
570.717 7.4316 0.164442
553.674 7.38038 0.169787
539.862 7.54893 0.175258
508.631 7.38724 0.177939
512.614 7.74374 0.193057
511.582 7.70979 0.195542
486.891 7.77892 0.20098
475.977 7.90921 0.210162
456.71 7.67374 0.210222
451.187 7.90225 0.220571
465.748 8.31757 0.237467
444.607 8.07373 0.235419
429.272 8.1549 0.24508
419.489 8.22109 0.252265
408.606 8.10309 0.255114
405.681 8.31431 0.269309
406.366 8.54026 0.281303
397.374 8.7043 0.292216
385.811 8.84861 0.304647
371.971 8.68091 0.305227
375.233 8.82304 0.31777
361.156 8.86693 0.328274
348.485 8.7514 0.329073
344.799 8.98528 0.342693
344.848 9.11724 0.356932
336.137 8.91749 0.359627
327.327 9.05263 0.372095
331.744 9.37963 0.391048
329.372 9.48232 0.407665
316.452 9.37549 0.410418
325.49 9.89331 0.440255
309.087 9.42118 0.427731
308.093 9.68521 0.449048
307.36 9.79938 0.459628
297.517 9.84332 0.472124
289.616 9.7586 0.479984
293.221 10.2848 0.512914
285.278 10.2281 0.518259
291.748 10.5658 0.548137
282.815 10.5957 0.560267
274.601 10.2855 0.551475
278.645 10.6209 0.583956
263.933 10.3993 0.57636
272.96 10.9342 0.621073
265.533 11.0502 0.634788
250.189 10.5673 0.615089
248.924 10.8029 0.648474
248.497 10.741 0.653039
246.41 10.961 0.679646
240.115 10.8595 0.687297
239.826 11.4311 0.734793
238.343 11.2415 0.735119
238.596 11.345 0.742934
235.91 11.6765 0.786972
231.203 11.5933 0.79551
227.852 11.6393 0.807006
231.827 11.9057 0.846095
233.06 12.3048 0.880454
222.334 11.6222 0.84825
214.209 11.742 0.867733
221.386 12.2788 0.923471
216.939 11.9113 0.907924
209.438 12.0403 0.931415
212.579 12.5902 0.991597
203.846 12.1823 0.97339
204.617 12.2619 1.0003
206.533 12.7884 1.05459
195.923 12.5144 1.04655
197.146 12.4651 1.06192
196.505 12.6284 1.09149
197.982 13.0597 1.14409
193.785 13.0796 1.16245
190.486 13.1108 1.18186
191.135 13.1851 1.19861
192.35 13.533 1.25148
184.399 13.1115 1.22866
181.225 13.2741 1.26387
183.353 13.5355 1.29999
184.134 13.6938 1.34972
173.652 13.2572 1.30911
179.223 13.8168 1.39297
175.012 13.7541 1.40351
179.156 14.046 1.44413
174.197 13.8994 1.46079
167.511 13.74 1.4546
175.24 14.5688 1.56406
168.148 14.1045 1.52818
168.658 14.5421 1.60341
175.357 15.163 1.68788
161.871 14.3339 1.62426
164.382 14.5884 1.67148
160.839 14.7057 1.70408
162.534 15.0079 1.76133
165.589 15.1657 1.80736
153.243 14.8492 1.7868
161.957 15.3728 1.87349
156.79 15.1331 1.85907
154.944 15.4701 1.94073
155.025 15.3447 1.93751
149.609 15.4934 1.9865
148.175 15.0344 1.9433
148.89 15.5429 2.02918
150.534 15.5203 2.05953
148.496 15.747 2.1132
145.655 15.6482 2.11303
146.825 15.8894 2.17764
138.191 15.4356 2.14029
143.002 15.8085 2.22054
138.8 15.8184 2.25882
143.422 16.151 2.31831
139.082 16.1885 2.34307
139.224 16.398 2.3992
141.04 16.5592 2.44268
137.514 16.6638 2.50412
135.952 16.3325 2.48147
134.099 16.5521 2.53637
129.566 16.2484 2.53916
131.471 16.5995 2.59647
132.833 16.932 2.68969
130.125 16.8347 2.6924
131.268 16.9181 2.73368
129.011 16.7379 2.71297
129.449 17.4291 2.88072
129.179 17.2624 2.86868
121.157 17.0904 2.89451
125.219 16.7872 2.85022
126.042 17.6434 3.0291
125.744 17.49 3.03918
120.039 17.2765 3.03379
122.007 17.2871 3.05888
121.071 17.8469 3.20839
120.629 17.6743 3.19934
124.089 18.5308 3.38461
118.047 17.8618 3.28787
122.922 18.4039 3.42754
116.564 17.6238 3.33372
117.19 18.3011 3.47805
113.786 17.7965 3.42615
114.864 18.3099 3.5567
113.944 18.1546 3.55591
115.451 18.7699 3.69629
113.727 18.4938 3.70261
112.423 18.5949 3.74176
112.649 18.6927 3.78294
111.738 18.4819 3.80573
108.432 18.8347 3.90016
105.796 17.9665 3.75117
107.571 18.8989 3.99
105.127 18.3893 3.93265
106.574 19.2595 4.14031
107.98 19.4716 4.23643
105.226 18.7951 4.10801
105.568 19.1417 4.22848
104.542 19.2671 4.325
102.655 18.867 4.23732
104.132 19.4167 4.38497
106.823 20.1149 4.60597
103.181 19.6172 4.52458
101.527 19.5798 4.57707
99.1513 19.411 4.55575
98.0849 19.2542 4.56332
98.8359 19.8877 4.73562
93.4815 18.9883 4.57915
100.418 20.2244 4.92715
98.6834 20.4892 5.02258
97.8891 20.2109 5.02273
99.3072 20.7442 5.15161
96.3698 20.0781 5.05075
91.4958 19.297 4.87079
94.9739 20.2702 5.21933
93.5472 19.7297 5.08421
94.6904 20.4408 5.30154
95.2751 20.5749 5.38281
92.1285 20.2703 5.34673
92.804 20.5241 5.49151
90.3937 20.5042 5.54186
90.6677 20.2272 5.47321
91.9525 20.7888 5.66909
90.2692 20.3832 5.64414
88.4375 20.8843 5.78382
87.6522 20.5966 5.76852
91.1186 21.569 6.05277
86.833 20.3447 5.78777
87.5714 21.3651 6.12504
86.8814 20.9953 6.01838
88.4542 21.7265 6.36773
84.7319 20.5803 6.06275
88.0389 21.5634 6.35595
83.9587 20.7504 6.17609
84.454 21.2969 6.39667
83.0885 21.063 6.3703
82.7049 21.736 6.65264
83.0542 21.5129 6.57056
82.8866 21.701 6.73239
83.274 21.4983 6.67462
81.4665 21.4995 6.74376
81.0965 21.6412 6.84373
80.0745 21.5884 6.87203
80.2756 21.6882 6.96778
79.7565 21.667 7.02769
78.7363 21.5184 7.00748
79.8326 22.2206 7.31504
79.4093 22.3639 7.36689
77.7771 21.6394 7.21013
75.691 21.4338 7.1926
75.2383 21.6149 7.27051
76.7095 21.9069 7.46109
77.3736 22.0641 7.58076
73.5599 21.3324 7.36484
75.9253 22.103 7.69889
75.9558 22.601 7.82759
72.7975 21.8844 7.77366
73.3304 22.3069 7.97693
75.3235 22.317 7.91838
72.9337 22.1575 7.97413
69.8546 21.1952 7.73695
72.3673 22.2772 8.1305
70.9089 22.0456 8.09282
73.1257 22.8252 8.48559
71.8142 22.708 8.40359
70.6414 22.4569 8.46358
70.9664 23.5234 8.92116
71.1347 22.9646 8.67949
67.9575 22.0818 8.5509
70.8395 23.2203 8.94195
70.41 23.4058 9.06445
71.1388 23.4151 9.08654
69.6138 23.0023 9.05548
69.3003 23.6796 9.42039
66.9561 22.8657 9.09668
67.0842 22.9037 9.18909
67.0243 23.3728 9.46198
65.9049 22.8949 9.27102
67.2042 23.6013 9.62887
66.8032 23.4438 9.73414
66.169 22.9394 9.50219
66.8331 23.6282 9.80621
66.046 23.4122 9.79523
64.3582 23.0977 9.85352
64.5811 23.5327 10.0042
63.9522 23.1055 9.85759
63.7583 23.5761 10.1206
62.9802 23.3464 10.1648
62.2026 22.9369 9.99129
62.4405 23.3537 10.2293
62.339 23.0783 10.1055
60.5847 22.4713 9.92944
60.0699 22.7199 10.2172
61.2784 23.4394 10.5443
60.9328 23.3178 10.5281
60.4362 23.5905 10.7471
61.07 23.6358 10.8024
59.5283 23.5552 10.7945
57.26 22.4835 10.4813
58.4724 22.8679 10.6033
57.6358 23.2846 10.9331
59.7223 24.2108 11.448
59.1944 23.744 11.2403
57.3214 23.3345 11.1749
58.9543 23.9215 11.4902
57.1384 23.3579 11.3061
56.4677 23.4398 11.3384
56.3565 23.4022 11.4287
55.2813 23.2763 11.471
57.2842 24.0894 11.8825
55.1321 23.6274 11.7979
56.2539 23.8645 11.9432
55.8636 23.8383 11.9687
56.8733 24.4578 12.3309
55.1911 23.7347 12.0125
54.0756 23.6468 12.2152
54.3768 24.0517 12.3081
54.0305 24.1528 12.4971
54.0659 24.0311 12.441
53.3354 24.067 12.6517
52.2311 23.8128 12.5949
53.4224 23.9077 12.6367
52.6 23.791 12.5105
53.2871 24.3138 13.055
51.9518 24.2715 13.1402
51.9709 23.8359 12.895
52.1144 24.0226 13.0407
51.2242 23.838 13.0589
50.3961 23.7443 13.1014
50.7064 24.1049 13.3116
50.9653 24.3051 13.607
50.3247 24.0274 13.3603
48.9339 23.7195 13.3957
49.4764 23.7976 13.5346
49.7522 24.0417 13.6575
48.5702 23.3908 13.3019
49.1119 23.9702 13.7349
48.9624 24.286 13.9776
48.9982 23.9855 13.8748
48.894 24.1631 14.0572
47.7671 23.8262 13.9793
48.2157 24.6856 14.609
47.8606 24.6345 14.5771
45.6634 23.1654 13.9778
48.1187 24.769 14.7823
46.3979 24.1502 14.4633
47.815 24.8354 15.0416
46.3888 23.8936 14.5853
46.2999 24.3248 14.9836
46.6516 24.5204 15.0937
47.0647 24.8177 15.167
45.4926 24.0856 15.0041
44.5996 23.9453 14.9581
45.102 24.0499 15.0955
45.8094 24.8156 15.5642
46.8129 25.4105 16.0695
45.7429 24.6024 15.5793
44.1285 24.2683 15.6141
43.9859 24.5469 15.871
44.9288 24.8912 16.1417
44.1027 24.4329 15.7863
43.2491 24.0935 15.6469
43.762 24.5694 16.156
43.4473 24.8097 16.2173
42.3253 23.8335 15.9012
42.0107 24.2263 15.973
42.6175 24.852 16.8196
42.9023 24.4827 16.4496
43.0007 24.6997 16.5703
41.7646 24.4235 16.6451
40.9768 24.3026 16.673
41.8456 24.0873 16.5867
40.556 23.5838 16.3387
41.0526 24.3705 16.8628
41.0802 24.6263 17.1719
40.7275 24.3006 16.9681
41.7356 25.1272 17.5266
40.9328 24.7382 17.4391
39.7299 23.6104 16.5612
40.428 24.3105 17.39
39.0088 23.6862 16.9724
38.5093 23.8345 17.0787
39.0849 23.9423 17.3705
39.9991 25.0203 18.0218
39.9538 25.3774 18.6403
38.256 24.2409 17.7329
38.343 24.3651 18.0137
38.3504 24.315 17.9971
39.3489 24.6536 18.2201
38.5452 24.6756 18.4211
37.2413 24.3312 18.3256
37.2663 23.8467 17.9093
38.2005 24.7095 18.5698
38.095 24.6649 18.412
37.9435 25.1473 19.1746
36.8129 24.1982 18.651
37.0233 24.2645 18.8062
37.088 24.4858 18.9111
36.8739 24.2352 18.7616
36.5903 24.6673 19.3272
36.4884 24.6022 19.2194
36.8222 24.8584 19.6278
36.7882 24.8634 19.5961
36.0717 24.3505 19.3463
36.7276 25.1562 19.8194
35.5352 24.9279 20.0912
35.6504 24.3213 19.5475
34.237 24.0505 19.5692
35.7906 24.2184 19.5016
35.1436 24.6982 20.0196
34.8205 24.6645 20.2359
35.1581 25.336 20.7403
33.9056 23.9559 19.6474
33.5646 23.8484 19.8739
34.3682 24.3351 20.2184
35.0248 25.0738 21.027
34.6032 24.8508 21.0103
33.7564 24.425 20.6546
34.7375 24.971 20.9468
34.2756 25.0648 21.1626
33.4523 24.5585 20.9823
33.4097 24.4002 20.7613
32.5377 24.4171 20.925
33.1934 25.0284 21.8007
32.7898 24.5616 21.4474
33.3405 24.899 21.8795
32.5404 24.6965 21.5157
32.7083 24.6743 21.6411
32.9544 25.2853 22.1896
31.2454 24.0548 21.6276
33.4875 25.4244 22.4575
31.3318 24.1427 21.6491
31.9479 24.4697 22.0328
31.6447 24.4615 21.9226
30.9993 24.0084 21.8678
31.9389 24.6462 22.4113
31.5885 24.2802 21.8712
30.7394 24.0995 22.1299
30.8178 24.3096 22.3837
30.9359 24.8229 23.0229
31.4588 24.793 22.758
30.6845 24.4793 22.6179
29.1217 23.4226 22.1562
30.1527 23.8355 22.1714
30.2856 24.5696 23.0695
30.4931 24.4513 22.8896
30.0002 24.7829 23.6839
29.9314 24.9132 23.9782
29.8362 24.5136 23.4672
29.8517 24.3253 23.138
29.2538 24.3304 23.3426
28.8384 24.0681 23.4019
28.5301 23.6579 23.0012
29.0572 24.2302 23.6815
29.2251 24.4896 23.6955
27.9843 23.8841 23.8264
29.1146 24.7617 24.2783
28.4681 24.0091 23.7831
28.8584 24.4581 24.298
28.5357 24.357 24.2162
27.7277 24.0434 24.2613
27.3619 23.6378 23.7865
28.3783 24.4736 24.5731
27.9325 24.6122 25.0397
27.4513 23.9234 24.4268
28.2482 24.2877 24.4099
27.1677 24.0923 24.8298
27.9804 24.6005 25.1755
27.4627 24.5121 25.4427
27.2955 24.3981 25.1931
26.5826 23.7849 24.7217
27.0081 24.5567 25.4128
26.2939 23.4847 24.8738
26.7618 23.8486 25.1754
26.8943 24.0893 25.0199
26.6788 24.1762 25.7096
26.9584 24.218 25.4614
25.5813 23.8448 25.5483
26.2926 23.7502 25.3701
25.9181 23.94 25.7957
26.1335 24.3807 26.3266
25.8525 23.4985 25.2902
25.3396 23.2677 25.2385
25.0377 23.5846 25.6427
25.7211 24.2579 26.38
25.604 24.5589 26.8854
25.7682 24.1002 26.3843
25.2183 24.2558 26.8893
25.0694 24.0984 26.6459
24.916 23.8205 26.764
24.9041 23.801 26.5053
25.4806 24.5024 27.0485
24.5063 23.7333 26.7878
24.9797 24.5925 27.6057
24.6193 23.7865 26.7668
24.6472 24.1014 27.3127
23.9017 23.4706 27.0273
25.0576 24.5217 28.0771
23.9151 23.378 27.0129
24.6391 24.8068 28.5343
24.3593 23.9555 27.4826
24.3392 24.2804 28.3578
24.3813 23.778 27.3445
23.5866 23.7291 27.7995
23.5409 23.5158 27.4149
23.3934 23.8615 28.3786
23.761 24.0453 28.4041
23.7282 23.9043 27.8981
22.9228 23.9869 28.6022
23.0604 23.4865 27.9757
23.5002 23.9719 28.6972
22.7201 23.3367 28.0794
22.922 23.7325 28.6491
23.0959 23.439 27.9039
22.8481 23.8549 28.9417
22.1121 22.7769 27.827
22.2288 23.3279 28.4977
22.789 23.3093 28.2499
21.9412 23.2921 28.4894
22.2071 23.6235 29.3617
22.51 23.6827 28.9747
22.027 23.249 29.3888
22.2006 23.1008 28.6929
21.9739 23.2985 28.9926
22.1434 23.7298 29.5053
21.8805 23.4248 29.2755
21.6459 23.3787 29.3402
22.2727 23.7246 29.8919
21.2557 23.2572 29.8136
21.9117 23.6577 29.6591
21.0587 23.3754 29.7774
21.5156 23.8807 30.6935
21.0584 22.5698 29.0837
21.8668 24.0879 31.051
21.4814 23.4481 30.4094
21.198 23.226 29.9318
21.1919 23.719 30.9603
21.1075 23.5779 31.0149
21.2755 23.6806 30.7399
21.0951 24.064 31.7442
20.6747 23.3548 30.7076
20.3922 22.617 29.6746
20.5389 22.9817 30.6197
20.6193 23.3507 31.2989
21.014 23.39 30.7316
20.4484 23.1517 30.7042
20.5117 23.8235 32.3601
20.9632 23.9649 32.0068
20.1563 23.4383 31.4292
19.7731 23.0147 31.1826
19.9177 23.5098 32.183
20.3181 23.6697 32.003
21.3034 25.3115 34.6246
20.7421 24.4689 33.8
21.533 26.0723 36.3782
21.781 25.4586 34.0909
19.726 23.0209 32.6954
21.8001 26.6031 37.0657
21.8334 25.6131 34.9916
20.0856 24.1033 33.8779
20.0677 23.9238 33.3901
19.7724 23.9516 33.6986
20.1485 24.1072 33.6944
19.3419 23.002 32.1577
18.9758 22.8928 32.5249
19.5588 23.8206 33.7848
19.4111 23.5679 33.8634
19.0418 22.9571 32.9012
18.8575 23.0401 32.9315
18.9068 22.8673 32.9562
18.9766 22.7114 32.4858
18.5266 22.7235 32.8714
19.0039 23.2555 33.5628
18.7881 23.5068 34.2678
18.691 22.9984 33.4949
18.3562 22.5654 32.7329
17.678 22.532 33.3134
18.2601 22.7659 33.2429
18.1486 22.8658 33.9968
18.0632 22.4815 33.3517
18.2471 22.5214 33.2853
18.2358 23.348 34.2934
17.2885 22.1288 33.4882
18.1465 22.7163 33.81
18.1055 23.1323 34.4055
17.8756 22.5807 33.8528
17.6311 22.5462 34.3614
18.0991 23.1511 34.9743
17.8718 22.6668 34.5519
17.2943 22.3803 34.2267
17.5819 22.3435 34.0133
17.5282 22.4954 33.8061
17.0996 22.3082 34.591
17.5484 22.8653 35.0755
17.0836 22.1936 34.2592
17.5047 23.4343 36.456
17.4924 22.6406 35.0064
16.9409 22.1463 34.5972
17.2678 22.8212 35.6637
17.1581 22.518 35.0396
16.8332 22.0342 34.1154
16.9118 22.5029 35.2373
16.4989 21.9631 35.1553
16.6968 22.2989 34.8612
16.232 21.8357 34.8047
16.7688 22.3162 34.9679
15.8087 21.4399 34.3818
16.5943 22.466 35.8197
16.776 22.8293 36.3294
16.2308 22.207 35.7833
16.3344 22.2264 35.6743
16.5568 22.8768 37.1453
16.4295 22.3649 36.0215
16.1455 22.0739 35.9849
16.1905 22.3343 36.5459
16.3519 22.279 35.959
15.8669 22.4298 36.7389
15.7372 21.7925 36.4281
16.5168 22.5484 37.1322
15.8761 21.8262 35.5486
15.2414 21.5209 36.0197
16.0464 22.2229 36.7067
16.259 22.9853 38.223
15.7901 22.0906 36.5529
15.7418 22.256 37.1989
15.3832 22.2842 37.6131
15.5102 21.4767 36.1047
15.6001 22.2896 37.3562
15.6325 22.0905 36.7781
15.0659 21.4033 35.8634
14.6238 21.1771 36.4984
15.0562 21.9565 36.9051
15.1509 21.6173 36.9662
15.1954 22.1507 37.846
15.1125 22.0722 38.3472
15.0892 21.5587 36.7129
15.0832 22.0831 37.9804
14.9585 21.8385 37.8639
14.3499 20.7366 35.4088
14.3771 21.8181 38.6225
15.084 21.8029 37.5958
14.6213 21.5126 37.6643
14.9747 22.0812 38.3369
14.7601 21.7561 38.1829
14.6366 21.7386 37.7995
14.3756 21.5388 38.0862
14.2085 21.1295 37.8874
14.6289 21.9205 38.3554
14.3416 21.3132 38.0392
14.5567 21.9796 39.6836
14.6179 21.1819 37.0312
14.3379 21.6095 38.5877
14.216 21.2364 37.7511
14.2191 21.6431 39.0918
14.1587 21.4053 39.0141
14.1866 21.4456 38.6698
13.7884 20.7864 37.6302
14.0516 21.1875 38.1963
13.7925 20.966 37.9067
13.8268 21.2858 38.4373
13.5958 21.0793 38.91
13.7235 21.4992 39.9398
13.9948 21.8425 39.6166
13.6592 21.3128 39.869
13.9067 21.4948 39.1132
13.5499 21.231 39.5099
13.9465 21.7165 39.9608
13.4955 20.8132 38.149
13.4786 20.8798 39.0506
13.5089 21.3885 39.7817
13.3261 20.8198 39.1387
13.3745 20.8684 39.1456
13.4982 21.5013 40.6547
13.5829 21.1954 39.5982
12.9768 20.8988 39.1059
13.1734 20.9118 39.8878
13.3021 21.0722 40.2207
13.8919 21.8498 40.9757
13.3171 21.6128 40.9042
13.019 21.1162 40.3535
13.2813 21.3078 41.3066
13.2414 20.9934 40.1393
13.15 20.7263 39.6734
12.9084 21.0497 40.0743
12.7094 20.8125 40.4121
13.0637 21.051 40.8134
12.8677 20.8238 40.3239
12.8256 20.808 40.4844
12.728 20.8868 40.9644
12.749 20.4895 39.7295
12.3924 20.3112 40.033
12.9004 20.74 40.4603
12.8803 21.2768 40.9382
12.5617 21.2442 41.8881
12.6289 20.843 41.5192
12.6354 20.7519 41.2222
12.7563 20.9148 41.5227
12.8454 21.9096 43.3867
12.3615 20.0368 39.9927
12.4647 21.1519 42.2805
12.3022 20.0701 39.9349
12.1956 20.4866 41.439
12.3279 20.6305 40.5962
12.0174 20.6251 41.5645
11.9931 20.1844 41.331
12.2932 20.9471 42.6184
12.5532 20.9737 41.8395
11.8509 20.4464 41.8107
12.1764 20.9723 42.0944
11.7791 20.2151 41.5176
12.0855 20.7443 41.6729
11.7237 20.1771 41.8602
12.143 20.4871 41.2418
11.6701 20.4306 42.6016
11.94 20.5358 41.9962
11.6044 20.1158 41.6217
11.7676 20.3211 42.2808
11.8636 20.893 43.5923
11.9107 20.5263 42.9839
11.882 20.1598 41.8636
11.5781 20.4324 42.497
11.3141 19.8781 41.7208
11.3606 19.743 41.4626
11.5276 20.1132 42.317
11.3758 19.8335 41.5881
11.5063 20.442 43.5841
11.7587 20.1558 41.7904
11.4301 20.3268 43.1278
11.3284 20.0839 43.2884
11.4757 20.0468 42.7724
11.4997 20.3102 43.1066
11.2772 20.1692 43.2037
11.3806 20.4174 44.1729
11.3131 19.9345 42.523
11.2974 20.2966 43.5249
11.2184 20.2663 43.3323
11.3039 20.4536 44.0603
11.1156 19.7646 42.6799
11.1369 20.2854 44.1802
10.9991 19.7901 42.9386
10.9075 19.7335 43.6018
11.2415 20.2602 43.803
11.1387 20.3373 43.8276
10.9805 19.6696 42.5505
10.6255 19.6768 43.1021
10.8979 19.9557 43.8114
10.9577 19.8107 43.2715
10.7407 19.8342 44.2304
10.6752 19.5974 44.1939
11.1127 19.7957 43.1865
10.7974 20.1562 44.6033
10.9656 19.8379 43.9651
10.4306 19.2008 43.3226
10.5697 19.4806 42.816
10.2189 19.5694 44.4444
10.2594 19.1788 43.8646
10.6331 19.6725 43.6328
10.3331 19.063 43.1707
10.569 19.9503 44.2352
10.141 18.9213 42.2333
10.3145 19.4219 44.0569
10.2758 19.417 44.015
10.2272 19.1602 44.3638
10.6066 19.7868 44.4186
10.4257 19.8048 44.3817
10.0406 18.8518 44.2115
10.4824 19.7996 45.0587
10.4734 19.9591 45.1891
10.2974 19.3068 44.2691
10.1502 19.6655 44.2452
9.93552 19.0252 43.3815
9.91634 19.2791 44.6878
10.083 19.3796 45.2442
10.357 19.4886 44.9738
10.1798 19.9082 46.8324
10.3483 19.7481 45.7364
10.1906 19.5647 45.5312
10.002 19.396 44.919
9.9477 19.6674 46.1391
9.86954 18.9564 44.9753
9.99846 19.081 44.5919
9.62891 18.7576 43.9567
9.72485 19.2317 45.7628
9.83842 19.1644 45.5418
9.79565 19.1521 45.1693
9.81554 19.2732 45.728
9.80191 18.9485 45.6109
9.92227 19.2725 45.4583
9.70967 19.0805 45.4795
9.75324 19.6837 46.7364
9.53235 18.8279 45.6273
9.77555 19.1596 46.2611
9.90547 19.7547 46.9791
9.8132 19.0139 45.3327
9.45389 19.0482 45.693
9.60335 19.0462 46.3525
9.88843 19.6048 46.8547
9.40098 18.8465 45.4366
9.60838 19.1478 46.9611
9.92295 19.4463 46.1777
9.45211 18.8436 45.4127
9.58058 19.7052 48.5019
9.66464 19.611 48.0122
9.31709 18.6956 46.3061
9.33199 18.9195 45.847
9.22004 18.9262 46.5414
9.27434 18.6472 45.7319
9.08378 18.2295 44.7717
9.25651 19.2636 47.5367
9.16945 18.5698 46.4088
9.35646 18.3404 45.1381
9.19726 18.612 46.0632
9.13389 18.8013 46.5578
9.33757 18.9742 47.031
9.17208 18.8362 46.3151
8.99481 18.6868 46.6862
8.89703 18.5331 46.647
9.1656 18.7215 47.5721
8.95275 18.6317 47.3701
9.31928 18.8034 46.2055
8.91305 18.5843 47.0702
9.038 18.7302 46.816
9.15297 19.1011 47.1933
8.88971 18.4719 47.2505
8.81336 18.4418 47.2551
9.01709 18.5778 46.0306
8.85469 18.6806 48.0031
8.80844 18.0745 46.667
9.00643 18.8672 48.8051
9.03478 18.4313 46.5182
8.9477 18.7413 48.0479
9.15004 18.9888 47.7947
8.65569 18.4345 47.6288
8.62103 17.8891 46.3014
8.87482 18.7619 47.945
8.85319 18.8785 48.4684
8.59451 18.404 47.925
8.96586 19.4893 50.4643
9.00845 19.5732 50.598
9.05462 19.4664 52.0331
9.67133 21.641 55.7783
9.69345 21.514 57.7252
10.3314 23.9742 64.1416
10.7496 22.1156 51.6225
8.26928 18.7501 56.0444
10.654 23.9636 62.0666
10.3323 22.5695 58.339
9.72036 21.1373 54.5451
9.34805 20.1726 51.0181
8.55856 18.8949 50.3817
8.70611 18.6208 49.1115
8.56737 18.5591 49.4016
8.50472 18.5682 49.6325
8.68693 18.7382 48.6237
8.27966 18.3131 49.1385
8.39912 18.1408 47.6989
8.2749 18.357 48.2904
8.09791 17.9396 48.7485
8.22073 18.2748 48.0886
8.00128 17.8125 47.6637
7.97056 17.957 48.7139
8.27804 18.17 48.5891
8.03925 17.5626 47.6114
8.05024 17.6239 48.6981
8.21979 18.2896 48.9651
8.10287 18.0414 49.597
8.22975 17.6607 47.9436
8.20576 17.9546 47.9782
8.13246 18.1712 49.5068
8.10723 17.6198 47.8441
8.09412 17.8473 47.5772
7.78911 17.3607 48.1823
8.12205 18.1871 49.347
8.06353 17.7084 48.7113
8.01795 17.7592 47.8455
7.99144 17.8421 48.1899
7.76845 17.3151 48.0513
7.77399 17.4419 48.1953
7.93624 17.7902 48.4689
7.66735 17.3267 49.3929
8.00152 17.7277 48.3678
7.91395 17.645 49.066
7.79993 17.546 47.8068
7.66328 17.4349 48.4703
7.63511 17.2526 48.683
7.65837 17.1786 47.9812
7.55866 17.4483 49.3204
7.78513 17.4956 47.8376
7.4151 16.6953 47.6998
7.66585 17.4221 48.0615
7.46981 17.6848 50.1027
7.61919 17.3262 49.2413
7.70164 17.7098 49.6807
7.54832 17.3809 49.7328
7.64308 17.0008 47.505
7.56507 17.6976 49.9909
7.63951 17.5187 49.8195
7.60507 17.2262 48.413
7.60128 17.5595 49.5487
7.48669 17.3088 48.8525
7.50068 17.3311 49.1363
7.64108 17.6315 50.0093
7.47772 17.0985 48.9046
7.4555 17.3273 50.099
7.62574 17.4096 48.7708
7.3201 16.9928 48.6189
7.32233 17.2518 49.9026
7.39112 17.7451 50.8513
7.4415 17.5551 49.5721
7.34919 17.2533 49.8183
7.23241 16.9274 48.8092
7.3165 17.2641 49.9794
7.08836 16.7595 49.4438
7.40655 17.3438 50.1548
7.35776 17.3412 49.9432
7.31644 17.1787 49.7878
7.16264 16.4924 49.2526
7.32018 17.311 50.2961
7.16237 16.6322 48.3538
7.16473 16.8548 48.9054
7.06402 17.0336 51.1939
7.43217 17.2964 51.0109
7.31298 17.4343 50.2066
7.19758 16.7271 48.8025
7.19889 17.2957 50.7027
7.2027 17.3059 49.8996
6.9917 16.7588 50.2546
7.21375 17.0455 49.771
7.16992 16.9028 49.4083
6.9245 16.8379 50.0158
6.99591 17.0011 51.1963
7.11333 16.9053 49.3962
6.92719 16.6834 50.2264
7.07552 16.6808 49.3561
6.95179 16.9185 51.0622
7.10511 16.6873 49.5003
6.97853 16.5656 48.3855
6.94724 16.8986 50.4519
6.8967 16.625 49.8193
6.85749 17.1183 50.705
6.86925 16.4927 49.7845
6.89457 16.7381 50.7249
7.00322 16.7741 49.4024
6.82916 16.739 49.741
6.81936 17.0528 51.761
6.98261 16.5594 50.3338
6.89431 16.8131 51.5867
6.95143 16.6769 49.6189
6.82285 16.5815 50.489
6.77374 17.0564 51.0696
6.87598 16.6791 50.6208
6.77339 16.7899 51.5911
6.77108 16.3694 50.685
6.89272 16.5608 50.5825
6.76019 16.6049 50.0183
6.55356 16.1708 49.3825
6.67391 16.6266 51.1419
6.91905 16.9404 51.4266
6.63445 16.5951 51.104
6.84893 16.8355 51.071
6.69908 16.1814 50.1395
6.72317 16.9595 50.9884
6.49577 16.3452 50.5814
6.62588 16.3281 50.4711
6.69922 16.7113 50.7707
6.579 16.0809 50.1071
6.48401 16.2678 51.278
6.66716 16.6304 50.9839
6.66872 16.9619 53.1769
6.71857 16.3389 49.8656
6.36776 15.8176 50.509
6.55806 16.5184 51.1495
6.46492 16.0748 50.0877
6.44298 16.4736 51.8635
6.5566 16.306 51.6179
6.55242 16.1684 50.2453
6.43807 16.2069 50.5923
6.43618 16.2718 51.376
6.56018 16.3127 50.5339
6.60433 16.7456 53.0138
6.4975 16.6383 52.0816
6.53183 16.2805 51.435
6.48864 16.261 50.962
6.42217 16.0588 50.6055
6.34567 15.8017 50.0467
6.26327 16.2325 51.2478
6.43639 16.4784 51.8993
6.28663 15.5905 50.3681
6.40522 16.201 50.6827
6.22974 16.0687 50.4875
6.30751 16.147 52.0003
6.41406 16.3233 52.6448
6.51178 16.4775 51.1255
6.15699 16.0295 52.0265
6.44291 16.422 52.015
6.25678 15.9894 51.5375
6.36151 16.0905 51.0878
6.23691 15.5069 49.844
6.13588 15.971 52.1972
6.43588 16.148 51.9496
6.39207 16.2914 51.7782
6.22632 15.9826 51.0372
6.17806 16.0928 51.0222
6.09316 15.6191 51.9224
6.33655 16.1777 51.464
6.08537 16.0766 53.6795
6.36434 16.0672 50.7873
6.16152 16.4541 53.5518
6.23387 15.509 50.3454
6.23819 16.1061 51.5499
6.0382 15.1636 50.0093
6.11454 16.2555 51.9571
6.07414 15.659 52.0221
6.10225 15.7242 51.8148
6.19012 15.9864 50.8155
6.03739 15.6878 52.316
6.09068 16.0272 51.6847
6.10626 15.915 52.0974
6.02218 16.032 52.092
6.01934 15.6934 51.4664
6.03721 15.9608 52.6542
6.04499 15.9473 53.1491
6.14571 15.8167 52.0371
6.01563 15.6945 50.3389
5.91748 16.1167 52.5693
6.08503 16.0399 51.9167
5.75184 15.3075 51.5203
5.95773 15.7768 53.2248
6.16601 16.0837 53.0239
5.99073 15.6967 52.2063
6.0226 16.0849 53.4558
5.99609 16.0567 53.3679
5.95765 15.3191 51.3097
5.8777 15.4438 51.0954
5.81449 15.115 51.7787
6.09408 16.1993 52.895
5.96639 15.8389 52.2504
5.84684 15.6292 52.6795
5.89969 15.664 51.7877
5.70878 15.1139 51.0541
5.72372 15.6334 52.5741
5.91934 15.7899 51.6164
5.7172 15.567 52.211
5.73115 15.4883 52.0985
5.79813 15.5842 52.2923
5.7219 15.4374 52.7967
5.76996 15.9784 53.0367
5.78777 15.7431 53.1238
5.85063 15.6689 53.2151
5.87284 15.5514 52.9346
5.8552 15.7526 52.5658
5.79718 15.3198 51.9706
5.6788 15.5343 53.7467
5.81927 15.6367 52.7539
5.78711 15.3055 53.205
5.85491 15.3321 52.3569
5.71385 15.4879 51.7249
5.62476 15.5115 53.7432
5.85498 15.4577 52.0574
5.63496 15.3467 52.7367
5.73835 15.2815 53.4859
5.86595 15.7483 52.7125
5.61579 15.1639 52.0549
5.71299 15.6308 53.3137
5.7728 15.4525 52.9785
5.69451 15.4287 52.4413
5.61725 15.2445 53.2095
5.85601 15.5253 51.7317
5.66207 15.6103 53.8613
5.72997 15.4936 52.3827
5.61197 14.9837 52.1661
5.58792 15.4168 53.3247
5.52777 15.1275 52.455
5.54785 15.3501 53.4215
5.65773 15.3234 53.067
5.65185 15.6597 53.6444
5.64538 15.1512 52.4251
5.57853 15.6524 53.7534
5.54984 14.728 52.0799
5.57345 15.1468 52.7384
5.59749 15.4647 52.8327
5.53871 15.621 54.8502
5.70497 15.5348 53.3618
5.60992 15.594 54.1064
5.6034 15.4205 54.3301
5.64311 15.5087 54.6435
5.6957 15.4964 54.0974
5.62426 15.8306 55.3985
5.63923 15.3646 53.3
5.57286 15.8696 53.1397
5.34493 15.1598 54.8002
5.54582 15.2533 53.3535
5.51064 14.8374 52.5968
5.48975 15.3565 53.1678
5.54824 15.38 53.7494
5.4883 15.417 54.22
5.57248 15.3088 54.8459
5.499 15.1552 53.3565
5.40695 14.9867 53.4763
5.42899 14.9658 53.5739
5.44418 15.5125 53.6001
5.36433 15.3259 53.8365
5.48435 15.0781 52.9904
5.32292 14.9224 53.4903
5.42963 15.0885 54.3651
5.48031 15.2066 52.23
5.22318 14.7383 54.1759
5.45403 15.5786 54.361
5.43282 15.1104 53.1611
5.30468 14.9557 53.7787
5.41159 15.0351 53.3199
5.38077 15.408 54.0857
5.35306 14.8035 53.1082
5.3587 15.1598 53.5525
5.32782 15.1447 54.9086
5.49776 15.282 53.7419
5.32473 14.9261 53.6962
5.37916 16.019 58.0545
5.54499 15.4881 55.7806
5.42873 15.4052 54.9679
5.44504 15.2184 53.7306
5.2965 15.1262 54.9434
5.49584 15.6249 57.3024
5.43776 15.6095 56.3437
5.55622 16.0302 58.0817
5.63305 16.1998 58.6943
5.80102 16.545 59.8991
5.80086 17.5405 65.379
6.24167 19.003 67.7891
6.35583 19.7642 76.8525
7.3276 23.3558 87.0689
7.66188 20.1142 55.6967
5.18094 17.4081 79.2573
7.52852 23.587 81.3222
7.15306 19.7861 68.7097
6.30814 18.8923 68.4601
6.1888 17.3974 59.7889
5.67583 16.112 58.9741
5.58727 16.5942 58.4502
5.46215 15.605 56.2043
5.42051 15.978 58.0132
5.45345 15.5513 55.8537
5.33942 14.9663 54.1137
5.13988 14.5497 54.658
5.28779 15.0444 55.344
5.31719 15.3571 54.1773
5.12078 14.8352 54.3773
5.2961 14.7271 53.1752
5.18195 15.0955 55.0041
4.99897 14.8386 53.8189
5.15896 14.4186 52.6534
5.05183 14.7339 54.4018
5.15451 14.8476 54.8027
5.15022 14.9478 55.0858
5.07261 14.6797 54.4063
5.21004 14.7445 53.0541
5.03022 14.8443 54.9622
5.16232 14.5053 52.5392
4.96414 14.9338 56.0996
5.16716 14.8113 53.2967
4.96135 14.4468 53.9201
5.09433 14.7113 53.5992
4.95644 14.7947 54.5553
5.01655 14.6256 55.9732
5.20547 14.9104 52.9737
4.98431 14.7074 53.0913
4.94779 14.509 55.9289
5.22658 14.8257 55.0948
5.10803 14.7672 54.6006
5.15193 14.3061 52.3921
4.89053 14.7262 54.4782
4.99907 14.7718 55.4815
5.16637 14.6834 54.6085
4.97981 14.5858 54.2052
5.06349 14.9594 53.7064
4.91698 14.042 53.9971
5.01843 14.3153 53.8471
5.1225 14.6616 53.9284
4.99569 14.5556 55.18
5.05194 14.941 54.3162
4.92605 14.4633 54.6974
5.06025 14.527 54.3612
4.95386 14.4993 55.147
5.11337 14.2938 52.9602
4.97186 14.154 51.7645
4.88112 14.6878 55.3768
5.01311 14.4044 54.1303
4.964 14.699 54.9555
4.93931 14.5016 53.9945
4.96193 14.7324 54.5691
4.87048 14.4709 54.8437
4.96783 14.4034 53.3399
4.84137 14.5838 54.2177
4.88608 14.4781 54.7208
4.86613 14.3406 53.9773
4.90004 14.6104 54.2007
4.8438 14.3136 54.2994
4.87603 14.4472 54.15
4.92721 14.2336 54.9252
5.04135 14.4878 54.6607
4.92001 14.4199 54.2704
4.90908 14.2362 53.5461
4.8385 14.2422 53.9379
4.80734 14.1487 54.4963
4.99402 14.6995 55.903
5.00221 14.4358 53.8781
4.83104 14.0185 53.5456
4.85051 14.2921 54.5507
4.88908 14.508 52.9466
4.74069 14.1999 54.1048
4.75734 14.357 54.3739
4.93607 14.3721 54.5968
4.89165 14.4355 53.344
4.71709 14.1663 55.7573
4.9372 14.1041 51.8589
4.65533 14.0935 53.809
4.80548 14.1085 53.1071
4.66619 14.4342 54.8428
4.83645 14.0416 53.5572
4.81046 14.2402 53.5711
4.74775 14.1174 53.5733
4.67902 14.0688 54.5569
4.76464 14.5129 55.7731
4.93167 14.3317 54.6522
4.72014 14.0337 54.9548
4.89259 14.4833 54.7636
4.69924 14.0186 54.097
4.76128 13.8821 52.6315
4.67885 13.9957 52.9079
4.68478 13.9011 53.5858
4.76744 14.2455 54.4395
4.76443 14.0637 53.7144
4.69672 13.8021 53.4851
4.71506 14.1768 53.7606
4.73652 14.0113 55.2998
4.79193 14.3383 54.7066
4.7748 14.0173 53.4206
4.63584 13.8415 53.0254
4.66084 13.9237 54.1356
4.70032 14.0628 54.7381
4.71212 14.2737 54.6372
4.6489 13.9276 53.4445
4.63766 14.4145 55.1496
4.77558 14.0689 53.5958
4.67283 14.0055 52.7719
4.52601 13.7061 53.3352
4.68671 14.0348 54.5465
4.70063 14.4396 55.4753
4.72906 14.3012 55.0348
4.68395 14.0328 54.676
4.72641 13.9974 53.6754
4.60637 13.8675 53.8116
4.62862 13.9263 54.1715
4.7116 14.1369 54.6528
4.6842 14.3087 53.8494
4.68566 13.9461 54.262
4.60189 13.7562 54.939
4.80698 14.2555 54.2092
4.63563 14.1118 54.7152
4.65989 14.0218 54.4269
4.55542 14.076 55.3454
4.73684 14.0868 52.8927
4.56731 13.9446 54.6022
4.64734 13.9292 55.2592
4.72021 13.9228 54.4333
4.59759 14.1976 54.8433
4.6463 14.0861 54.7434
4.65696 14.2515 54.3197
4.63797 13.8622 53.917
4.65674 14.1218 54.5189
4.61855 14.0324 54.8267
4.67071 13.8305 55.23
4.74558 14.3682 55.1378
4.70908 13.8118 54.0412
4.58397 13.7103 52.5646
4.50297 14.2702 55.2048
4.60557 13.9764 55.5702
4.60709 14.182 54.1177
4.57519 13.9341 55.7472
4.63431 14.0323 54.7549
4.66113 13.9795 53.9334
4.60742 13.8506 54.7173
4.67547 14.1844 55.9842
4.66854 14.0772 54.1111
4.5292 14.096 55.5099
4.74565 14.0462 55.0896
4.68963 13.9434 54.374
4.64127 14.0874 54.7944
4.66379 14.2155 55.2957
4.6275 13.8993 55.0541
4.63234 14.2264 54.724
4.59353 13.7443 54.0221
4.57446 13.7478 53.7342
4.48784 14.3834 55.995
4.69414 13.5811 53.2568
4.56065 13.7759 53.8037
4.51537 13.6552 54.06
4.52023 13.6776 53.5826
4.54517 13.9943 55.6782
4.63304 13.8063 53.5763
4.47442 13.9456 53.1963
4.45604 13.5441 53.757
4.51923 13.5737 54.9638
4.67532 13.8405 53.9136
4.4937 13.6398 54.3906
4.61378 13.9741 55.6367
4.70288 14.096 53.5267
4.39899 13.9697 55.2957
4.58078 13.5029 53.0428
4.35609 13.3721 51.9123
4.41538 13.5667 54.4521
4.46917 14.1291 55.1782
4.62607 13.6594 54.6447
4.53114 13.75 54.0408
4.48857 14.1236 55.2281
4.5475 14.0165 55.4684
4.61899 13.8113 53.9471
4.44031 13.5536 54.3248
4.49281 13.693 54.8453
4.56661 14.0193 54.8648
4.54906 13.6962 53.7507
4.45721 13.855 54.2983
4.56317 13.6891 53.2532
4.45024 13.612 55.6183
4.60931 13.7126 54.9944
4.56473 14.2279 55.6273
4.62844 14.3145 55.9461
4.51088 13.9734 55.8045
4.63917 14.179 55.1433
4.57646 13.624 53.2096
4.42074 13.1322 53.4021
4.4196 13.7669 55.1588
4.4915 13.9936 53.5481
4.40707 13.4999 54.2015
4.45862 13.7929 54.1333
4.46565 13.7546 54.6907
4.48847 13.6211 56.3329
4.59662 14.1414 53.6072
4.45602 13.4645 54.011
4.42711 13.8776 54.7975
4.46972 14.0647 54.8082
4.43864 13.3921 54.8041
4.49072 13.7133 54.5484
4.41785 13.6914 54.1547
4.45966 14.1174 55.2978
4.48029 13.7345 56.1558
4.63601 13.9179 54.3082
4.46211 13.8757 55.3696
4.54419 13.8932 54.3422
4.38897 13.9113 54.3937
4.37063 13.4199 53.3457
4.28779 13.8435 55.8778
4.49286 13.8345 56.4923
4.57554 14.1582 54.9236
4.46174 13.965 55.0915
4.53468 13.8771 54.8555
4.47215 13.5297 53.3797
4.32441 13.5842 54.8546
4.36308 13.6567 55.6063
4.54597 14.0513 54.0812
4.4821 13.527 53.5412
4.37935 13.5212 54.7116
4.49835 13.3931 52.8065
4.32579 13.5195 54.3928
4.44679 13.559 53.8017
4.48421 13.5245 54.5241
4.53761 13.5894 54.1603
4.46532 14.0082 54.4456
4.47441 13.6642 55.1225
4.46428 13.7346 54.4434
4.43724 13.8781 56.4123
4.57593 13.6823 54.7068
4.47638 13.8366 54.4698
4.43155 13.8458 54.9038
4.41859 13.7035 55.6203
4.54574 14.0048 55.3564
4.51365 13.7874 55.2394
4.51576 13.7678 55.5441
4.51889 13.8809 54.0348
4.37571 13.7703 55.4754
4.46518 13.5401 53.6756
4.35268 13.5449 54.945
4.49336 14.187 55.4873
4.51996 14.0222 55.9447
4.53439 14.0552 55.9983
4.46269 13.6599 55.5684
4.48985 13.6791 55.3981
4.48698 13.8218 53.7946
4.42024 13.8107 55.2146
4.49354 13.351 53.4331
4.31059 13.6635 54.2471
4.44821 13.5321 54.406
4.44434 13.7982 56.6111
4.54476 13.772 54.9635
4.42005 13.9045 55.4472
4.48952 13.92 56.5779
4.60401 14.2729 54.9572
4.38202 13.9205 55.4867
4.50546 13.5601 55.7865
4.54687 14.0071 54.6954
4.47836 13.7474 55.4296
4.39882 14.0176 54.6207
4.54785 13.9501 56.0633
4.55283 13.7649 55.1841
4.40833 13.6322 56.0657
4.49735 14.0701 55.468
4.42285 14.1033 56.7664
4.59617 13.5537 54.4186
4.47523 14.3683 57.1886
4.64872 14.0177 56.3574
4.53133 14.182 57.8817
4.55775 14.9469 59.072
4.72617 14.6973 57.5373
4.60577 14.8616 61.4463
4.86456 15.0464 61.8965
4.92958 16.5442 69.9414
5.43759 18.1081 73.3374
5.51878 18.6893 81.3826
6.18695 22.7235 92.264
6.76788 18.1698 54.9639
4.46007 0 0