# pn-170911/RbIIR-54-USNO-1280-1959.psd
# Power spectrum* (dif=0,1,2) (really just |FT|^2)
# NOTE: only the first half! (symmetric)
# weeks: 1280-1959
# 11 clock-days, 0 excluded
# PSD: 1441
2821.97 0.0746531 0.0298725
30836.8 0.346057 0.0218597
229112 4.99855 0.0232123
17548.6 0.575837 0.022928
34328.2 1.86644 0.0195776
5462.91 0.462435 0.0232761
3779.99 0.341328 0.0208581
2303.57 0.471059 0.0223404
3771.54 0.752812 0.0239583
1729.65 0.537508 0.0219571
1029.95 0.382382 0.0252034
1372.97 0.626419 0.0190546
914.156 0.553425 0.0219334
1144.3 0.831669 0.0242504
929.361 0.865268 0.0234994
527.599 0.514171 0.025054
477.188 0.639481 0.0253561
775.141 0.980169 0.0223997
853.006 1.13372 0.0258215
580.295 0.890019 0.0224489
369.173 0.586319 0.0254888
828.075 1.25316 0.0226495
302.545 0.579038 0.0214202
341.145 0.985173 0.0261487
383.041 1.04528 0.0235834
360.799 0.738499 0.0251233
236.307 0.780989 0.0230072
341.494 0.830044 0.0299585
287.297 0.970872 0.0288968
429.469 1.7265 0.0308523
317.053 1.2952 0.0268872
699.971 2.34383 0.0330667
570.775 2.47211 0.0432697
359.608 1.71873 0.0358906
269.04 1.21667 0.0391834
410.517 2.33933 0.0381377
393.045 1.99832 0.0342387
245.003 1.82889 0.0303368
459.13 2.5356 0.054975
362.284 2.65492 0.0474041
320.376 2.08013 0.0490448
385.187 2.9429 0.0435443
267.301 2.64302 0.0469004
397.048 3.254 0.0543412
512.473 4.90644 0.0799085
433.589 3.736 0.0663441
302.542 2.9095 0.0613929
357.929 3.7997 0.0532518
320.768 3.39146 0.0535666
321.237 3.46335 0.0667943
299.795 3.53105 0.0690256
306.654 3.65068 0.0873064
428.084 5.9591 0.119022
438.129 5.86832 0.102656
247.087 3.27726 0.0411836
310.506 4.69248 0.0783251
446.883 5.95302 0.125509
339.191 5.92923 0.133919
743.365 11.2724 0.237199
266.811 3.41089 0.0796744
214.435 3.4573 0.0444123
277.997 4.80894 0.136245
418.958 6.95234 0.125992
346.625 6.52318 0.16274
227.556 3.87705 0.131605
268.884 5.25067 0.117082
215.885 4.31304 0.13446
239.049 4.89132 0.11601
186.938 4.52247 0.127758
262.375 5.13936 0.174717
299.206 7.13213 0.191417
357.763 9.09895 0.245161
240.159 6.47254 0.189265
233.929 5.16008 0.173104
363.881 8.83033 0.258261
464.005 12.3929 0.323526
266.372 6.63404 0.247254
200.112 5.47826 0.182776
305.591 9.37416 0.297569
352.467 11.2368 0.390181
197.034 5.10351 0.207623
182.664 5.51994 0.200376
308.287 8.71884 0.305344
236.824 7.78204 0.253317
306.091 10.1234 0.31787
308.189 11.2599 0.420797
259.918 8.93024 0.308764
331.934 11.8221 0.442887
458.824 16.8565 0.644993
155.251 5.90013 0.282185
223.726 8.62749 0.35521
217.17 8.73269 0.413836
348.678 14.7263 0.643847
224.145 10.0363 0.507533
156.535 6.51235 0.242579
295.556 12.6437 0.578188
366.432 15.5819 0.62222
348.322 16.1167 0.673152
138.146 6.55646 0.318529
143.061 5.50875 0.291555
184.086 7.96898 0.319017
346.207 16.1587 0.776126
246.232 11.4209 0.561108
98.1609 5.09969 0.291396
80.7677 4.477 0.239983
375.775 18.5841 0.928616
148.767 9.54901 0.561378
191.102 10.0319 0.576939
139.906 7.54084 0.454935
149.111 7.97352 0.540705
153.091 9.73693 0.629238
348.034 19.868 1.07049
212.609 12.9681 0.798176
213.846 13.3579 0.802953
330.197 20.0661 1.17576
254.211 15.9392 1.01647
170.864 10.9749 0.659053
150.577 9.62534 0.664116
320.222 20.6241 1.26318
274.261 16.6329 1.07497
169.3 12.7189 0.860953
139.939 9.25935 0.607858
170.34 12.204 0.834617
274.777 21.2761 1.62664
175.271 11.8453 0.828251
191.025 12.9286 0.910172
209.445 15.5964 1.24056
279.476 22.909 1.74602
155.77 11.0834 0.899634
193.135 14.0978 1.04844
222.386 18.2866 1.62783
175.971 12.565 0.83329
222.168 19.5743 1.56239
164.87 13.0123 1.01763
278.929 24.3808 2.12442
171.597 15.4002 1.42074
238.919 20.3964 1.75814
99.1875 8.39958 0.739761
81.3234 8.11357 0.777502
208.263 18.3829 1.62183
259.754 24.1397 2.3959
131.896 13.2074 1.25629
146.509 13.3157 1.2736
151.891 14.7219 1.54134
165.905 17.0603 1.65548
223.366 22.4568 2.18826
197.884 20.0921 1.85924
184.04 19.5022 2.07466
143.834 13.8155 1.44581
210.959 22.2941 2.1592
130.821 14.8243 1.70096
191.313 21.6094 2.28488
100.235 11.8469 1.29911
129.471 13.1632 1.46036
162.353 17.4306 1.84715
224.228 26.9967 3.05497
225.024 28.3714 3.27239
219.333 23.3131 2.64062
229.74 28.2784 3.51091
105.73 14.7486 2.04731
115.852 12.8623 1.59719
208.783 26.057 3.35772
247.022 27.6586 3.32816
114.386 13.7883 1.64599
256.146 30.915 3.64248
188.046 24.9791 3.13226
115.616 15.7886 2.15469
214.556 29.064 3.8595
92.1529 12.0778 1.67526
100.642 14.601 2.162
151.346 18.4438 2.62475
186.362 25.2084 3.62445
144.022 19.561 2.68977
261.969 33.9817 4.71177
168.385 20.4193 2.67668
123.109 19.6622 2.90319
77.1238 12.7926 2.0127
122.377 17.8043 2.55598
146.499 20.6219 3.1438
195.374 26.5516 3.56669
147.312 24.435 3.92288
178.593 25.6926 3.77624
60.1687 8.59534 1.54854
247.17 39.4318 6.45981
162.856 26.1264 4.1922
160.867 24.5342 4.01635
191.205 31.0012 4.9715
110.571 19.7232 3.45049
97.2947 16.5568 2.62817
139.014 23.9553 4.42125
91.8341 17.1334 3.17186
144.322 21.7509 3.39167
145.852 26.5536 4.49503
189.096 34.4562 6.17583
78.6554 11.6177 1.93452
89.1878 17.7057 3.25663
141.661 26.3445 4.88072
157.152 25.4858 4.28968
84.6559 17.0071 3.39375
59.786 11.1994 2.37259
168.394 29.3375 5.36785
51.9318 10.3708 2.16445
226.149 40.1479 7.23956
154.118 31.6137 5.9767
172.551 34.4473 6.70598
124.068 25.2364 5.10393
140.094 27.4508 5.12426
81.8687 17.5234 3.81104
159.455 32.8278 6.65683
148.565 28.6199 5.65294
171.983 39.8861 8.52368
128.19 25.0264 5.21812
55.825 10.5723 2.19676
114.618 24.2645 5.16651
74.3135 15.1111 3.25643
78.2006 15.9706 3.30289
52.4375 11.6244 2.74786
83.9143 16.6173 3.47194
82.5599 17.4038 3.76577
83.167 20.1303 5.23679
125.466 26.152 5.54674
142.463 32.5122 7.56916
96.166 21.4767 4.62132
153.291 36.4072 8.69777
101.307 22.418 5.29895
87.6429 19.6535 4.66247
190.919 40.9682 8.95261
95.6515 24.7977 6.65348
148.27 34.6534 7.7776
101.144 25.9684 6.53568
162.735 40.8247 10.2662
108.499 25.0668 5.84735
126.264 31.8191 7.83229
90.4581 22.7706 5.71869
63.643 18.0917 5.04041
117.357 26.0347 6.13497
81.2075 19.7767 5.209
75.779 19.7715 5.42482
87.1817 20.6889 5.50294
114.908 27.4192 6.96718
111.972 30.8208 8.40026
79.1333 21.7146 5.97379
115.218 34.2507 10.3123
131.081 34.7196 9.54312
72.0466 18.636 4.93793
80.7465 23.0393 6.88711
118.308 31.7285 8.94244
128.224 31.8382 7.83364
87.5716 24.1623 6.99002
134.055 38.1135 10.4321
112.01 32.0662 9.14547
55.4625 17.2287 5.43876
160.356 50.1568 15.6593
200.667 57.9931 16.7555
87.6771 22.9022 6.34261
51.2185 14.9637 4.4011
81.0826 26.4506 7.85575
43.3306 14.4462 5.19717
112.843 29.2595 7.51776
101.525 32.9956 10.5423
81.3641 27.8009 8.72603
136.288 44.183 14.1633
54.65 19.1355 7.20194
103.854 34.1613 10.2486
63.6248 21.296 6.96094
71.0854 22.3353 6.96224
48.2149 16.9106 5.94755
74.0119 25.2263 9.1223
109.921 35.5854 10.8996
94.9516 33.5126 11.6611
71.728 22.8174 7.33006
91.6712 33.992 11.7493
69.1212 25.9079 9.55011
83.2542 23.6655 7.75184
87.0217 28.8146 9.73209
40.5535 15.4284 5.56263
67.6736 27.2266 10.379
75.039 23.5603 8.38644
100.263 29.4845 9.179
89.6456 31.6675 11.102
60.068 21.4315 7.78979
101.19 34.8749 11.6061
43.8844 16.0368 5.96987
69.2086 25.1788 9.2067
72.418 26.8485 10.206
63.9143 26.5854 10.8478
69.3107 27.2172 10.3224
44.5562 18.0539 7.67427
108.609 39.8628 13.9604
57.4219 23.4657 10.1586
114.735 41.0404 14.1686
60.582 22.9274 8.68354
61.717 30.5405 14.5852
106.189 37.421 14.4472
87.4251 32.668 12.8006
118.41 43.3661 16.6454
48.6665 21.2402 9.52807
57.7978 23.3255 9.42157
71.1595 29.2152 11.5828
69.3726 31.12 13.8284
53.8305 25.3273 12.6498
52.2991 17.4526 7.1155
152.02 61.108 23.5916
56.4185 24.1934 10.95
51.6616 21.411 9.07749
54.1875 22.8164 9.51163
97.9855 39.2247 16.2636
62.1591 27.3266 12.1799
73.9785 29.0393 11.1087
56.9072 26.4436 11.7626
44.8936 20.1776 9.37568
64.7614 30.1645 13.6447
81.2544 32.0922 12.6301
65.4341 27.1774 10.9044
36.4692 19.6747 10.0878
46.5327 20.8685 9.59098
51.4445 24.0462 10.7944
32.9475 18.2335 10.4339
49.6451 19.1549 8.77548
53.0257 22.1864 9.56481
61.9459 27.7632 11.6104
52.1216 26.3161 13.3686
59.6959 25.1955 11.5467
109.643 56.4087 28.0377
33.1592 15.0997 7.51508
68.5762 33.5089 15.0208
67.2628 32.3086 15.3764
38.5674 19.7139 11.1909
54.2218 24.837 11.2561
49.9085 26.1455 12.5939
21.1012 11.5465 7.23457
48.5812 22.263 9.99737
64.9022 35.3485 17.2739
49.3826 26.0099 13.6824
43.9161 27.4785 17.5983
75.0286 32.0615 15.139
39.7046 18.5095 10.2204
54.5669 27.5927 13.986
49.6598 24.1079 12.1981
64.5097 33.6809 15.7636
46.2998 27.7235 16.2685
43.868 25.9177 15.5953
80.5555 40.7539 21.012
41.7149 17.0112 7.33531
49.5464 31.4402 18.4277
60.8285 28.6413 12.5421
26.2248 17.1066 10.4591
39.2886 25.8464 17.1454
76.2358 38.1528 18.1799
72.6761 41.6342 22.3743
61.6512 31.6688 17.3958
34.1346 19.3753 11.5051
32.3474 15.4093 7.5291
39.8917 28.2997 17.9682
47.483 22.467 11.1751
58.0834 32.3337 16.8291
33.2514 23.4375 15.3596
39.144 23.5783 15.8577
57.5821 27.5017 12.2874
40.8559 24.5908 15.4771
46.6272 26.2834 13.6956
16.6304 14.3823 12.433
82.6798 44.4745 24.5648
38.4323 19.6843 11.0556
53.5497 31.8195 18.396
47.7342 35.1483 23.5506
51.056 26.3714 14.342
28.7212 14.6153 8.31373
41.3992 23.5112 12.791
42.7619 31.4827 22.5574
51.6622 28.2403 17.1989
57.252 34.3241 19.8207
36.0558 23.3149 14.932
42.963 28.1305 18.1013
19.176 10.8643 8.86437
36.9291 18.737 10.5893
33.9134 21.7225 12.9563
38.51 21.9176 12.9416
68.8375 49.9885 32.7644
49.7229 29.2564 18.4702
35.7487 22.5041 16.8942
79.0022 47.5479 29.9625
55.1762 35.7346 23.1281
58.3962 41.5618 27.9058
37.8207 23.7223 17.7431
53.3414 34.0403 23.4994
59.8598 38.9509 23.9249
37.1125 22.3476 13.3351
31.7704 20.6865 11.6446
33.0102 29.5778 23.6931
35.3048 23.9301 17.693
36.3023 26.031 19.0711
71.0159 44.8008 27.0795
53.6662 38.7355 28.0783
21.6641 15.614 11.4745
30.5942 22.0009 15.8544
20.2771 11.7267 7.68983
33.9442 27.5797 21.1205
29.7696 18.6484 13.3679
61.7063 44.6487 29.67
30.5845 22.9726 16.1773
43.4218 34.2296 25.6514
43.724 27.3195 18.1516
47.9868 30.8478 19.9472
29.2172 20.8742 15.1718
43.5312 32.3507 21.7568
37.4456 33.1136 27.2864
31.8746 19.2127 13.2564
54.8853 40.6731 30.1416
31.9984 24.0438 19.8727
47.5014 35.3379 27.0351
55.9292 44.2219 37.7487
52.8817 32.1574 21.4178
45.6879 35.0396 27.2892
36.0497 26.4528 21.312
45.9879 30.4799 22.199
35.0927 23.7823 16.6378
47.9309 42.1139 34.4878
39.9751 27.9715 22.4469
28.4987 19.3277 14.9802
32.4541 22.5816 15.0273
45.6316 36.9555 28.735
26.2105 18.8287 15.5024
34.7525 22.7249 14.1024
46.23 42.0693 34.9856
26.6936 21.4995 16.5165
34.0894 31.4313 26.2486
33.4247 27.2011 23.4846
20.3352 15.081 13.0325
51.8966 42.8896 36.7198
31.1279 25.3742 22.8088
58.0077 38.397 23.9492
18.5016 16.9609 13.3768
28.378 31.2959 28.9596
25.4905 19.4514 16.8985
26.4649 21.6888 19.0173
23.6672 19.5501 16.482
24.3529 21.1856 20.6317
45.4961 37.1782 30.1204
22.3879 17.0169 14.6907
42.5084 33.6367 25.7613
31.3112 29.7622 28.6437
31.0924 25.9126 18.2957
19.3334 26.6272 30.2345
33.0032 25.4967 21.7075
15.2768 14.9729 17.0981
50.4786 38.5168 27.3535
11.774 11.1336 13.5035
38.177 31.5935 24.1317
18.1558 18.5464 20.5189
27.7144 21.612 18.1218
25.2579 23.8045 22.8927
41.7755 39.586 37.5561
31.2466 28.0268 28.0725
41.8598 27.7233 17.2944
24.8653 21.8089 19.2722
49.9683 46.5118 39.5064
34.7688 34.7566 33.3693
29.0009 29.9172 30.2987
25.6123 21.8524 20.6028
23.8662 21.5527 18.579
24.7596 24.7717 22.0569
25.7612 21.5552 17.5546
23.0536 21.0701 18.5394
26.6756 29.3249 28.1264
33.3977 31.3573 29.0701
15.3185 14.3466 14.4207
24.1053 26.8416 29.9499
49.4712 43.9123 40.7493
41.5453 36.3689 30.8029
32.6863 35.103 34.863
36.5308 40.2535 43.1434
29.6575 20.7961 14.6563
24.1786 25.7537 24.5692
14.5852 15.7375 16.2566
16.7331 18.4634 20.544
30.3438 29.2253 28.9422
23.6046 24.7832 25.9528
28.6368 29.6875 29.7616
31.8462 30.9177 31.3072
61.3902 62.923 53.0887
20.606 33.5358 49.1207
52.8284 42.5824 34.6701
31.3799 32.8398 34.1319
34.3965 34.1307 31.6062
29.5841 27.9291 23.7825
23.2081 27.6906 28.6614
16.3422 18.9198 22.7396
38.6065 44.6198 49.3758
16.6377 12.1613 15.6682
28.7443 27.5484 25.6841
24.2535 21.8534 19.0557
14.8249 18.6414 22.3939
29.9457 27.8078 27.1755
19.148 16.7773 16.719
25.8197 28.8159 27.5718
17.843 21.2748 22.5669
12.3966 17.4206 22.2365
22.9233 24.2053 27.2081
12.7758 13.141 16.0673
9.92969 15.3989 25.0995
29.5639 22.1473 17.3589
19.5697 26.4608 36.31
23.9047 20.8624 22.3052
26.2646 23.9758 21.7537
19.2704 20.1505 17.8031
11.1013 12.2036 13.4011
22.9599 33.8185 44.039
24.3429 20.0996 19.6452
27.7841 35.709 43.1855
23.1587 25.9468 29.7409
28.7247 25.1137 20.8571
14.7662 19.9753 27.3192
20.1212 19.4406 21.7273
20.6634 25.2006 30.6113
27.6304 30.0422 32.2352
23.2079 23.6157 25.9752
27.972 32.2238 33.4047
16.1203 21.4156 31.828
37.597 48.4005 56.1716
38.3454 39.0084 38.9459
23.2195 25.4877 28.2688
17.2219 18.4198 22.5238
23.6245 28.7482 29.1366
23.6151 25.4981 26.0931
21.9514 30.145 34.8483
14.2247 20.1922 28.3957
19.5075 22.0469 26.2347
25.6219 33.7229 43.5624
20.9991 23.8042 26.7164
20.1663 22.1363 25.9643
8.29857 8.54065 14.4077
24.3945 26.1862 30.1517
21.7109 27.5408 33.4213
15.3936 21.3466 32.3832
23.9232 25.1994 30.0273
30.1695 35.1093 40.5886
15.4385 14.9483 17.8445
21.3768 25.0683 30.9137
23.0798 26.0782 29.6788
20.9173 26.7201 33.5184
26.6341 34.8863 47.8977
28.0443 27.7583 24.3433
20.7528 39.9234 62.5828
34.9864 34.9441 36.1082
22.2798 25.7799 32.2913
21.4985 24.4191 27.2751
18.5236 24.1178 28.5395
19.789 29.5702 40.5304
22.0742 19.5116 18.7286
19.8863 25.0152 28.2745
22.6071 37.878 52.5113
18.458 25.6526 43.8276
32.7769 32.0964 27.9635
12.2394 20.0272 31.792
20.7122 27.0856 35.0885
12.7921 16.444 22.94
18.5944 26.9589 40.3518
22.7853 25.996 32.563
20.2341 27.0031 39.9945
20.0202 18.5619 16.2792
13.4499 19.1397 26.2235
16.7509 15.7236 16.179
18.1681 26.5683 33.418
13.6715 20.4409 34.1099
28.0048 39.6864 53.2852
33.2223 45.4903 59.2964
25.3229 30.7289 35.4415
15.0842 26.098 42.1597
22.3697 31.3646 47.2325
18.8151 23.2706 33.2074
21.9794 29.9785 40.0194
30.9872 41.2668 54.0271
19.6945 26.7678 37.203
14.4564 14.2462 17.5746
13.9033 18.199 29.6952
31.8114 42.3063 49.5127
17.584 28.2461 43.2683
12.0982 15.9882 28.5968
23.262 29.6409 39.2203
16.726 25.6652 41.5794
27.6931 34.5123 44.6356
20.306 25.2378 32.2617
19.792 25.9808 34.1186
23.1566 34.8899 45.0117
17.9126 24.3202 27.0515
7.80018 18.1524 34.3171
13.9613 15.0513 22.8696
20.6414 28.2536 31.817
18.1585 34.3492 55.2336
18.4597 18.0838 18.6953
11.9238 22.057 30.9402
13.5597 25.6118 48.1614
25.1693 33.1721 44.7025
12.2652 15.1811 22.0094
17.2724 27.7392 38.1653
14.1895 24.8308 44.2934
11.1571 10.9686 18.421
17.7339 23.7897 29.4585
12.158 20.4635 32.1355
11.6826 15.3484 23.9745
20.3616 26.3013 26.414
9.56192 22.9375 43.1425
13.17 17.8844 27.7279
13.3525 16.396 25.2199
15.8664 30.2181 52.2519
16.2055 19.8656 29.8339
17.8454 21.6972 27.7922
18.7883 29.9502 39.4135
18.136 30.8312 48.8147
15.1899 22.4061 44.5925
25.0701 31.4265 31.4081
13.0897 25.518 39.4332
11.4013 21.9477 42.9112
25.3636 43.8038 68.4804
9.19432 12.6719 37.8637
21.924 22.2919 27.8966
22.4789 32.6482 45.9533
20.9442 30.8179 46.9392
26.5878 36.6254 39.169
12.0938 24.5141 45.2283
17.7829 28.9392 43.7268
7.48716 13.5803 32.8178
21.5724 28.3352 36.9495
11.4961 20.164 38.2184
19.8606 27.9795 35.4463
20.8286 41.5736 71.8693
17.882 28.5197 52.0436
15.7339 20.1462 32.2448
15.3216 18.7824 26.746
14.9204 26.219 47.336
19.5539 27.7363 41.4213
18.6243 30.4635 45.0782
18.1512 28.9191 47.8543
21.518 37.2633 59.4742
16.2299 27.8976 57.9948
25.7121 36.1219 48.3907
14.2781 25.99 46.3207
11.9694 14.4073 24.2171
14.6613 24.382 41.6311
13.3134 18.778 23.9207
10.0489 20.5488 33.2146
9.71608 19.9619 35.5167
10.341 22.4194 50.1942
17.7993 29.1575 55.8201
17.4567 22.2994 33.17
21.7 31.9962 39.4894
7.30046 15.3925 36.813
25.2392 37.9319 47.0128
14.4667 33.0039 65.8451
14.2839 13.9452 18.9998
13.8913 26.3543 38.1675
6.83886 14.5067 30.047
15.367 24.6033 34.4258
6.49644 16.1695 40.6855
15.7245 18.5622 30.0099
18.4527 33.1658 50.6472
12.4843 22.6761 41.4408
11.4888 21.272 40.2934
11.4669 16.741 23.617
8.41149 21.252 51.2343
19.1898 29.6818 51.3825
15.6585 25.9445 53.0559
21.4202 35.0145 57.5258
19.032 29.3668 46.4688
16.202 26.9459 46.9947
16.2945 22.0911 34.2072
11.3894 19.3081 36.7244
17.7716 28.1157 37.6601
11.8639 22.6836 32.7607
9.32652 17.7845 33.0609
11.4905 23.6108 52.316
25.3323 45.1047 66.0793
9.20865 17.409 41.3741
12.226 19.7362 33.5069
8.53084 14.4963 29.6915
15.6034 26.997 33.1091
6.4253 19.4903 46.396
16.9814 27.7275 40.8364
9.08292 21.5179 49.2322
11.1456 22.7507 49.8419
10.7064 12.2984 22.859
10.6236 17.5156 31.4682
16.7843 36.0591 65.6762
17.195 29.0032 50.1525
10.1791 17.6927 36.9497
16.2077 36.7913 66.3037
10.7728 19.0254 47.3575
16.4347 20.6377 25.1291
10.4712 24.4671 53.0383
14.0417 22.2887 38.471
13.4147 23.1194 38.8583
13.2906 21.5394 36.8799
11.6445 26.0598 54.0474
10.5229 16.0453 32.8497
15.604 32.4853 65.934
14.8711 22.3721 39.8934
14.2426 18.9017 28.3526
12.8423 27.9094 48.5576
8.8696 13.549 24.3971
9.50085 18.6801 28.375
10.5334 26.0571 49.0985
7.17954 14.5473 33.1968
8.06862 16.4276 35.1949
8.57286 16.7581 37.6204
15.57 28.0249 50.0574
12.7051 26.9736 60.1531
17.5506 30.2521 45.0362
10.3146 25.6256 55.0381
9.95557 19.316 50.199
16.7189 28.1191 46.3468
10.8281 21.9727 45.7287
11.8957 22.3559 44.3153
15.3585 32.1259 56.4097
8.00842 11.1886 21.5794
8.37634 19.1019 42.5428
9.57067 14.6107 29.3989
14.9968 31.5832 51.4139
6.0091 11.2612 22.1561
5.60863 13.4666 33.1703
7.31116 11.9834 24.1519
9.27668 20.8176 37.4662
6.64772 14.0405 36.0516
12.809 27.4633 52.6869
9.81281 18.2305 36.7266
10.1687 19.8736 38.841
12.4228 25.7266 44.6339
8.41648 17.3796 33.0219
11.5168 29.9411 70.2047
10.6745 17.9455 33.5212
6.18145 18.0684 54.3032
11.343 15.8323 32.334
10.3966 18.1574 30.3285
11.5702 23.6125 45.2443
6.90145 17.8756 47.2752
11.2355 16.2095 29.4018
9.35274 13.8468 21.6971
9.15194 21.9306 44.1624
8.63134 11.9243 16.189
12.3707 37.578 83.3955
9.36542 13.4394 28.7978
8.165 17.5896 33.1913
6.23969 13.2744 29.2743
7.25442 16.826 46.6307
14.7155 27.0953 45.7796
10.6429 18.7004 26.8674
9.35398 31.2713 80.9357
14.9136 28.951 56.1176
8.5953 14.3546 34.0159
8.87885 21.9245 56.2121
11.3275 19.7972 39.0764
8.62971 18.78 44.3413
13.7196 31.9468 67.3048
8.75494 14.0457 25.6798
7.6924 14.598 28.5648
7.40152 16.5159 36.6236
8.99032 19.0316 38.6002
10.7375 24.3964 46.6203
10.4648 32.7904 71.1982
8.80861 16.4198 39.0481
5.60864 9.59011 24.1878
5.50136 10.0077 23.2597
6.0622 15.1287 43.0118
9.45627 14.0077 24.7657
8.02781 18.6623 36.4063
7.69788 19.9484 49.3113
9.38558 20.7877 46.1524
7.56935 18.0828 60.9125
16.4086 28.2816 47.3381
10.2294 26.1495 52.0853
6.68022 14.9281 46.9031
10.9404 25.5574 56.3092
9.62553 20.7674 58.2495
12.5303 22.4795 49.4067
13.5592 27.8667 51.1011
7.83132 15.5426 39.6625
11.4715 26.39 59.7649
12.3515 20.9197 35.3258
7.47581 20.2611 41.69
6.7501 13.836 28.9822
6.71881 17.0295 38.7406
7.15921 15.8985 29.0739
4.05704 13.551 47.2784
10.4709 21.5926 45.9218
11.0011 23.789 59.0048
10.4631 19.5666 42.4058
9.4751 18.2226 34.0166
7.26179 19.3174 44.9593
8.21214 20.5375 62.7588
16.2671 31.7728 55.8295
6.26057 14.2149 35.1873
7.96573 18.592 47.1394
8.26358 18.0934 37.7965
8.70428 16.3792 24.2969
4.22309 13.0988 36.4934
10.3675 27.0029 57.0145
7.92591 18.5038 42.7551
4.94794 10.0492 33.9747
9.11345 19.1062 36.5419
6.42779 14.3148 34.7786
7.28126 18.8466 41.0659
7.2924 17.6682 39.0924
8.30258 21.9864 50.0816
4.87437 10.6326 36.8547
9.9111 24.7874 59.9554
10.5457 24.7741 54.1629
7.3678 20.5724 59.359
7.75966 13.9462 31.2187
8.9581 21.2194 53.1328
10.3687 23.3022 45.8067
6.66969 14.9085 43.8447
9.23275 20.006 38.0199
4.30791 10.3422 27.3698
4.06534 12.6784 46.3761
12.263 26.904 53.7004
10.5371 24.8611 41.0365
5.93089 21.607 69.0084
12.6225 26.9108 52.6275
7.57514 18.6012 46.3837
7.73842 21.1525 49.6656
7.55748 19.7032 50.4984
10.0872 26.3855 70.9542
8.61726 16.4266 43.3974
8.55179 22.028 58.0306
6.17526 8.45404 26.3023
7.27784 17.427 47.1812
9.92367 23.9377 61.8841
8.64472 16.3564 56.8226
12.9255 20.3823 38.7632
10.1008 22.2028 35.6612
5.47401 13.2656 23.1615
3.73879 11.9427 41.1167
8.3258 17.4935 35.7612
7.03016 19.4348 42.2664
7.89629 20.9597 47.0064
8.35205 23.3859 47.9062
5.90474 17.7876 49.0633
4.87759 8.18589 23.6979
5.58526 13.7715 22.2091
3.64535 13.8821 40.0498
6.37958 17.7959 43.1743
7.04739 20.3207 54.3432
6.628 15.9213 54.1175
11.1237 23.9588 48.008
7.03492 14.2085 25.5962
3.03395 9.54254 30.8417
8.10179 27.4439 67.2861
9.1704 19.4476 42.2658
4.5275 11.0125 25.4041
3.10819 8.33948 28.653
5.66236 13.1357 31.5609
6.755 19.343 43.741
6.51976 19.0379 52.4642
6.94697 18.4091 46.7572
5.88472 13.2431 32.3948
6.85173 23.3395 66.7347
6.22597 10.9936 28.2176
4.87331 14.0784 31.1304
3.9623 14.923 53.5847
8.44161 19.6533 51.3174
6.9682 15.9857 40.7826
4.64472 10.0703 36.0841
6.13058 10.4633 30.1623
9.7513 34.2586 90.3164
10.2433 25.4789 73.172
11.4917 25.0664 67.75
8.86024 19.9678 56.9379
8.18546 17.7304 41.4738
8.13962 19.7401 40.5525
6.6833 20.4689 44.8871
4.78706 15.1758 42.7549
6.62366 18.7567 56.2352
7.22118 18.4065 41.1872
4.6651 14.7303 50.3655
6.0909 11.6069 34.5553
7.08514 14.9328 31.5888
4.29475 11.1035 31.4288
5.5858 13.4289 35.3755
7.62827 22.0523 51.8549
6.14092 12.3198 22.5126
3.25575 10.7672 32.9068
7.32027 25.5101 69.2565
5.9556 12.9572 46.8219
8.51386 22.8296 51.0208
6.66596 15.9493 47.1755
6.61262 18.7066 44.5198
5.42706 15.7706 49.9655
5.74485 8.82047 20.1908
5.32689 18.6181 34.1173
2.48179 8.45 37.4412
6.05015 20.685 50.3463
4.44357 11.5373 33.8738
5.14344 18.2737 51.9734
4.72839 14.3548 54.3624
6.00904 15.4297 54.9023
8.08058 13.6689 25.0658
4.57462 15.396 50.7478
5.27441 10.7489 27.6621
4.71372 15.2024 64.3691
11.5281 25.8836 53.0975
5.7842 13.6772 33.5196
5.30861 15.2862 29.8979
2.69129 10.6783 42.5406
5.773 10.2851 40.7457
9.33738 24.4263 53.5818
8.06723 24.2252 50.0887
7.38384 28.3504 79.9946
6.09646 12.2817 34.591
5.7008 17.8953 38.5642
3.29938 14.1728 56.924
7.29165 17.3837 54.3212
7.9949 22.0731 60.3919
5.84974 10.033 29.6048
5.47343 18.1686 52.3547
7.11398 18.8311 57.3507
6.51961 11.2536 25.1844
4.96005 16.194 44.8569
5.16006 12.0522 25.7345
5.59357 20.8946 49.2948
4.24282 17.8899 66.3391
8.2975 19.4484 46.8066
5.21531 11.7563 31.9017
4.33715 11.9299 25.664
3.29627 14.3037 49.2161
4.78675 10.6555 25.881
2.6733 5.67816 18.4904
3.26229 12.9886 51.6832
5.89201 11.4267 21.8033
2.90623 11.7767 49.2349
6.74683 15.9325 36.0297
4.41304 15.7087 63.0382
9.44009 31.613 68.4568
4.60368 10.1251 31.9818
4.28147 11.3814 36.6143
5.36703 15.6526 40.1963
4.17637 15.0183 53.7137
4.94261 10.2836 34.6986
5.85178 18.9802 50.1633
5.62626 18.2495 58.8633
6.16298 21.8016 82.8694
9.23614 18.4895 43.7191
5.50626 15.7198 44.8237
6.27837 20.299 51.2815
4.84664 10.4281 23.1207
3.22637 15.6119 53.0434
5.23782 9.37785 21.6238
3.88575 14.5956 36.6092
3.82087 12.9281 52.8135
7.05274 19.0568 43.3751
3.2618 11.4701 42.2881
4.26725 12.8374 46.135
6.75276 17.6491 51.4445
5.80116 14.5661 43.9416
5.22074 12.0723 26.9132
3.04475 10.116 33.0451
5.20916 15.6729 38.7202
4.23985 11.3581 30.4774
3.86343 16.0361 49.2369
4.69091 9.89964 34.6468
5.37918 15.8358 38.4397
3.38916 11.6372 61.8126
8.78235 23.0011 50.8176
4.60664 15.9278 53.6789
6.21192 12.1366 25.0549
3.6488 18.0971 58.3302
5.84772 14.6609 45.6598
4.67017 11.465 42.2698
6.50261 17.6632 35.7449
4.20643 12.4794 43.3069
7.05874 29.2722 81.9028
7.86082 22.5058 60.4494
4.47655 13.5768 48.0815
4.33728 11.8541 61.2472
8.16586 21.8108 62.1793
7.229 17.3391 35.6971
3.0238 10.936 37.2984
4.78173 17.5858 57.8631
6.31121 13.8994 39.6342
5.26549 13.1168 30.7419
2.88638 8.94362 33.7335
4.15203 11.0496 19.5143
1.39334 6.71274 33.0191
3.40419 9.92257 26.8558
2.6852 9.41185 31.365
2.96277 9.63907 48.5456
6.35105 14.9778 45.7011
6.08392 17.08 41.826
3.53617 12.9047 38.5965
2.71255 5.67965 31.0906
3.90366 8.95741 20.1202
3.13952 10.8971 29.0114
3.79047 11.3014 25.8038
3.44345 15.5252 48.5851
3.94716 10.3544 36.0816
4.07117 14.0899 41.0491
3.43462 10.1716 35.4559
4.67863 12.9624 28.8639
2.2958 6.2714 19.8111
3.50489 15.4579 41.2382
3.02521 9.24245 32.2928
3.53288 11.1467 37.7539
4.16137 13.7624 36.4795
3.5528 14.1043 47.0926
4.38192 9.73073 31.9696
4.08212 11.8515 34.1821
2.85736 7.35829 22.225
2.36016 10.0545 36.6015
4.31098 11.5939 24.6229
2.77878 14.9884 58.7293
6.02589 19.1133 65.4784
6.31727 20.3736 49.8337
4.22178 16.0016 61.5023
4.51325 10.4473 41.4357
4.85864 18.7932 58.4796
4.44239 6.8832 20.2183
2.65521 10.8474 40.2519
4.63282 17.2834 58.3743
4.66017 11.4799 46.8505
5.97203 15.2689 24.9141
2.41659 11.4548 43.1887
3.28499 9.56025 40.979
4.44134 14.0786 64.4487
7.55732 23.6729 56.6215
4.8044 13.8414 45.3948
4.59012 15.1263 49.0835
4.7884 12.7625 42.6779
5.43282 26.9295 67.1983
3.3669 8.40458 42.8304
4.60522 17.3304 54.5731
4.65667 13.6453 50.1499
4.83593 12.1584 46.0909
5.4037 17.6693 29.3816
1.60275 10.494 53.1969
5.73269 18.4929 69.6223
5.86423 15.6601 52.753
4.9233 15.494 68.7749
7.10459 16.2195 45.3634
5.10303 18.6135 57.9457
4.86951 11.2911 29.0838
4.41879 17.1587 59.3529
5.4265 13.8679 31.1544
4.14605 19.2288 42.517
2.27829 10.02 41.4548
3.79381 11.4044 33.0323
3.24604 14.7645 60.6273
5.06419 16.7453 56.3779
4.21541 8.44484 37.7185
4.84986 17.4497 60.7013
5.72902 12.7304 28.2858
2.43963 11.9156 52.7169
5.5737 13.1895 22.6166
2.37095 14.6655 57.8669
4.30614 9.54578 33.7011
3.35706 10.8105 49.7579
5.37319 14.414 35.5799
3.24024 15.728 61.9948
5.17593 18.0938 63.6655
6.06451 14.0652 37.4374
4.28029 18.6487 72.6537
6.24194 17.8803 38.7627
3.85314 16.0672 64.6785
6.86826 26.2735 79.1694
6.14422 20.4605 58.1351
3.51778 7.96332 24.641
2.76515 9.63551 36.2463
2.68981 9.90149 38.7985
4.03214 10.9541 24.5638
2.04299 9.87111 40.3224
3.7074 13.9886 44.8021
3.48545 7.25519 31.0165
3.32439 14.7488 55.1409
4.86964 11.8135 55.3985
5.29346 12.8468 36.3597
3.58697 9.74693 25.8861
3.13217 13.166 51.0627
4.51511 18.6784 66.9601
5.72859 16.1882 56.308
4.82132 11.7175 49.446
5.53489 18.0653 51.8544
4.03844 11.8558 33.2647
3.34988 16.4882 51.7045
5.1785 13.2941 27.5441
1.7014 10.3773 41.1793
2.78282 6.91814 35.697
3.43861 12.7732 52.9939
4.84879 14.642 30.1375
1.77967 5.44725 28.3544
3.65757 14.1812 49.813
4.11849 12.089 45.6663
3.83086 11.8777 30.3472
2.54327 13.1317 51.2636
4.3786 16.3304 56.8647
4.00242 9.52212 34.8769
3.2204 11.9032 58.2256
5.43098 14.3951 37.2169
2.73462 6.41188 17.8059
1.79368 8.3818 44.6923
3.77905 12.7093 66.286
7.33065 22.1601 45.1629
3.47506 12.6523 44.6067
3.22762 7.74234 36.6686
4.56661 17.4559 52.0217
5.25346 20.1912 47.0951
3.03722 8.9615 30.4341
2.4502 10.0775 36.4313
3.13138 8.57542 25.5989
2.98542 17.5406 59.7979
3.36204 9.83183 33.0579
2.07685 7.88466 46.2087
3.91589 12.0454 36.5054
2.77459 8.95788 47.8256
4.57152 11.5582 37.1031
3.70797 13.7369 40.6111
3.44855 12.0718 37.3063
2.86683 9.56595 47.8591
3.51045 10.6404 43.0047
3.49811 7.79083 22.5385
1.55098 4.76637 31.0741
3.53115 11.9812 36.1098
3.57884 11.617 33.79
2.61178 10.5668 40.8617
2.88516 8.63675 29.4066
2.31643 9.04766 43.8464
4.00865 12.4931 46.2877
4.26544 11.2196 31.8661
3.10956 14.0354 47.4152
3.71638 13.294 37.1503
2.91261 11.0805 40.3293
3.27911 7.9556 34.2776
3.12202 13.7756 65.8693
5.16997 10.4511 21.0069
2.239 9.85733 54.6982
5.06525 16.5456 51.2243
4.66762 18.8709 51.7268
3.34149 8.44871 39.7445
3.50892 11.2575 45.7892
4.3187 12.1411 21.5076
1.76674 10.4485 40.128
2.83861 13.9232 56.3194
3.70448 11.2897 48.4251
3.926 12.5149 46.285
3.94927 13.2252 37.126
2.69033 12.1157 49.957
4.0588 13.9888 45.1869
3.10483 10.8913 38.5181
2.83953 8.00287 31.7766
3.13038 11.4712 36.5615
2.97403 8.88568 33.651
2.91583 8.74646 25.65
1.8791 9.34026 41.1426
3.45668 10.801 47.3885
3.94666 21.778 73.5691
5.03362 17.5906 61.5259
4.17267 13.2236 48.4997
3.33934 12.1284 67.189
5.02162 11.9603 31.0723
2.89328 13.1113 48.6122
3.77779 12.8544 42.8019
3.49932 11.2114 30.2106
1.91418 7.72362 32.0131
2.92223 6.61479 14.5435
1.30241 8.03051 60.873
5.65771 15.2616 26.7217
1.77595 11.1651 46.0158
3.82568 9.79751 45.8152
4.38345 21.3124 56.8806
3.62705 12.9897 47.6954
3.63606 9.22276 31.5327
2.93969 9.30081 30.6215
2.81306 12.8615 40.2399
3.17556 17.61 76.752
4.88653 10.551 44.2427
5.12118 25.2417 63.1592
3.89875 18.5669 62.5103
3.79387 9.0902 48.2454
3.78833 11.8232 31.9723
1.95235 14.8689 57.4504
3.5185 6.54872 33.657
3.42981 15.9747 33.6262
1.83263 5.17863 27.1531
1.91777 8.45413 29.2092
2.84871 13.6863 48.7421
3.36023 12.0002 55.516
3.85716 13.1645 46.9201
3.26265 13.0383 48.133
3.2166 7.08184 20.9192
1.45638 8.69835 47.0881
2.9807 7.32938 28.5995
2.25362 9.61654 61.7494
5.10259 13.2549 34.2011
2.45009 9.84663 33.3425
2.45979 11.4125 35.7963
2.61689 16.2985 80.2799
6.24064 18.7964 36.5008
2.33961 13.7352 63.7414
4.18964 9.29615 30.7241
2.54091 10.1812 48.326
3.77849 14.0276 35.4327
2.34063 7.50537 40.7249
2.99085 12.9502 32.3445
2.00598 5.99418 30.5488
2.64673 10.043 34.0639
3.1462 14.6393 42.6578
2.72675 10.0219 48.1672
3.44952 11.8951 56.5794
4.14693 9.95744 30.6798
2.5393 11.5564 36.5809
2.82828 9.67889 47.5059
3.7333 13.6327 37.6357
2.27338 8.93291 41.8011
2.9216 5.31024 15.9601
1.33008 7.96566 42.6986
3.53221 15.266 53.9882
3.99498 14.1944 54.5409
3.71566 11.9474 42.1349
2.99929 8.75667 33.3882
2.87172 15.6099 47.1811
2.89037 6.58721 20.0025
1.53567 9.43845 34.2132
2.39537 9.19 41.3751
2.62449 7.87316 30.5849
2.23145 6.96829 17.5908
1.54931 11.9419 49.1833
3.4914 9.98383 33.9766
2.2467 7.24236 27.5724
2.32739 10.1935 31.2265
1.99568 5.20919 19.5464
1.46523 9.85719 41.8511
2.80944 7.9856 49.8311
3.80462 12.3846 47.8784
4.08641 14.1962 34.011
2.21376 12.5729 48.7608
3.04879 12.6201 51.1272
3.27916 7.60848 29.1775
2.35982 12.949 45.5921
3.02292 10.3409 45.5362
3.29268 10.9775 56.4302
3.75405 10.0042 28.9419
2.41893 6.97631 33.8736
3.22852 17.0769 51.7551
3.39704 12.3315 58.2759
3.99499 10.2645 43.1702
3.57658 14.5064 30.9033
2.01562 9.49357 34.0532
1.85579 6.12857 40.9554
3.04407 9.75258 31.1511
2.3488 13.2961 65.5148
4.24978 12.4597 79.5821
6.25361 22.7504 44.2076
3.04996 9.33397 34.734
2.45328 6.82938 32.8081
2.87956 9.63599 24.2555
1.57716 8.60445 27.3239
1.90676 14.076 45.1422
2.55041 9.51347 78.1329
5.20848 13.1973 57.0355
4.17743 14.4794 37.6172
2.75995 9.10948 37.6942
2.89581 10.8932 28.9934
2.47131 12.3895 51.958
3.08197 8.14615 37.6567
2.43433 11.1921 30.6098
2.02727 10.0049 39.7535
2.51455 10.9244 48.9404
3.32686 9.3748 23.6019
1.41803 9.0188 38.3188
2.57049 10.5252 61.5136
4.31187 13.3099 54.4382
3.90795 17.2639 61.2821
3.86217 11.5205 33.7638
1.98525 8.21074 42.8017
2.95131 12.0765 44.3157
3.3821 13.8036 46.066
2.56975 11.2111 86.2464
6.02613 16.8445 71.6556
5.92322 25.1868 54.9717
3.542 11.058 35.459
2.74664 16.3305 56.8647
3.3209 11.2402 53.7484
3.54071 12.1371 34.96
2.24188 4.67461 24.2323
2.04224 11.7727 47.8347
2.65485 11.4942 43.9341
2.56696 8.86442 48.596
3.07313 8.47555 35.7916
2.50506 7.54384 24.7805
1.76097 13.8904 41.1694
2.58366 7.3443 39.2905
2.73068 8.82302 32.5605
2.28775 9.02946 40.5403
2.88258 11.4521 24.6063
1.23786 6.41179 42.7828
3.13521 19.1165 66.8259
3.86253 12.8434 57.2131
4.36449 9.39682 28.6603
2.27055 12.7757 48.0438
3.54767 17.4385 51.6319
2.96764 11.3196 45.0298
2.57858 4.69888 27.9097
2.2401 11.3233 34.6924
2.30952 11.6976 49.3278
2.93352 14.1667 57.5329
4.06845 11.9998 45.0092
2.82931 5.01306 41.8483
3.08518 9.79981 28.9087
1.89987 8.70887 39.6504
2.57097 9.28049 42.7554
2.90662 12.4948 50.2358
2.8323 7.36332 28.9691
2.28619 9.8173 33.5947
2.20753 8.81228 40.7033
2.76737 13.4397 57.8062
3.59931 13.4142 33.2465
2.10546 7.74345 43.0857
2.97933 10.7405 29.4499
2.26627 15.9492 83.0394
5.48061 11.8569 25.0745
1.68847 7.20882 46.6177
3.10165 11.2919 28.9494
1.56836 7.15319 38.8957
2.77825 9.54799 34.737
2.47589 14.6029 52.9324
3.28537 9.26795 44.4578
2.8505 11.7652 46.0476
3.06715 10.5318 30.6676
1.94673 9.89225 25.4706
1.42687 5.23309 45.0097
3.55528 9.8816 28.4945
2.01063 9.14761 47.3493
3.24362 13.866 80.9896
5.03975 15.266 45.9663
3.48711 12.3093 36.6378
2.27551 12.7933 45.9962
2.96047 9.65509 34.2101
2.42632 6.78247 43.4653
2.8265 10.0147 28.9618
2.15927 10.9973 42.0252
2.98773 11.7245 34.7555
2.11263 6.28192 29.2299
1.92306 11.9318 29.5465
1.95349 5.89959 38.5495
2.81566 7.99319 34.8194
2.32163 12.2005 38.507
2.29265 9.11303 94.5743
6.10791 18.4782 34.3537
2.47774 11.9721 38.9319
1.81473 5.99128 27.3395
1.89709 8.53009 47.6234
3.43479 8.95214 32.3792
2.1687 7.71233 34.7552
2.55009 15.0469 36.9813
2.2928 10.6282 46.6793
3.18934 9.65794 34.7516
2.49516 8.20634 45.0711
3.12215 9.45839 38.8834
2.6179 8.75676 26.4733
1.8085 7.5617 36.4009
2.48251 8.28874 27.361
1.9811 8.97739 44.5268
2.8798 8.89264 28.8337
1.83427 9.51059 34.349
2.2827 6.94816 20.9305
1.62046 10.0515 35.7276
2.27357 10.2239 39.4518
2.42548 8.36508 41.0715
2.71543 7.17494 31.6321
2.19097 10.2748 28.6595
2.16756 13.4264 48.2384
2.88747 9.84289 45.7623
3.04943 12.1715 46.5881
3.09452 14.1804 40.4848
2.38949 6.14079 29.4241
1.93006 12.9405 56.149
3.58486 9.80074 51.9392
3.48185 10.8214 51.2937
3.08453 9.87074 47.0713
2.95521 9.10517 42.0341
2.8714 12.9958 36.9186
2.33085 8.74914 36.2178
1.98102 7.42904 45.3617
2.87711 10.9207 24.7769
1.63448 6.58887 24.5647
1.61171 5.95028 26.3135
1.60355 5.63158 26.7751
1.91348 8.36687 38.4847
2.66093 14.946 62.809
4.22139 12.4144 36.3373
2.39577 5.52496 29.2733
1.68224 16.5865 54.0359
3.01786 9.27558 25.6989
1.69004 8.30898 39.941
2.50491 10.2601 48.5928
2.97753 10.6927 26.7832
1.65084 8.88736 30.4115
2.00973 5.50932 31.4462
1.91243 8.23492 56.0974
3.5998 18.3781 61.6706
4.03086 14.358 54.1455
3.30319 9.46883 48.8615
3.05778 14.9393 40.3161
2.68828 10.5833 42.4041
2.85188 9.96349 36.7973
2.33693 8.75498 45.7499
3.32368 13.6701 59.5992
3.87 11.7099 48.7981
3.29759 11.1241 32.7146
2.28596 13.7782 54.7537
3.26614 9.03712 29.3062
1.91247 6.72997 35.0807
2.50214 11.389 48.2959
3.2683 10.9004 43.5394
2.87605 6.86567 22.8492
1.45706 10.6901 40.6158
2.30787 7.92926 54.394
3.19027 14.9973 42.3612
2.36817 11.1111 34.9305
2.10968 10.0183 49.7418
3.41729 15.4517 69.0156
4.20613 12.4287 45.5737
3.05706 8.26334 51.9083
3.12106 15.7138 63.8302
3.63853 13.5303 44.9273
2.85172 10.7782 41.688
3.16685 11.1222 47.9238
3.29573 12.4443 46.894
2.81505 9.34646 21.4409
1.39402 4.32172 15.5389
0.831542 8.64656 41.8398
2.69771 10.1997 57.7937
3.57714 19.0173 42.9471
3.26999 8.99502 37.3291
2.54623 15.0408 57.166
3.45866 12.3866 43.2971
2.71286 6.01029 21.9706
1.26129 5.82695 44.191
2.7524 9.67973 30.5264
2.33022 4.7316 22.7029
1.57629 11.8939 62.5812
3.87478 15.8233 48.5617
3.49908 12.2448 59.7148
4.18093 0 0