# pn-170911/RbIIR-44-RbII-1280-1959.psd
# Power spectrum* (dif=0,1,2) (really just |FT|^2)
# NOTE: only the first half! (symmetric)
# weeks: 1280-1959
# 335 clock-days, 2 excluded
# PSD: 1441
64125 1.16084 0.0294297
2.14813e+06 53.482 0.0401071
2.89568e+06 49.862 0.0492557
824474 16.4265 0.041031
488849 12.8388 0.0487821
337674 9.39828 0.0449585
220893 8.70655 0.044244
160412 8.35487 0.0460705
124023 7.79444 0.0509756
100298 7.73501 0.0505757
74505.3 6.54922 0.0548238
71487.6 7.39032 0.0496045
50216.2 6.58952 0.0538046
49108.5 6.27405 0.0496344
40625 6.50158 0.0639756
40511.8 6.6325 0.0571996
29894.5 6.02845 0.0582292
29384.2 6.21858 0.0573077
27642.3 5.91122 0.0619593
23590 5.73382 0.0594606
16043.8 5.82574 0.0636202
24526.7 6.73261 0.0584764
20490.9 6.51317 0.0673001
15183.1 6.31867 0.0634275
13417.1 6.30937 0.0629261
12467.3 6.38256 0.0619789
11148.8 7.24204 0.0784827
11591 6.59905 0.0668828
10724.5 7.53611 0.076801
9365.27 7.59738 0.081245
8072.84 6.63653 0.0789757
8638.38 6.71998 0.0774459
8188.55 8.52215 0.0883414
6821.47 7.34873 0.0889981
7868.32 7.73976 0.0888466
6766.01 7.77366 0.0878758
6606.24 7.44299 0.0937865
6532.73 8.71613 0.102899
5837.62 9.07451 0.103483
5800.39 9.4834 0.123061
4963.86 8.10759 0.11228
4647.29 9.22723 0.1151
4975.01 10.1674 0.127103
4197.73 9.51402 0.152825
4020.52 10.1606 0.146437
4074.3 10.1308 0.145538
4114.4 8.78264 0.134111
4304.33 10.8147 0.168298
3500.79 11.8033 0.191321
3610.08 10.0153 0.15951
3748.87 9.89323 0.168057
3618.21 10.0365 0.168328
3218.97 11.879 0.203236
3236.03 10.5515 0.202291
3221.45 11.8567 0.207206
3249.72 10.8699 0.204569
3156.11 11.1491 0.218695
3259.43 10.7934 0.226182
3117.36 12.435 0.255184
2989.35 13.2008 0.28409
2660.72 10.3097 0.223659
2818.2 12.4155 0.262761
2646.62 12.2792 0.282666
2887.57 12.8517 0.298615
2652.36 13.4083 0.320395
2556.27 14.174 0.345258
2429.13 13.288 0.361035
2720.11 14.2007 0.36766
2283.74 12.9121 0.349953
2247.47 13.4461 0.371129
1950.35 12.4666 0.358867
1912.73 12.5218 0.381141
2024.48 14.5252 0.453832
1772.36 14.3287 0.444547
1854.83 11.3675 0.351895
1826.83 13.57 0.426695
1953.51 14.5587 0.45534
1758.95 14.3409 0.465596
1589.03 12.9615 0.435874
1651.95 14.5038 0.496889
1550.26 14.5204 0.522219
1546.41 16.6146 0.546006
1606.99 14.9457 0.552456
1495.31 15.5192 0.601116
1408.73 14.0544 0.518093
1505.26 15.139 0.579227
1218.23 17.0579 0.682464
1278.4 16.4727 0.684237
1349.12 14.9455 0.605648
1265.51 15.0861 0.627499
996.684 13.2921 0.561234
1254.36 14.7285 0.649081
1290.12 17.5624 0.790085
1110.73 14.2235 0.644372
1223.05 13.8224 0.667193
1190.57 15.6977 0.737242
1208.07 24.7173 1.09251
1104.62 15.3232 0.736331
1098.16 16.8868 0.854643
914 15.3844 0.791343
994.806 14.7983 0.740625
1171.78 16.1901 0.865578
1125.59 19.213 0.974599
1075.25 15.6076 0.80726
1047.4 18.0419 0.971081
1037.11 15.8039 0.852045
927.793 17.5328 0.953558
1025.81 15.0996 0.847809
946.714 19.3603 1.1079
942.072 17.5206 1.07787
808.504 16.3911 1.05339
964.798 17.483 1.02947
896.383 15.895 0.990043
778.823 19.6073 1.26252
869.89 19.3009 1.27433
930.766 18.8649 1.24572
702.299 17.5914 1.16172
656.889 14.9744 1.02701
779.472 18.259 1.25877
750.534 15.9938 1.12367
752.782 14.8314 1.02363
696.618 21.7751 1.58425
699.074 17.1763 1.27049
866.491 17.739 1.29751
774.598 16.1514 1.17801
740.713 18.8667 1.44546
701.527 16.2589 1.2739
639.852 19.2954 1.49736
652.199 18.3021 1.46547
583.112 16.9665 1.40549
621.513 17.8568 1.49036
670.442 20.0672 1.74603
564.824 16.8646 1.51612
641.508 18.3831 1.62503
626.012 17.0595 1.47215
663.179 16.933 1.50482
681.176 18.6892 1.70257
560.224 19.1981 1.75672
544.231 20.5764 1.86118
584.654 17.5477 1.64794
558.134 18.241 1.75272
580.459 16.5836 1.58861
499.982 17.0586 1.69722
576.936 20.5185 2.06685
586.495 19.7675 1.9849
541.188 17.1393 1.75553
442.708 16.881 1.80427
539.114 17.1272 1.78047
488.381 17.0204 1.80626
485.601 17.0598 1.89255
534.607 25.9424 2.81334
474.215 17.0869 1.89803
499.875 19.1238 2.06951
540.584 18.8701 2.09995
484.925 16.8992 1.96018
458.981 17.4909 1.97178
423.514 17.2499 2.09544
507.685 19.1356 2.18056
456.891 20.6397 2.49066
383.677 16.9542 2.03248
397.487 18.4432 2.27845
406.694 20.3017 2.58284
444.571 19.2201 2.40559
395.595 20.1545 2.61267
464.509 17.4152 2.28565
497.554 18.4757 2.38146
377.494 20.11 2.5224
363.993 21.8399 2.96795
482.454 18.0438 2.46646
364.262 17.6901 2.35128
403.572 18.7979 2.54893
315.888 16.2855 2.3095
351.571 22.7534 3.13746
402.476 20.1379 2.89986
336.805 17.741 2.53802
349.29 24.4292 3.55048
355.747 19.4144 2.81585
385.153 19.6841 2.97681
357.847 18.5753 2.83218
343.148 18.4006 2.82892
387.105 21.3917 3.31634
405 20.8701 3.40245
324.145 21.3424 3.22714
333.948 19.1051 3.12395
382.833 21.2643 3.35356
388.048 21.3896 3.54714
363.473 21.8043 3.51816
383.707 20.0329 3.38296
304.097 17.3823 2.88162
272.582 17.9137 3.04908
313.522 18.867 3.2702
353.076 22.0039 3.86714
371.68 31.8401 5.3474
341.129 18.3683 3.23043
308.045 21.5271 3.81695
294.405 18.4179 3.27248
313.864 18.5352 3.39618
354.264 20.8807 3.84472
273.766 19.3814 3.60035
289.312 21.598 4.01341
296.791 20.0948 3.79631
278.459 19.8458 3.71699
249.224 19.4815 3.73875
302.151 20.6575 4.10424
309.161 23.3298 4.67714
258.963 18.0654 3.45735
300.743 20.6047 4.14449
281.01 17.2569 3.41023
266.361 20.7862 4.32118
294.573 23.7013 4.8547
275.851 18.5213 3.80564
269.056 18.9643 3.93515
272.587 20.3953 4.40841
281.999 22.0082 4.58603
276.272 21.8434 4.65157
241.13 19.1228 4.25187
258.306 20.4785 4.51604
255.823 21.5766 4.71248
241.487 19.2401 4.30128
264.932 21.8054 5.0222
246.719 18.7383 4.27956
271.471 18.534 4.2314
263.513 19.8972 4.62986
273.72 23.7139 5.74256
277.56 20.6213 4.82378
260.239 21.7189 5.0976
259.592 23.9148 5.75398
234.161 19.7008 4.89804
225.342 18.5956 4.72841
242.23 21.9096 5.49753
249.595 20.6051 4.85755
197.602 17.8675 4.5887
243.405 19.8754 5.05229
218.805 17.7817 4.67945
223.121 19.5177 5.01929
203.59 19.0262 5.00754
195.19 20.2116 5.28738
205.258 16.9667 4.52753
221.348 21.075 5.45492
215.132 22.075 5.90275
188.348 18.7 5.01649
208.606 18.8551 5.20333
210.855 21.8982 5.95744
175.605 20.5707 5.61262
176.052 19.4892 5.31104
179.344 18.9521 5.4765
218.185 22.437 6.21816
177.076 19.0062 5.35381
184.972 20.9749 6.06196
211.147 21.1456 6.04223
190.154 17.9696 5.25378
204.904 21.0725 6.11359
174.394 22.2437 6.8585
187.276 20.8505 6.28179
210.163 23.4643 7.18554
153.144 17.8621 5.44583
196.798 21.1 6.40876
184.543 20.0149 6.45157
182.801 19.3517 5.94446
176.668 21.2107 6.7605
179.283 21.5848 6.94448
184.476 20.0467 6.01866
148.87 19.8479 6.38047
164.078 20.6114 6.61716
150.626 21.3612 7.01512
167.243 19.3265 6.37695
205.848 20.166 6.32293
178.574 18.3637 6.08484
149.1 21.5537 7.29598
173.53 17.0459 5.76792
172.35 17.1793 5.88735
171.941 22.7052 7.79801
160.429 18.5785 6.43467
156.515 17.9728 6.28431
157.268 19.4483 6.7732
177.059 20.1044 6.75356
138.684 18.2686 6.50509
166.987 19.1123 6.79512
143.786 19.8463 7.02608
155.245 19.8664 7.21631
138.383 20.2696 7.38487
144.666 20.5881 7.83214
153.155 20.6749 7.62791
141.6 19.1674 7.08693
121.224 19.5376 7.41016
109.997 18.6198 7.05057
111.262 19.6683 7.56342
160.96 20.3475 8.33838
164.963 36.6254 13.2933
103.55 19.9136 8.09805
145.257 21.6955 8.13851
115.949 17.8745 6.94079
128.569 20.7277 7.97764
141.422 21.4462 8.50267
134.993 19.406 7.79595
127.798 19.3936 7.74525
143.733 21.0431 8.85189
131.486 20.1897 7.86772
127.575 20.4057 8.34502
143.631 19.159 8.07984
125.449 20.789 8.41719
136.851 18.577 7.70298
122.797 18.7565 7.7403
136.351 18.6415 7.73028
124.328 19.3102 8.45858
124.667 18.9866 8.04894
126.333 19.0315 8.12646
109.727 17.221 7.33591
112.486 20.3442 9.12127
148.225 19.794 8.52621
144.717 19.114 8.41813
120.421 20.2568 9.15135
107.977 20.2744 8.91286
114.59 19.3966 8.9957
99.2435 18.8634 8.44951
120.739 22.908 10.3206
111.729 19.4877 9.09363
110.666 18.0297 8.48878
97.4087 17.4677 8.39608
125.01 19.3896 8.74473
112.687 20.1602 9.69439
113.318 19.3844 9.13219
126.266 21.2335 10.2316
111.691 17.2272 8.44999
110.666 19.4206 9.13016
115.588 21.0771 10.2744
103.793 16.9216 8.27274
105.85 19.3304 9.58514
107.232 18.4948 9.1823
98.7447 18.6578 8.99909
100.623 20.353 10.4828
96.1408 20.9674 10.2484
100.414 20.1902 9.79523
94.7966 19.9201 10.287
102.729 19.4254 9.56009
106.425 19.1863 10.2474
89.1211 19.8849 10.0107
94.2401 19.6057 10.0935
108.796 19.5126 10.1095
98.2284 16.5456 8.57498
89.2353 19.2648 10.6029
84.5225 17.4981 9.37905
98.8021 19.227 10.1834
98.3218 21.3472 11.2954
98.9535 19.9178 10.6709
111.015 17.922 9.75658
106.052 20.308 10.9026
103.954 20.039 11.0265
94.9589 18.7031 10.3757
106.467 19.6653 10.8559
102.608 18.5199 10.043
106.194 20.8351 11.9307
92.6876 18.1516 10.313
106.947 19.495 11.0368
108.51 20.5146 11.6405
113.951 20.4867 11.7542
104.153 20.8951 11.9742
102.038 15.8757 8.90827
91.7424 17.1211 10.2013
102.475 20.5052 11.6446
92.6412 19.6802 11.4488
79.5957 19.9255 11.6232
99.7017 20.4547 12.243
100.304 18.3956 11.0668
96.5983 18.3979 10.9518
88.7415 20.1938 11.6125
91.6347 19.3676 11.6459
90.9851 19.5807 11.9444
80.8932 18.272 11.4901
80.7025 20.2223 12.7231
81.7363 18.9609 11.3497
81.0962 19.2413 12.3472
81.5619 17.9025 11.2107
90.2307 18.961 12.075
72.3911 18.3315 11.5558
92.917 20.5563 12.5231
83.4036 19.642 12.3723
81.9968 18.4118 11.922
75.4948 18.0935 11.8639
85.6802 18.2668 11.531
82.1454 21.697 13.8852
82.7383 18.8143 12.5112
86.0964 19.7356 13.3164
78.5418 17.5029 11.9568
88.8503 30.0202 18.7344
90.967 20.8296 14.2292
79.5069 19.0697 12.3309
72.0814 17.1896 12.1492
79.3509 18.6347 12.42
91.0657 17.0607 11.6341
78.003 18.2847 12.4811
83.8779 20.0743 13.7229
79.4565 18.2173 12.719
83.0069 20.4151 13.9105
71.2979 17.4721 12.449
78.8584 19.049 13.586
73.181 18.0013 12.979
82.2698 19.1001 13.6132
70.127 18.2543 13.2462
84.3961 19.6254 13.5734
83.401 18.534 13.3551
67.454 18.0542 13.4155
73.5965 19.6143 13.7343
85.8357 19.5045 14.1132
69.96 19.4348 14.2332
61.6648 17.3798 13.0091
75.9178 18.357 13.6661
74.5025 18.7757 13.6055
74.8046 17.577 13.4904
72.6051 19.935 14.8118
74.4886 18.3957 13.9469
84.1597 17.9958 13.2637
72.1329 17.4725 13.1652
77.1359 17.4559 13.9459
72.2054 19.5568 14.47
65.8965 17.6897 13.9856
72.0809 16.7775 12.8595
67.4326 18.2047 14.1308
65.9479 17.6888 13.8212
69.6924 18.7624 14.1417
58.4001 16.6501 13.2598
65.5903 18.9967 14.7973
62.976 18.381 14.735
65.6086 21.1966 16.8164
65.1575 18.1279 14.3884
57.7677 18.5042 14.9047
58.4686 18.2429 14.3788
62.7554 18.5135 14.9775
68.6755 16.7142 13.8528
67.9569 17.6595 14.5413
56.1366 19.6668 16.1385
72.2106 21.2246 17.2122
68.5708 19.4128 16.5957
60.3186 19.6077 15.526
68.2844 21.5645 17.6823
68.064 19.9662 16.5707
62.0268 17.3884 14.761
61.922 18.1499 15.3791
63.6727 19.6597 16.3096
67.1978 21.7678 18.9603
70.6189 19.3638 16.3447
72.879 17.1664 15.3634
67.2293 17.8585 15.051
69.1518 18.9948 16.5278
59.4571 17.5405 15.7099
67.8265 19.9866 16.825
58.9987 19.4648 17.6661
60.8233 19.4499 16.6226
56.5382 20.205 17.5444
56.9253 17.7884 16.446
58.5002 17.8764 16.0513
56.8995 19.3763 16.6984
74.7049 20.136 17.7687
68.0717 19.4878 17.7933
56.2483 20.4373 18.5084
55.5736 18.1813 16.3398
76.1754 19.5947 17.8686
58.1275 19.1999 17.2438
54.4785 17.579 16.3068
49.2513 17.3475 16.1189
52.3162 19.6117 17.7827
66.7845 17.9291 16.4697
52.1958 17.153 16.1066
50.959 18.3009 17.4457
55.532 16.2078 15.5421
59.1746 17.5663 15.8221
53.5346 18.5683 17.3525
53.8765 17.3097 17.0252
57.4626 19.0714 17.8569
60.3831 19.0697 18.4361
51.9015 17.676 17.7958
55.8716 19.7067 18.8914
53.9588 18.8418 18.2342
56.2766 18.6584 17.6939
52.4045 16.7407 16.3495
59.7529 20.4164 19.5464
49.7312 18.005 17.5101
47.9393 19.6152 20.1549
57.7729 18.9463 20.1179
56.3835 18.8596 20.7062
62.9419 34.645 30.4755
55.0899 18.779 19.6847
56.8124 17.8299 17.9156
49.4377 17.9298 18.5047
57.3521 18.0582 18.5639
62.311 18.6206 18.2833
49.619 18.7888 19.3773
49.8058 19.4071 19.7034
50.2341 19.77 20.5011
48.4567 17.8717 18.7238
50.1203 19.7849 20.1654
51.029 16.985 18.9305
56.7233 17.0292 17.1834
48.9978 17.8518 19.3099
54.8804 18.6724 19.7086
51.4863 18.1074 18.8563
48.3628 17.8519 19.1835
55.5082 17.9293 18.5478
52.231 18.2339 19.371
53.8221 18.9275 19.8521
51.1229 20.2733 22.497
49.2318 18.9299 19.8723
48.6192 18.2954 20.1105
45.9275 18.2549 19.3923
46.1871 17.7916 20.1545
45.1675 16.891 18.6953
45.8541 17.0028 18.0975
48.6942 18.9708 20.2375
49.8548 18.5484 21.4896
49.5659 18.842 20.2601
42.8613 17.0064 19.339
49.0155 18.9087 21.0927
46.8918 17.7559 19.8281
45.8089 19.48 22.4087
48.6647 18.4241 20.8334
45.9647 16.949 19.2063
48.7208 17.9594 20.4914
47.8828 17.9245 20.7432
45.7897 18.6369 22.0514
48.675 18.2212 20.0235
47.7357 18.1359 21.5553
51.3802 18.3695 21.2529
44.5996 17.1636 18.8427
40.482 16.9714 20.0273
44.8852 17.8251 20.4237
46.3665 19.783 24.1872
44.8109 19.0527 21.5879
49.2718 19.0447 22.2767
42.5552 16.7593 21.0759
47.2637 17.0824 19.4526
48.8315 17.6312 20.8663
42.2744 18.4091 21.9661
43.8084 18.6671 22.9015
42.8742 16.8083 20.899
44.8373 17.7122 22.147
41.5486 19.2596 23.7364
45.2096 16.5263 20.4252
49.315 17.2603 21.5888
45.3976 15.9163 18.9842
48.7953 18.1929 21.9056
44.6081 18.595 24.1554
43.734 18.187 21.0953
40.9202 17.7699 22.6118
41.0895 18.8283 22.7406
41.6466 16.7321 21.6947
45.4026 16.6504 20.879
45.2474 17.3889 21.6305
41.9039 19.1046 24.3906
48.5522 17.4231 21.4441
40.1079 16.3579 21.9338
39.4623 18.1625 22.1732
42.4485 18.3666 23.0231
35.5025 17.1461 21.8909
36.3751 17.9912 24.892
43.2149 17.3601 21.4341
41.0694 16.8478 22.4509
36.2431 17.5819 23.3774
49.0867 17.9998 23.695
45.4524 17.2915 21.3493
40.6499 17.153 23.1083
39.8086 18.3556 24.2439
42.701 18.2668 24.1771
43.3734 19.3184 24.8225
43.2936 19.1799 25.1576
43.1488 17.1428 23.0454
41.6179 18.1282 24.7061
39.8345 18.5131 25.1245
42.7328 19.1302 24.7459
35.4031 17.3495 23.5614
43.2524 20.4354 28.0192
37.8716 18.7538 26.3083
36.2628 16.8248 23.5989
39.008 19.6553 25.8538
32.6093 18.9345 25.9829
31.1353 15.6539 22.4206
51.5542 18.6192 28.4507
42.5878 29.3081 36.0939
34.3543 19.8905 28.2584
42.8495 20.1344 27.0872
36.913 18.1455 26.2769
40.0487 18.7794 25.8324
37.2408 16.228 23.8897
38.3262 18.3435 26.2253
36.9301 17.1611 23.3057
36.7846 17.5572 23.9036
32.0769 17.4484 25.9273
36.2326 16.446 23.4129
33.2111 17.5547 24.7125
31.362 16.5536 23.7837
34.7566 15.8897 24.479
32.9186 17.4752 24.1199
35.2039 16.6621 23.577
32.6161 16.1226 24.1289
39.9031 17.7444 24.8647
31.7356 16.5342 25.3913
30.0033 17.166 24.762
32.7512 18.7365 26.2048
38.4633 17.6845 26.7648
36.0382 15.606 23.8331
37.203 16.4225 22.9643
31.6662 16.9334 25.5809
35.1424 17.9939 26.8802
33.8557 18.2111 27.2052
36.7759 17.5109 26.233
36.6827 18.9633 27.3761
31.7972 14.7175 22.7968
25.9477 16.3448 24.6161
38.5731 17.8988 26.9681
34.6714 18.0922 26.1731
36.3015 17.6681 26.8408
35.4637 17.9068 27.5722
36.4513 16.7263 26.1107
31.5647 15.0892 23.056
31.7731 16.1394 25.2457
31.6886 17.6927 27.1091
30.4983 16.9112 25.7722
30.5823 16.6041 26.445
30.9075 17.4728 27.4584
36.0021 18.4165 27.1752
29.0016 17.1563 25.4641
31.7158 18.154 28.7846
34.2419 17.4318 27.8258
32.763 18.0387 28.4895
33.7958 18.5229 29.2933
29.0855 17.5306 27.4962
31.5046 17.1414 25.6071
31.2179 15.3583 25.3307
36.2175 17.0853 28.4949
31.5916 17.8294 27.1844
30.4161 17.5751 29.3025
34.6767 17.2434 27.5498
33.6577 15.5727 25.1645
28.1711 16.0347 24.7585
31.2391 16.694 27.9268
33.7763 18.6669 30.7639
31.9152 17.4038 28.3969
33.735 18.1904 30.1721
33.9372 17.7093 26.326
33.2914 17.5786 29.8846
30.6519 16.7923 28.6593
27.4374 15.1397 26.7971
32.7022 18.3127 29.1209
32.3196 16.2501 26.9046
32.7297 15.6209 26.6636
34.1712 17.8531 29.1421
32.6768 16.0549 25.9876
30.3301 17.0406 29.3933
30.725 16.4024 28.1699
33.7173 17.292 29.3859
26.7252 16.8085 28.0366
34.4317 15.8567 27.2534
33.9732 16.6674 28.1169
31.9375 14.0825 23.5614
25.0197 15.272 28.4575
34.9727 18.3297 31.0057
31.7216 17.1652 29.5732
32.9663 15.6507 25.7136
27.4888 15.694 26.566
29.6595 17.2119 29.8104
30.8522 16.9546 28.1222
29.9274 15.2845 27.9856
30.3761 15.9891 27.8309
27.0924 16.4478 28.8976
31.0704 16.9672 30.631
32.3308 17.7875 29.497
26.7776 16.9494 28.8121
28.4991 16.1689 28.4149
30.8396 14.876 26.5035
27.8061 15.9735 28.1489
27.231 16.297 31.2234
33.5243 17.8386 33.0338
31.0343 17.9074 37.1917
34.7435 25.5257 37.1864
29.5487 18.3246 32.0507
31.5744 17.9282 33.736
26.5426 16.4073 27.5313
30.6172 16.094 30.7196
29.7785 14.9019 27.6554
27.6671 15.9314 27.4195
29.3387 16.7338 30.9578
28.3742 16.2151 29.8503
27.0947 16.7693 30.6123
28.6274 16.5901 29.15
29.2278 15.3195 28.6713
28.3475 17.7645 32.2513
29.4161 16.4419 31.3669
26.3395 17.3406 32.2782
33.4373 16.7207 29.999
32.3155 16.5808 33.1794
30.9333 16.859 29.6949
30.5502 15.2432 28.0721
27.5999 16.2447 30.2937
26.3859 17.4197 33.8307
28.6769 16.4396 29.7135
26.9079 17.3272 31.9117
25.5295 15.5409 29.0774
25.1768 13.8077 27.1164
25.2639 15.4276 29.7074
29.348 15.7198 28.4568
27.6372 15.6161 32.2817
25.6691 14.7206 28.2285
29.3256 17.483 32.6172
27.0532 15.852 30.323
27.9929 15.8834 28.8939
25.0826 15.6723 31.4778
27.0896 14.7821 29.9516
30.7556 15.3992 28.6858
27.9191 16.4245 30.5152
26.9226 16.002 31.0365
25.5305 15.422 31.4221
25.2501 17.0798 31.9007
27.3447 14.6157 30.813
26.0478 17.037 30.3044
22.1798 14.0864 26.9898
24.3883 16.3876 33.3579
25.504 15.3252 29.3403
27.4394 14.9105 31.7908
27.1519 15.7556 30.8193
21.8303 14.8176 31.2494
30.9556 15.9801 32.4265
25.6827 16.9857 32.4127
26.8274 14.4539 28.6069
26.2988 16.313 34.1871
22.6956 17.1954 32.0883
24.6393 15.9988 32.4342
23.7908 16.3344 35.4661
27.1175 16.0949 30.6591
24.5993 14.9088 28.2166
24.5049 14.7302 31.152
29.0301 15.7003 33.8565
25.9325 14.7105 29.4182
25.2891 16.4125 31.2994
25.8766 14.9122 31.2181
28.1569 14.6298 31.4885
24.5852 15.3879 31.0739
25.7582 16.6232 33.8369
25.274 14.2538 30.0615
23.982 15.1155 31.8418
26.6452 16.2099 33.1976
23.3664 16.3127 33.0385
30.3043 16.7657 33.9984
27.2808 16.1939 34.9281
21.8279 15.6554 29.6576
23.5976 16.4963 36.3975
28.8686 14.1676 31.1136
21.1463 14.4616 31.2078
23.6571 17.4966 34.1545
22.8301 15.2045 33.164
23.3159 15.0743 33.5663
21.7079 15.6283 32.0635
22.6838 15.6678 31.0162
21.4685 15.9217 34.421
18.3439 15.6067 34.2544
23.5549 15.7494 31.9283
22.4249 14.491 30.3731
20.9896 14.0714 31.7565
24.2063 15.2606 32.9213
23.0013 17.1188 36.0931
20.4696 16.5093 34.9024
22.5225 15.0097 31.5324
23.2022 14.1896 32.0141
25.3757 15.0246 32.3384
21.0043 13.9386 30.71
21.4415 14.83 31.8985
23.59 14.7916 31.2661
21.0339 13.9187 30.6603
21.2719 14.823 33.9263
25.533 17.358 46.1242
26.3441 28.505 48.9597
25.3733 16.0047 34.9391
23.7361 16.8522 41.7084
22.9108 14.278 32.618
24.0139 15.699 33.1673
25.2063 13.2477 31.3274
23.9184 15.627 34.6973
22.8777 14.9096 32.7545
21.3885 15.1585 34.4005
24.2678 15.0893 34.4675
20.3666 14.5198 32.9369
24.2742 14.8575 33.7946
22.8591 15.3943 32.8799
23.7697 15.7806 36.8558
28.0625 15.787 36.8242
27.0294 15.9635 35.0786
21.2661 13.5655 32.22
25.1557 14.8985 32.516
23.3794 14.3021 32.234
27.9126 14.0016 30.596
20.4323 13.985 33.0312
21.7645 14.4002 33.8051
22.1354 14.6984 31.8651
21.9952 14.5944 35.2816
22.5786 14.3616 34.533
22.1344 14.6834 33.7914
20.5597 15.1007 32.6122
21.2801 14.859 34.3174
20.8782 12.8614 32.6782
20.8644 14.8611 36.7806
22.612 15.8679 35.4449
21.4678 14.0702 31.7607
22.1947 15.1191 33.3521
21.066 15.4854 37.3694
23.1125 13.1913 30.5989
18.4072 12.8637 32.8495
20.7782 14.7105 35.0944
23.0222 14.195 31.6997
20.4609 14.596 33.8746
18.7846 14.1168 35.6181
19.6513 14.7692 35.3561
25.4154 13.8484 32.3884
20.2623 13.2388 31.8839
21.7939 13.8128 31.4638
20.4491 14.1363 36.0904
24.4252 14.0338 32.8461
20.9132 14.8341 34.8399
21.6694 15.7214 37.1911
23.0928 13.9582 32.9961
22.5807 13.8375 32.9381
20.5204 13.9708 33.5766
20.7252 12.9986 32.5648
20.3411 13.8901 33.1476
21.0843 13.7287 31.8823
24.6425 14.1109 33.7995
19.4035 13.2796 32.9356
19.7038 14.4377 36.8373
23.7398 15.6953 39.4588
21.4115 15.5001 39.82
25.2292 13.0904 32.2219
22.5171 15.3924 36.4731
19.2025 14.5262 34.4396
19.7573 13.9518 33.3487
18.6677 12.8956 33.24
21.2716 13.5657 34.0156
19.6052 15.0801 39.2587
24.0633 14.1152 35.2534
19.71 13.3219 34.0571
22.5178 14.0675 34.7169
20.7027 15.5454 38.0621
19.9717 14.334 35.6508
18.8337 13.091 34.2201
20.7061 14.1565 35.7908
18.7343 13.5062 33.5956
21.9214 14.3818 36.0309
19.3263 13.8106 35.5064
18.4173 14.1381 35.1085
24.6387 13.7078 36.4139
23.4078 14.4002 33.8523
17.0481 12.8828 34.4369
21.3845 13.3378 31.4234
18.9872 12.9062 35.8591
21.3933 13.8112 33.0879
22.1146 13.2979 35.6088
19.5978 13.4697 34.1432
20.9965 14.1888 37.0325
23.5703 14.1658 36.6727
21.9787 13.7512 35.3755
20.128 13.4833 31.1139
20.0622 14.0321 38.1079
21.0851 14.835 40.3142
21.732 15.8599 39.3513
20.0158 13.2466 36.6908
19.9541 13.7654 33.6803
19.6032 15.3718 40.0083
35.4049 15.5516 56.5594
23.32 22.3005 45.8666
23.143 15.301 37.557
24.3019 13.4389 35.5426
22.1237 14.8987 39.7245
20.976 14.9233 37.7606
20.7774 14.7434 36.4317
20.0515 13.8297 37.1969
19.5556 13.0669 36.5685
21.3718 14.0054 35.0168
17.4437 11.8321 32.784
19.3154 12.1548 32.7405
17.9921 14.7177 38.1123
16.0686 14.7127 40.5133
20.662 14.1686 35.5149
19.1313 13.5015 37.7113
20.3754 16.5454 41.5489
20.5238 13.9497 37.535
19.9743 14.6695 38.9646
18.1289 14.3021 36.2779
16.4179 13.6086 37.0953
15.8942 12.553 34.3002
18.6719 14.5811 41.326
16.9324 12.1341 36.6838
17.1652 13.5735 34.1325
15.9566 12.7262 34.2378
16.7764 13.3885 38.4744
17.2187 13.9277 39.9744
18.4176 13.0759 33.2284
18.8391 14.7734 38.8573
18.3381 14.1328 37.6038
16.0008 13.8113 37.4739
20.2645 14.7435 41.8922
18.3762 14.6082 38.5078
20.7637 15.3089 41.6518
19.3876 13.1424 36.1699
22.2117 14.2867 40.3528
19.1045 13.4317 36.496
20.16 15.3456 40.4965
17.782 14.0989 39.0955
18.8375 13.0365 34.4593
17.2121 13.4102 39.1327
17.3424 14.2171 37.363
19.3594 12.0112 37.2437
18.065 13.6618 37.1795
18.4977 14.5566 42.8344
19.5538 14.7149 39.463
17.6539 13.3826 36.8527
18.5605 12.187 36.7695
16.6478 12.8456 36.524
17.5386 13.4296 34.9274
17.6863 13.1217 38.8097
18.917 13.1525 34.525
16.2083 13.3917 39.2209
17.4901 14.0248 42.0085
17.7969 12.979 35.1864
17.4365 13.7969 36.5697
13.731 12.0205 36.4422
17.0402 13.6353 37.514
17.1074 14.5951 43.2156
18.0785 13.6299 35.8577
16.6703 14.0048 39.8666
19.1511 14.3475 42.0483
18.891 14.1587 37.674
15.4587 13.8292 40.6548
14.5449 13.069 40.5999
18.409 13.6882 40.7257
18.9473 13.3405 35.8563
19.111 13.7815 38.4438
18.7169 13.1225 37.1373
19.0384 12.8383 35.9739
18.1798 12.5766 37.4824
19.7946 13.365 39.9797
18.605 13.6766 38.0639
13.2206 11.6191 34.6112
17.7354 12.8563 36.0554
17.7531 13.2121 38.3787
15.9923 12.702 36.498
15.1046 11.235 36.5273
17.4731 13.0401 37.4944
18.6548 14.6265 41.1599
17.7402 13.6262 36.4501
15.9387 12.8783 39.6251
17.5222 13.3354 40.1902
20.157 12.2298 40.1885
17.8282 12.1216 34.2509
16.662 14.7403 41.6922
15.8795 13.5429 40.9424
20.269 12.467 36.8624
16.3482 12.4223 39.8732
17.5412 14.1788 39.237
16.6 12.2587 36.4416
17.4758 13.9487 40.4992
14.8326 12.5028 38.065
14.2417 13.4583 39.9422
15.9473 13.2311 41.6852
17.3151 15.4985 64.8042
18.1628 22.5596 45.4645
17.2033 14.5635 45.1922
17.5394 13.7361 43.4812
17.4504 13.0656 40.0381
17.8109 13.6194 38.5859
15.9278 13.718 41.0506
14.592 13.5435 41.8073
15.6021 14.1586 42.0285
16.2844 13.0904 43.6316
15.9329 13.0222 36.4999
13.4697 12.3263 44.313
17.6704 14.6063 38.6415
15.135 12.3092 34.8351
14.1047 12.0837 37.7739
14.4661 12.6518 38.2592
17.2001 12.7237 38.236
16.167 12.6409 36.8992
16.0498 12.2847 35.6708
15.297 12.2074 36.0418
15.8333 11.6382 39.942
18.1169 11.591 34.8953
16.2011 14.1142 41.6314
17.3034 12.9874 38.9089
14.6134 11.9403 37.5985
16.6039 13.1487 41.7554
16.5681 12.5398 37.7611
14.9898 12.3284 40.9019
17.338 12.804 35.9709
15.3282 11.7784 37.2612
17.6076 11.7263 37.6874
15.3442 12.8618 41.8924
16.4364 12.9665 39.6227
14.2132 12.5975 37.4341
15.8118 12.1966 38.8404
15.9385 12.1431 38.2401
15.4993 12.1193 37.7442
14.5021 12.0609 37.2948
15.9117 12.8621 39.9321
14.7608 13.1365 42.3803
14.4102 14.0325 42.9365
14.6573 12.1535 36.2335
13.3377 14.2489 42.1939
15.165 12.8278 45.8777
16.0573 13.2247 38.5985
15.6882 11.8354 38.3033
14.7657 12.5628 37.5379
13.3393 12.1615 42.8029
16.8953 11.9347 35.7499
13.7024 12.4539 41.6616
16.0502 12.428 40.4426
15.5255 13.0195 39.7888
14.0122 12.2927 41.5765
15.2614 12.7377 39.8608
15.125 13.1041 44.0975
16.1986 11.6003 34.782
15.4395 10.8745 38.2901
17.1231 13.8063 39.7554
16.4745 12.7883 43.5204
16.2969 11.8485 37.6405
19.0832 12.0952 38.4824
14.2102 11.8627 39.9008
18.8424 12.5414 40.8156
17.2411 12.7214 40.3813
17.1303 12.5601 38.557
15.2783 13.2096 40.3222
14.6283 11.1085 35.5759
15.065 12.9166 42.2775
15.2157 11.4441 37.5114
16.4424 11.1733 36.7409
15.632 11.1605 37.899
13.9158 13.0163 40.7801
15.573 12.3621 37.3851
18.0927 13.2929 44.1663
14.2325 12.3632 44.165
16.5249 13.5718 41.5546
16.8511 13.521 44.3455
14.3761 13.9096 42.3987
15.021 13.9062 46.4433
16.0025 13.2333 43.1859
14.2931 12.1596 42.8906
13.432 12.3629 42.168
15.825 12.7264 41.8792
15.5446 11.8606 36.4656
12.7176 11.5934 39.7014
14.6368 12.8389 40.5045
16.498 12.0831 40.7207
12.0659 10.7632 34.2161
12.6182 12.2568 43.6746
15.3047 13.1679 40.5909
14.7103 12.2681 42.8493
13.2949 13.0082 40.9694
13.6008 13.3056 44.2419
14.4232 13.2265 44.0544
14.7082 12.0454 38.2231
13.5369 11.8505 39.0712
14.411 16.5136 69.3386
16.3544 19.153 47.5863
16.2508 12.7078 42.7355
15.1775 12.1865 40.3724
13.4928 11.6878 40.5516
13.8434 11.8851 38.7396
16.546 11.8118 42.3291
14.8218 12.4169 38.3977
14.0464 12.3743 41.5894
15.4404 11.7718 40.0983
15.6503 13.4726 41.7875
14.5208 12.0359 40.5888
16.8941 11.683 40.2968
16.4478 11.0495 41.2812
15.5429 12.4164 38.5042
16.4101 11.2405 40.3399
16.0033 11.832 41.4643
14.2352 12.0708 38.9973
15.456 13.0117 43.2251
15.6703 11.9887 37.4158
15.7367 11.9547 45.0402
13.0978 13.1026 44.3093
15.1063 12.6982 39.5739
13.9158 12.6945 43.2483
12.8618 12.4782 42.6729
14.1208 13.201 48.0808
14.8075 13.0486 44.0643
15.162 12.7458 44.7662
14.2522 12.8513 40.4049
13.3906 11.9306 42.2761
14.4201 13.5192 48.6148
15.0761 13.4026 39.2382
13.6654 12.7772 45.6296
12.3094 12.499 44.3416
12.6295 12.8861 45.4243
16.7185 13.56 42.6878
11.2454 10.9136 39.0073
13.3208 13.2418 47.1694
13.9373 11.466 38.1211
11.6259 11.2193 40.0416
12.5707 12.502 40.9987
13.8588 12.0877 45.7901
14.351 12.5301 40.143
13.0111 12.4567 38.6208
14.0072 10.5315 39.4645
16.0735 12.0296 39.5485
15.5175 11.3514 43.8975
14.5404 12.0055 40.5232
17.05 12.1241 40.8438
16.0011 12.1209 43.3674
14.5589 12.3203 41.7063
12.6077 11.2958 45.708
14.5477 13.0107 43.6951
14.0309 11.789 36.8665
12.9743 10.8754 37.8757
13.9405 11.2565 37.1055
14.3521 11.2933 40.972
14.0748 12.4294 45.1974
14.3204 12.2215 43.6509
14.3307 11.7151 40.9595
15.4102 13.1438 47.6694
14.5629 12.2194 42.4753
14.6136 12.4081 44.8105
13.5744 11.6905 36.9298
15.0491 12.1061 41.2772
15.2324 13.0217 47.5925
15.6628 12.4688 46.9418
17.2149 12.7541 41.0381
13.4098 11.087 39.2524
16.8892 11.2624 40.7438
13.842 11.6989 44.9431
12.3181 14.0733 47.6295
13.1283 12.0068 41.2396
12.4142 11.6681 43.8695
12.8067 12.0201 40.0269
13.5879 11.0357 41.4379
12.2255 12.2736 40.4369
12.5134 11.1777 41.9108
14.6732 11.7117 43.1328
14.1035 12.2437 44.6567
14.354 11.8881 44.4838
13.8357 13.3317 45.1134
13.2595 11.3896 42.9936
14.417 12.2873 45.3458
14.9904 13.2102 47.6436
14.0618 12.573 41.7363
12.9269 12.056 43.0436
15.8129 10.8085 40.8955
14.1971 12.8395 44.5781
12.6624 12.1793 45.3771
15.7802 12.706 45.2049
14.8251 11.3783 40.6016
14.978 12.2696 46.0112
15.3435 12.9123 46.4172
13.5954 13.8185 46.7146
17.8546 13.5577 46.8855
27.4183 15.6872 83.591
15.6352 18.9716 48.3677
20.5831 12.4551 42.8725
20.9079 11.6553 43.5807
17.5764 12.8715 49.6959
16.6377 13.6901 48.8559
16.5155 12.3775 43.0523
15.7106 12.6355 46.2919
15.9406 11.5377 42.522
12.872 11.6491 41.9914
13.3966 12.0989 43.2746
16.0215 13.0932 46.8997
12.1294 11.8515 45.3923
13.7125 11.3454 41.5328
13.7495 13.0035 43.26
12.8054 11.8735 46.2662
11.529 11.3401 42.3949
13.175 12.992 41.3952
13.2135 11.4044 41.9165
11.9989 12.2385 42.8221
11.5483 11.4573 43.8508
12.9603 10.8465 41.7796
12.7924 12.3361 41.9444
12.7022 12.8143 50.8048
12.1009 11.5142 40.9048
12.8003 10.7802 42.8948
14.7161 12.5498 45.7966
12.2838 12.9465 41.2711
12.4677 10.0086 38.3276
15.0208 12.5865 46.2879
13.0312 11.1731 40.1918
12.2949 11.1818 41.1879
14.5409 11.2568 38.3493
13.525 12.57 45.7065
14.8816 11.2078 43.4395
13.4466 11.0777 42.2225
14.8102 10.3384 39.9086
13.3401 10.4403 40.4552
13.7969 11.0914 38.2525
13.6606 11.0954 40.271
12.6167 11.73 43.4085
13.1587 12.0597 45.8452
14.0917 10.934 41.7884
13.7556 12.5333 50.5017
11.4855 12.8204 43.4566
12.8737 11.6945 44.9235
13.4463 11.7143 44.507
12.732 11.4992 42.0929
13.8194 12.7715 41.5625
12.6713 12.6792 46.0575
13.2771 11.7291 43.1858
13.1487 11.4806 46.3442
15.8824 12.5418 48.0326
13.7653 12.2632 44.8675
12.5434 11.4968 44.7819
13.4783 11.9635 41.9578
13.2366 11.3298 41.0835
10.9732 11.7234 41.0546
12.2975 10.5112 44.9881
12.4327 12.2925 44.722
12.6579 11.0906 42.5951
12.5361 10.874 43.3442
13.8205 12.0278 43.3106
13.3978 10.6999 43.9868
11.3631 11.3639 40.736
10.5716 11.4421 42.2357
12.174 11.0451 40.7179
11.8376 11.6902 45.8267
12.7347 11.2329 41.7076
11.8988 10.3051 36.3762
13.2935 10.2916 40.8274
12.6482 10.803 41.8508
14.8004 11.7411 41.774
13.2978 10.8984 42.7664
11.2593 11.5228 42.3111
12.3008 10.7025 40.3577
13.0792 11.5285 46.2777
11.6588 12.2419 44.4005
12.4547 10.724 41.0314
13.1114 11.2426 42.5884
14.2053 10.7136 42.2445
13.6452 11.2628 42.1603
12.4438 10.8038 40.6599
14.3904 11.6637 41.9164
14.9608 10.7048 40.1257
12.3231 10.2824 40.9289
14.3628 10.6601 42.8459
12.3965 11.8082 44.7048
15.7566 11.5031 41.6837
13.5928 11.5865 40.2101
13.3827 11.5652 45.3632
15.3666 11.4456 42.2501
15.1841 10.3021 41.9936
11.9971 11.6503 45.4191
12.7147 11.7637 40.9292
12.0593 10.5218 38.7441
11.7789 13.6419 81.0997
14.1692 17.542 45.8635
11.4022 11.1809 41.0595
11.8345 11.0763 41.6162
11.2408 10.0177 40.7918
12.692 12.1903 41.4522
10.3456 11.4815 44.2665
10.0174 10.893 39.8357
13.0723 10.9092 39.1496
12.946 10.6085 45.494
11.1753 11.258 39.7768
11.2025 11.1471 43.1352
12.0172 10.8526 45.2501
13.9343 10.8591 38.8407
13.1851 10.9372 46.748
12.3766 12.7352 43.0035
14.3575 11.2122 41.8961
12.5794 10.8037 40.6271
12.8208 10.4826 41.3172
13.7883 10.1167 38.7781
11.562 10.4235 38.8464
14.1427 11.1116 44.9968
13.3961 10.9503 45.4242
12.7235 11.0069 40.1286
12.1004 9.49942 40.2073
13.9446 11.3668 44.5442
13.8018 12.3745 44.797
12.5784 11.3259 46.4218
12.4181 11.6983 40.7599
12.5743 11.1509 44.8938
14.8431 10.4205 44.4198
11.6367 11.9561 47.704
13.2071 12.1383 42.7461
12.4699 11.7748 44.7938
12.9778 11.6685 44.1979
12.9086 10.9353 42.0723
11.4752 11.7979 42.4865
12.1416 9.97559 41.0901
13.9212 11.265 41.996
10.4951 11.6246 45.9712
12.4019 11.4458 44.3122
11.3635 12.194 44.7319
10.9011 12.0402 45.1081
13.3804 10.6148 42.9191
9.47324 10.259 43.6577
14.0008 11.7113 43.4545
11.5236 10.9791 45.9
10.3569 11.5637 42.7713
13.0425 11.739 45.9123
12.5821 10.486 41.4667
12.4813 11.1028 44.5673
12.6858 11.668 43.6392
10.188 11.3834 45.1246
12.7442 11.5464 44.2177
11.5841 11.1993 42.1672
11.3292 10.3048 41.0822
12.3046 11.7297 47.8443
12.7208 11.8934 43.8289
12.8239 11.3503 46.574
12.0389 12.5845 47.0211
13.7806 11.5494 46.798
12.4623 11.3883 40.5314
12.6578 10.6785 44.7243
11.9892 11.0002 46.5428
14.9545 12.9203 46.3808
10.9563 10.9034 46.7892
12.2105 11.6729 43.4149
12.8378 9.88034 42.6713
12.4759 11.8665 47.4057
13.0674 12.4472 44.2547
11.5258 11.4331 42.2301
9.32221 11.1365 45.1113
13.5083 10.7213 44.3294
13.7009 11.8677 46.8339
10.7502 11.1216 41.4728
12.6338 12.3282 50.0707
12.8132 12.136 45.4057
12.5273 10.9107 44.3508
11.1884 11.7669 42.5419
12.2267 11.29 49.5711
12.9629 11.7621 48.6643
9.03366 12.1791 44.4349
13.2178 11.6698 46.0093
12.3752 11.8572 41.5668
10.5602 10.4473 43.2298
13.2276 11.7507 42.6362
12.2062 11.1022 44.478
9.34451 10.8889 44.0755
11.1906 10.4276 39.7908
11.1175 12.4629 49.8848
12.0952 11.3431 43.747
9.54019 10.5778 40.7535
9.1066 11.1875 46.6474
13.119 10.8245 43.8833
11.627 10.8948 43.5997
11.903 13.7688 47.6172
11.9631 14.3065 86.0792
14.3989 17.0066 48.2312
12.5396 12.7063 45.9264
11.7511 12.2822 44.3752
10.2746 10.4456 43.6833
12.5758 10.4974 40.21
13.8876 10.6593 42.1169
12.6485 10.3143 39.5099
12.526 9.73216 40.4284
11.2222 10.0521 41.2967
13.8744 11.4966 41.7172
12.2973 11.3828 46.9437
14.0176 10.1039 38.9032
12.7086 10.364 43.2787
13.3648 10.633 43.1152
14.0549 11.0458 44.6635
13.3979 10.885 38.1455
12.1872 9.51283 40.9154
12.8466 11.1486 43.9838
12.5104 11.1874 45.5221
13.3768 11.1459 40.7968
10.4059 10.034 41.9502
12.3548 11.5193 44.6149
12.1065 10.5511 46.6398
10.4728 11.7494 40.8765
11.6253 10.5378 44.6765
13.1794 10.7689 40.9658
12.1663 10.2581 42.4032
11.4825 11.248 42.6462
10.9775 10.6326 42.0162
9.73351 10.2996 45.3758
12.251 11.7902 44.9272
12.0024 11.5246 42.4951
9.23757 12.3734 45.8804
11.5144 10.7329 45.1546
12.0431 10.4065 45.1224
11.8566 12.154 40.9061
11.6307 10.4182 45.0397
12.2676 12.8936 49.1982
10.9236 11.1185 44.4886
10.8711 10.3467 41.5282
10.5823 10.914 44.3337
12.3849 11.4797 42.8224
11.4382 11.4711 45.9852
11.6765 10.7612 42.4476
12.4763 11.1588 50.2299
13.7315 12.1184 45.1406
11.3285 11.0176 46.4885
13.4457 10.8888 39.3096
12.5864 11.2421 38.5057
12.7332 10.0108 47.6169
11.6213 10.6399 37.6095
13.0432 10.6038 47.8188
12.5538 11.4677 41.6141
11.6727 11.2804 46.0645
14.6341 10.5753 39.1611
12.335 10.0183 41.4976
12.5384 10.3626 41.8893
13.4673 10.4434 40.3663
11.8011 10.1759 39.5715
14.4935 10.336 48.3508
12.1633 12.4685 43.9974
12.7584 10.816 44.7247
11.6753 11.4967 44.4801
12.7184 10.913 50.2436
13.03 11.2224 41.923
12.3128 11.7643 46.2714
12.3593 10.9262 43.5054
11.5112 11.0993 43.5829
13.6341 9.69022 40.8208
12.3266 10.454 36.9932
10.6569 10.1673 44.6347
11.9803 11.4938 43.6531
11.2634 11.8387 48.0449
10.8988 11.1189 42.704
10.1699 10.8316 44.5478
9.90304 11.6159 46.343
10.1091 10.4888 40.2438
11.158 10.0604 40.2378
10.2807 10.6842 42.0491
11.2617 11.3056 45.8037
12.3043 10.7027 40.7479
10.5554 11.4166 48.6613
13.5403 11.2221 45.3662
13.3921 11.3823 45.803
12.3233 10.5799 43.73
12.4193 11.7939 49.6239
14.4853 11.9753 49.0267
13.2302 11.7654 39.5157
13.0173 10.7327 40.9693
14.4025 11.1946 41.838
14.0132 11.1015 51.7478
15.7162 11.5471 43.5134
14.8854 11.5362 45.5945
14.3254 12.8555 53.4352
18.5154 12.0033 48.2551
21.5799 15.5473 79.466
13.6891 0 0