# pn-170911/RbIIR-53-PTBB-1280-1959.psd
# Power spectrum* (dif=0,1,2) (really just |FT|^2)
# NOTE: only the first half! (symmetric)
# weeks: 1280-1959
# 4 clock-days, 0 excluded
# PSD: 1441
340.722 0.182408 0.0602617
44557.2 0.567967 0.00262586
145297 2.62615 0.00274216
29388.2 1.21422 0.00281453
59010.3 4.25385 0.00295384
4545.95 0.545276 0.00267192
1969.23 0.196579 0.00294709
1498.24 0.199547 0.00286465
1954.22 0.575058 0.00297678
1810.66 0.448737 0.00219361
1285.94 0.280025 0.0031309
1093.85 0.561088 0.00403152
1338.35 1.41668 0.00468981
1204.61 0.982468 0.00483798
711.129 0.606522 0.00453608
535.947 0.76696 0.00437224
1034.8 1.48629 0.00326325
326.568 0.518826 0.00167837
734.81 0.754001 0.00572385
203.656 0.303169 0.00360555
844.43 1.24924 0.00822643
824.115 1.60076 0.00647888
837.045 1.33375 0.00508082
300.205 1.10261 0.00730896
501.007 1.1052 0.00378057
560.14 1.66211 0.0118408
559.149 2.32002 0.0162235
782.896 2.71429 0.0104187
452.626 2.14724 0.011015
1056.24 2.93609 0.0209439
339.797 1.07627 0.00701731
1081.21 4.28254 0.0131924
542.67 2.15091 0.00948291
606.047 3.08667 0.0206036
948.617 4.91234 0.0302232
170.199 0.661701 0.00985742
491.269 2.88243 0.0277657
735.303 4.45132 0.0265271
861.541 5.16826 0.0432946
521.933 3.558 0.022297
788.201 5.72551 0.0544273
972.438 8.22122 0.0816108
545.455 4.32306 0.0400971
483.981 3.75764 0.0366583
412.972 3.70147 0.0491428
682.963 7.32155 0.0849133
409.923 4.88071 0.0458721
1047.36 12.2512 0.125152
481.585 6.13596 0.0609203
530.148 6.31014 0.0777062
140.154 2.73941 0.0368337
2025.36 22.3814 0.258726
1398.28 18.1164 0.235949
529.605 8.84376 0.121975
644.212 8.31914 0.122506
997.524 14.56 0.175076
518.502 8.52057 0.142394
1050.89 16.5103 0.255994
432.979 8.79632 0.138618
384.484 5.51202 0.0968883
415.431 7.83842 0.131712
842.919 13.2145 0.210985
297.929 4.89519 0.0890621
978.895 17.178 0.329179
672.055 14.7041 0.276256
635.767 13.1409 0.273777
817.286 16.6451 0.349857
595.786 15.042 0.291503
108.02 2.78985 0.0696448
331.728 7.75867 0.180371
440.954 11.4989 0.263358
378.397 8.01592 0.182283
620.904 13.8099 0.354894
285.672 6.66715 0.151706
534.257 12.1999 0.326746
408.34 11.9194 0.314224
160.977 3.75263 0.106475
491.462 13.9583 0.348089
562.941 18.0396 0.496213
327.561 9.37492 0.29421
228.71 6.76018 0.182163
273.886 11.4754 0.384923
291.155 6.20783 0.189066
212.034 5.83379 0.210383
291.071 9.39773 0.329922
143.888 3.44821 0.0991132
324.971 10.4981 0.397869
314.468 11.006 0.371325
443.093 16.8895 0.625808
598.525 24.6246 0.94238
512.673 20.6807 0.804903
457.34 14.071 0.519605
483.536 17.6202 0.748851
188.986 7.70991 0.334719
347.779 12.883 0.566893
450.151 20.38 0.914663
224.297 9.84846 0.437576
485.496 23.0843 1.04735
271.561 13.3556 0.612504
290.596 13.6427 0.672401
481.567 23.8985 1.19373
832.667 36.5911 1.69321
41.7205 2.07036 0.125805
518.742 24.5029 1.18619
221.506 13.0919 0.703968
117.98 6.54354 0.331254
397.24 20.4387 1.09138
453.718 26.2571 1.47003
268.84 13.773 0.811207
219.67 14.3319 0.937462
424.86 20.3224 1.11995
364.957 19.8908 1.10507
524.671 29.3662 1.65815
141.976 8.28948 0.494178
297.44 19.0898 1.11527
413.448 27.0556 1.68904
225.346 13.3506 0.842089
79.9309 5.0953 0.379519
163.8 10.4053 0.640825
422.736 28.2894 1.81088
280.397 20.2224 1.35698
405.108 29.9904 2.19813
119.658 7.46483 0.485866
295.421 20.4272 1.42284
160.746 11.9834 0.932997
191.25 14.0344 1.03655
181.797 12.7821 1.02257
76.8634 6.00858 0.394856
477.469 36.5585 2.83594
288.399 22.8199 1.78709
76.0563 6.68199 0.669287
264.024 19.0346 1.50243
242.087 17.3893 1.35744
633.203 50.3075 4.0171
159.722 14.577 1.40713
116.02 10.3219 0.846374
113.218 10.8629 1.05439
218.782 18.5328 1.64973
394.264 37.4003 3.35734
112.02 11.9322 1.30616
213.979 18.4774 1.58375
265.239 26.3724 2.38092
95.6023 8.89338 0.921218
214.485 18.5185 1.74149
59.6541 5.22697 0.504076
150.032 14.1396 1.51239
251.955 27.3806 3.0372
119.248 10.5345 1.12875
122.147 13.1478 1.4064
183.316 16.1459 1.66369
129.803 13.1377 1.47915
252.632 25.8469 2.59325
176.127 18.7859 2.23221
132.129 15.5628 1.68506
43.072 4.17093 0.3671
95.6891 9.19392 0.897589
149.141 19.3805 2.06726
197.926 22.0225 2.63493
240.282 29.7654 3.42649
126.366 14.8185 1.81831
257.336 32.2611 4.10727
118.981 12.7571 1.54778
140.521 15.6313 1.6629
288.832 35.615 4.5748
30.2901 4.3332 0.600071
138.143 15.4114 1.85526
73.0661 10.3189 1.3589
74.4802 9.23934 1.22297
149.564 17.7617 2.19229
48.2713 6.78322 1.09932
143.601 20.8546 2.72223
48.5712 8.51187 1.21094
75.7404 9.62058 1.24183
124.025 18.1059 2.68977
110.314 15.889 2.27949
127.695 16.3768 2.17659
71.9815 11.8776 1.8369
109.014 16.6761 2.62098
106.677 14.859 2.09253
58.4584 7.90741 1.16595
50.3693 6.93101 1.09063
66.2166 11.755 1.84003
255.129 39.0731 5.83497
117.144 21.0039 3.43607
166.427 29.0182 4.74046
142.711 19.8269 2.93632
161.43 29.2843 4.73885
130.355 23.7563 4.43897
111.269 21.2297 4.02673
102.897 15.3275 2.31279
88.4967 14.0709 1.9609
83.8676 15.601 2.57036
195.047 38.1153 7.12735
106.194 14.4189 2.36526
93.3829 14.1965 2.15627
87.7601 15.8855 3.19202
137.531 21.8617 3.65757
26.9329 4.6475 1.04382
105.08 21.8194 4.48195
164.825 27.6676 4.53584
85.0601 19.0258 3.88459
73.7048 11.7507 2.39437
73.9387 14.3879 2.49361
72.2124 14.8882 2.89929
59.5751 12.5928 2.41623
61.3067 12.1731 2.27719
69.016 13.0413 2.1762
126.499 28.9743 6.09331
109.68 24.2586 4.92818
56.0284 10.8387 2.23157
72.3053 13.5677 2.8038
121.235 24.8448 5.02596
140.761 30.9519 7.01553
206.082 39.5574 7.29883
21.1325 7.21914 2.00561
60.064 14.0956 3.14487
50.8521 9.67863 2.2045
113.914 22.2097 4.61119
48.315 7.96315 1.61373
154.212 35.1729 7.47297
139.634 36.72 10.2516
154.622 30.1977 5.85352
42.4717 9.78643 2.09471
96.9008 23.3132 5.25068
31.876 7.31983 1.67663
127.257 34.1364 9.02098
138.624 32.7641 7.12483
76.352 19.3272 4.75079
114.73 31.5339 8.39221
138.904 36.6513 9.21879
139.545 27.6807 5.86549
105.487 25.2542 5.98841
114.461 26.462 5.95215
56.7252 15.3403 3.70564
30.8423 10.2226 2.74976
46.5933 13.4629 3.75465
60.1817 20.8029 6.22517
74.4331 16.494 3.67555
60.6967 12.7773 3.00278
79.4335 24.3478 7.65585
68.5186 17.3603 3.99406
30.5533 6.45811 1.54776
78.4135 23.105 6.70795
97.7327 29.7758 8.50797
53.5784 14.7871 4.49651
93.0195 24.2222 6.39213
76.0235 18.4528 4.2092
58.2444 22.0936 7.62569
216.494 52.5319 13.6771
84.6672 25.2759 6.81194
97.6932 28.6889 8.5537
79.1798 25.5085 7.42617
95.9104 28.9418 8.90506
39.1182 13.7359 4.85685
101.365 27.56 7.78252
88.9379 22.227 5.7234
91.1388 30.6918 9.79918
79.2636 25.5303 9.10657
87.63 25.9888 7.41174
61.4183 25.8186 10.4818
84.5508 22.1896 6.43308
55.1116 12.9264 3.2951
34.0142 11.709 3.8628
57.5493 18.7495 6.34125
138.645 41.0222 11.9791
67.3331 21.0524 6.87198
101.182 28.3649 8.66061
20.8747 8.31103 3.96046
48.7551 18.4129 7.3123
104.066 29.6003 8.65652
51.7108 16.965 5.74317
59.5582 20.2832 7.22036
54.0518 17.1311 5.71495
107.421 32.3336 8.51771
88.9597 34.5869 12.5739
43.6436 14.2344 5.6248
59.8392 17.0212 4.98298
29.755 13.0331 4.87014
62.1067 26.6956 11.4407
84.5734 22.2183 6.11171
14.8685 7.49483 3.79669
115.187 37.683 12.7504
31.9078 12.2486 5.75024
69.9295 27.857 11.5514
106.889 34.2812 9.89036
40.6323 16.2595 6.50867
37.0587 19.4299 9.39991
45.2165 14.3018 5.75111
114.49 45.2346 17.0221
17.4156 4.97187 1.73844
29.7397 7.68579 2.39614
59.1567 24.5946 9.05191
37.7746 19.0331 8.84995
60.3003 17.8429 6.21107
90.3131 32.2757 11.8631
81.2525 34.8208 13.232
50.6586 24.4683 11.0966
47.6531 15.4822 5.46846
16.4231 4.83127 1.81151
34.0947 14.7833 6.83097
75.0681 28.2954 11.6312
98.4367 47.4287 22.4949
37.9867 9.48665 2.95948
74.1246 30.4026 12.7259
108.415 43.418 15.5097
38.7542 18.9304 8.76455
36.0669 13.8785 6.1159
110.543 51.5546 23.5826
69.5231 27.6139 12.1336
80.4243 31.3657 12.0092
25.7186 13.8729 8.35954
79.0479 26.4643 8.03304
45.7181 15.7458 5.28823
104.318 42.7815 15.8248
47.6861 25.0793 11.1006
37.6181 19.4762 10.0444
48.1747 25.5327 12.9431
37.6236 17.2364 7.21642
48.6551 23.7542 10.7519
42.0936 25.726 13.424
21.1877 13.0007 7.87082
73.9323 36.2369 17.3252
71.1994 30.5663 13.4572
35.9304 17.0281 8.68004
41.2439 24.0717 12.8064
57.1867 24.0742 11.1982
66.5458 32.5067 15.94
65.7048 37.5197 19.2693
52.8417 22.9879 9.71932
34.3626 13.0835 5.48618
67.1303 28.8344 11.2485
84.8125 47.9643 23.4044
45.6353 29.7133 17.3643
51.2819 20.6469 8.73047
41.0254 26.3912 15.8531
32.2828 22.1984 13.8032
40.2098 19.7951 10.5084
25.236 20.2389 15.7344
94.8993 36.463 13.5351
30.5378 15.2517 7.05006
47.0625 27.9876 14.7574
50.0451 24.9324 12.3393
67.9332 40.6845 22.945
64.0384 32.1796 17.4079
78.3492 41.8986 19.6652
25.4663 14.6881 7.45336
46.3581 30.8178 18.4154
26.2921 13.225 6.6353
38.7793 22.6249 13.1549
53.047 24.4379 10.8743
48.898 36.7734 22.6461
16.998 5.93802 3.89241
57.3999 30.8202 15.4268
40.1154 22.7477 13.9808
70.4117 39.6968 20.7551
22.2041 13.5101 10.1406
55.7856 29.514 16.3556
57.2862 28.1485 13.6142
59.0315 39.028 23.3573
13.4742 8.16891 4.86425
33.7448 31.3792 24.5532
57.1039 26.4028 12.3875
29.5099 18.5369 12.3389
30.7116 17.806 11.5379
26.2708 15.0695 9.64305
30.1077 20.8736 12.9499
37.6044 19.931 13.2104
70.1582 40.5358 21.5825
18.6954 14.4334 9.83658
44.2473 28.6532 20.2951
55.6735 30.7709 16.6547
13.8938 11.0726 9.85245
47.4034 21.183 7.42752
44.7269 36.0473 26.82
68.3207 39.2209 21.4032
45.6731 29.3808 17.2579
25.2526 16.1956 10.923
40.4922 27.4139 19.373
73.5955 50.2987 29.2307
26.8266 17.242 11.053
17.9605 18.0664 14.6684
26.8847 25.2823 20.2489
40.6484 33.5581 27.4207
45.5529 24.3189 19.0483
75.141 38.0974 18.1879
28.0731 17.8047 12.9827
45.8768 29.6702 19.2572
34.5845 23.6755 16.5773
30.6077 16.8574 10.523
11.0401 3.81076 2.98969
31.4055 16.7661 8.75302
32.9316 19.7283 12.5072
66.295 45.9899 32.9079
52.3573 35.6085 23.6443
68.7817 45.1853 27.4571
27.4301 26.3549 22.8076
58.7623 38.98 27.6414
44.9898 32.2434 24.0717
10.1532 3.20448 1.63259
36.3189 27.5565 19.0724
30.0002 17.9561 9.53548
40.5633 30.6433 21.5785
24.4183 20.7689 16.8985
49.2523 29.9724 16.6844
13.2685 15.1702 13.8109
16.013 8.81579 4.14615
26.6045 23.8906 18.0721
16.5889 10.1698 5.63864
8.95005 9.72286 9.46196
44.3427 34.3208 25.6404
46.2651 29.5393 19.3897
27.3374 28.5065 25.4602
21.2687 17.7621 15.5839
29.8515 19.4011 14.378
36.3056 31.2102 23.2812
41.1297 34.7163 28.8976
34.5284 20.7538 14.1399
19.6904 19.8404 19.4555
25.0442 18.7689 15.6598
61.2203 44.8897 29.8605
22.2481 24.5598 22.8488
46.6443 39.732 33.9771
48.3739 31.8007 19.2961
20.3272 13.9823 8.95271
7.98863 8.92186 8.28086
19.7257 17.9872 16.3172
39.6125 32.9679 27.1535
38.909 37.3345 34.7277
44.3681 29.3635 20.2945
44.5665 39.3933 32.5394
33.2608 22.6027 17.581
40.3709 33.1307 24.2537
27.5746 21.7613 17.9621
28.6352 27.5407 27.0981
25.8975 12.0466 4.93656
53.3922 50.0824 38.0914
25.4821 25.4815 24.1721
22.4896 19.5285 17.2579
20.1628 19.6063 16.6835
30.01 35.4069 38.4782
17.177 15.5299 20.3831
38.4161 27.312 22.2265
29.2293 27.8632 27.9367
40.2413 31.9201 23.1335
18.8628 21.7211 21.3472
10.1113 7.78704 9.94916
10.8725 5.75885 8.2017
35.8818 27.1633 19.2421
23.4678 26.3014 30.9019
34.8399 20.6019 14.3736
20.6703 26.2009 34.763
51.8966 29.1649 13.7465
28.5551 25.3472 18.9945
28.5239 22.5882 17.4847
8.73852 7.65997 9.32173
22.0555 14.7564 8.16946
30.853 30.4919 27.0428
53.0933 53.4494 44.8982
27.0723 25.8855 28.6937
52.6184 37.4265 23.8833
44.8747 49.7608 45.5345
9.98643 13.1193 21.2313
42.296 43.8456 41.4051
30.9703 25.6027 22.6882
43.8771 43.8516 39.6406
51.5479 54.7435 56.3748
52.6514 49.2459 47.3146
35.3693 42.9973 49.7794
41.0277 27.4596 19.8007
17.61 15.7657 17.4633
17.5415 16.6028 19.0199
29.8525 19.1789 10.064
25.9049 31.0948 34.0136
17.1039 19.7297 27.9954
52.0316 44.6193 35.8833
33.7833 27.701 18.3771
23.2547 30.4676 33.34
14.4731 11.7739 11.1684
37.8161 46.17 50.9118
40.2435 35.0764 36.5699
51.5608 48.6488 44.2217
10.4232 10.7986 16.6866
24.7205 22.6598 25.1608
56.5458 51.9146 42.1216
22.0905 22.6789 23.4811
28.0933 27.3984 24.9247
14.8503 15.9414 17.2333
23.527 25.4896 28.6306
28.681 34.1411 37.2852
37.2921 40.388 46.4307
33.3144 36.2827 42.3833
40.7327 29.5764 18.6281
14.7465 19.8988 21.5074
24.7746 31.7867 36.4894
50.8428 65.817 78.7016
26.7906 14.2284 12.9113
16.1898 13.9544 13.6596
13.2455 17.2401 25.3921
36.4968 34.6605 36.4159
36.5714 31.8549 27.4542
23.2183 35.9561 47.9483
43.2288 32.2837 25.1259
17.3967 23.4852 33.5108
41.3903 33.3032 25.6454
26.4498 31.2413 32.3633
34.2534 41.7412 48.5012
12.068 5.79135 3.54578
24.0407 31.1173 35.0844
31.4688 30.3138 29.0524
11.0602 11.2552 10.6193
12.1527 11.7514 8.59278
13.0349 21.4825 26.753
15.3481 21.0967 30.456
14.984 9.23032 8.78672
22.1605 32.2997 42.1956
28.8074 37.2611 52.6708
38.6727 25.3755 15.2057
10.0354 14.1601 20.3367
11.1907 9.60435 10.7101
16.1842 16.9409 25.0585
50.2785 50.272 43.4724
20.4904 30.1479 42.3643
36.4465 41.49 52.8273
59.8643 63.7723 65.9338
17.1882 20.7368 32.3207
54.8106 55.2718 52.4282
21.6775 25.2017 27.928
20.4893 27.5975 38.5121
45.1799 47.0328 43.5336
18.3154 17.9523 21.5157
49.5554 73.9985 88.6373
24.7684 22.584 27.1122
31.6358 38.4564 48.8137
50.2331 58.7808 62.8954
19.9639 27.129 35.3188
27.14 35.3377 50.9153
49.5335 57.2068 57.9052
13.0664 20.8281 34.8945
14.6168 21.5117 44.1548
33.5708 25.3655 23.9418
61.2718 79.9402 97.5045
22.5343 15.5111 8.97195
25.9955 36.7803 44.5161
34.3767 45.3028 56.4469
10.2314 14.114 22.8845
17.3629 16.8991 13.9767
12.1556 23.7236 39.0335
21.5882 30.7222 46.0968
22.3033 25.1516 32.8125
16.8533 18.1873 27.3133
27.5101 28.3515 24.0632
20.5042 29.6601 33.4676
18.0859 24.3425 30.9899
12.0397 22.0287 43.9273
57.2417 74.3205 88.7319
29.8959 28.145 27.0141
12.4845 17.8806 27.2303
19.0465 22.355 21.8128
4.10071 13.5753 32.4946
25.5799 24.759 23.0211
21.3816 38.7127 57.2926
17.1897 16.1923 18.8717
10.7933 12.6467 18.3629
20.1048 26.9243 36.6651
11.1908 16.3068 31.9398
32.499 30.6174 29.9271
25.2958 32.767 36.1077
13.578 14.928 14.1006
8.22305 16.3761 24.8036
11.0761 12.7157 18.9667
25.5349 47.0856 71.7771
24.1263 19.7614 19.4177
12.9092 17.0311 26.6163
17.0548 18.7819 20.0173
20.1524 29.9779 34.3244
14.0877 29.5589 50.2222
12.8837 24.0337 49.3938
26.5715 22.1043 16.3045
12.5066 21.019 35.1884
23.4672 24.0093 24.3256
4.47358 4.66457 7.62146
17.7256 24.607 29.0464
10.4299 18.5828 29.7525
13.7598 14.4069 17.0516
9.11492 10.2402 10.0211
4.89415 12.1005 22.9346
8.42181 10.5211 18.3367
15.5249 18.2572 17.7424
1.41529 5.3043 20.0204
31.3309 48.7136 63.5232
16.3152 22.4184 25.2021
11.8352 30.9504 62.0915
16.8829 13.4923 24.1839
26.6352 31.2483 32.1553
13.5641 22.0132 33.8258
27.2365 48.5033 81.7629
33.3471 34.7014 39.461
13.0073 15.6617 21.7833
31.7387 61.0189 89.97
18.3344 22.9636 38.6934
19.056 21.1732 22.9751
19.1727 41.1271 78.2164
17.4356 16.5814 21.2078
18.5867 27.2051 36.5985
11.7297 15.6828 22.5347
4.70466 10.1362 29.9932
21.4023 26.8944 35.9556
29.3557 41.5204 51.8488
22.3617 34.3724 54.8685
14.8473 17.806 27.9159
23.0539 35.2643 45.8493
6.40014 13.4869 30.149
16.6082 25.6318 41.2623
21.0814 28.8916 35.662
6.79181 8.50692 17.3755
25.1887 43.4659 62.8584
13.3465 19.8884 31.4902
18.1005 26.2019 30.2333
6.11735 15.7585 30.1901
12.1173 20.2589 31.654
5.57429 15.2893 41.6171
14.5783 16.3804 29.619
32.8667 47.2829 61.78
11.5934 18.2722 44.1155
23.5465 28.6063 24.6883
4.913 10.2595 25.3309
26.0948 46.6438 76.6552
12.7032 5.81054 2.44701
15.3362 23.6627 32.0227
20.1124 32.1391 35.2528
6.05367 22.6136 55.782
9.98439 6.81662 13.7156
15.9665 18.0052 12.3252
11.4064 27.7326 46.7437
7.7059 9.41592 14.3588
13.6316 21.5483 25.3063
7.35007 15.488 26.2519
6.36134 15.9128 34.0137
12.6941 21.5582 43.2598
20.0757 34.6703 54.92
11.3233 14.0067 21.8396
7.74512 15.4653 29.5141
7.53095 10.9695 17.0809
6.70419 16.7173 38.0375
9.29298 13.3229 32.647
15.2359 23.1459 40.7903
24.797 36.948 50.3732
22.5023 47.7695 89.299
28.0975 41.0486 48.1274
4.93084 20.8929 60.5265
14.7644 14.4578 27.5496
21.274 30.8015 39.941
9.70563 16.967 35.4399
15.262 20.9887 25.1345
3.31204 8.26031 24.4897
13.3151 26.2071 56.9864
41.1272 70.1962 102.798
12.4807 22.402 61.1899
19.2284 19.4754 16.5009
14.958 31.5543 47.055
15.3288 26.4883 38.6191
9.59042 19.2704 28.1729
4.23741 29.5516 103.774
35.9653 43.241 44.4802
3.80433 7.68888 28.6209
11.9094 15.6188 26.3176
12.6027 20.7355 34.0449
14.598 27.0604 43.1241
15.7906 28.8004 47.1089
20.2057 41.0078 79.4785
25.4785 45.7761 68.0018
5.3559 7.97614 26.9174
15.7694 26.4524 45.3733
7.149 3.82684 8.95861
13.3059 22.4832 42.1039
21.7656 31.3037 44.9446
22.9315 41.4469 56.9543
8.65799 18.4643 35.8561
9.91836 21.4891 36.6582
14.0969 31.1237 65.7659
17.9303 25.8829 36.3474
24.8091 59.5793 94.6846
6.22079 18.4607 69.1615
29.5847 37.8359 46.0745
10.5935 21.4433 51.1327
17.0438 20.9275 30.4788
25.2694 53.796 82.7735
12.1583 23.0587 35.191
3.55558 19.8262 61.0986
4.6725 5.26376 27.699
14.7989 23.6789 31.0314
7.67444 28.351 77.2458
14.9143 18.0612 26.6346
6.12692 10.5976 28.2544
12.7076 27.0917 74.4894
21.1901 24.0219 28.8533
11.7349 14.5053 8.8765
7.02787 14.8866 17.6089
12.9988 31.8531 55.006
5.27621 14.2129 32.5232
3.64627 8.20838 37.0293
17.3739 29.9261 47.3132
17.0591 38.1875 54.1363
8.6258 25.8013 75.0335
19.7834 32.9406 56.1125
17.7238 33.533 53.796
13.0316 28.6448 50.9932
4.43767 11.933 38.607
10.3623 18.1662 55.4123
24.2086 38.1395 50.3428
7.19458 13.888 26.6112
10.5492 19.4989 38.2246
7.82949 14.0736 29.718
10.2081 21.6883 35.2121
6.6556 12.2727 24.5672
5.52353 9.59737 11.1567
2.04299 7.62899 27.9864
11.6394 24.8491 41.565
11.9358 38.6728 103.518
19.5284 20.3745 27.2458
6.2157 9.80489 18.1678
8.9215 33.0748 103.889
23.927 26.8808 32.4752
11.7717 19.1943 36.1505
24.0507 56.4101 97.9831
12.4133 19.8814 35.763
16.5707 41.4611 90.3712
16.2182 25.3333 39.2607
13.4575 27.8289 40.6804
4.01845 12.2745 39.6629
14.5755 33.7439 71.8298
17.4447 36.3162 63.0259
10.5138 25.4219 59.8828
11.2672 27.3475 83.6991
25.8297 43.5404 48.8468
4.70573 20.2317 73.1475
24.1882 49.5501 98.6202
15.4144 24.7193 31.8224
7.31924 16.7498 32.617
5.64957 14.5853 34.9829
9.45563 20.1657 36.8167
3.15328 5.71 16.2987
11.6993 37.4659 96.2913
17.9371 32.4105 51.8149
11.5496 35.307 84.1865
10.877 19.0724 51.7017
14.6767 30.4671 73.4073
14.8364 23.6072 44.7405
8.31264 12.2651 15.3443
2.98344 9.58921 22.8368
6.48816 20.6563 54.1691
6.69148 11.3923 44.0624
18.5938 32.2692 38.7831
4.11307 7.82046 21.0349
7.6988 17.7617 36.2303
8.51792 16.3689 33.2228
9.127 22.762 49.4499
9.75684 22.0676 60.8411
11.7916 16.967 31.6203
10.2246 21.9822 34.5863
5.65808 11.0782 23.167
10.1349 28.1442 60.0974
14.4444 34.8251 84.9583
24.4125 53.9577 77.9891
4.38487 10.6227 27.9445
5.86157 20.5501 63.0383
15.8438 33.8392 57.8289
4.01247 15.1216 66.6209
19.7562 26.1962 30.3458
7.03517 17.7839 32.9188
2.0675 4.07547 8.11633
1.67452 12.4595 49.3451
9.63719 14.2369 26.5959
5.25819 12.8646 40.5468
8.51376 14.002 19.4303
5.63531 23.824 76.3708
13.5943 28.4308 51.8106
9.09001 24.6834 50.1814
7.40358 16.3698 41.5645
2.77016 4.17127 31.8359
15.8429 34.6599 49.6906
2.09733 13.1107 51.7689
5.8832 8.99552 33.31
5.23198 10.9368 33.6116
4.47833 4.22993 29.1831
17.8733 38.5303 62.2797
9.57885 26.6223 55.293
6.70433 11.2677 26.0546
4.90935 10.7705 28.8811
5.15654 7.56489 15.4855
4.18928 6.64505 13.1498
3.89952 13.994 43.3765
9.96611 20.8832 49.0956
8.75137 15.8896 24.324
5.00682 19.4041 66.6002
10.4142 14.3784 32.3484
9.32359 19.1305 42.9361
10.6046 22.8071 36.0979
4.21264 8.43436 24.104
8.68248 19.9908 22.9361
1.49587 7.19256 28.9798
10.9364 27.3966 47.0532
3.98429 13.3069 50.676
9.00112 17.1833 36.9837
5.26439 15.2143 38.1487
6.63374 10.0556 19.5176
6.31604 24.4505 87.1368
21.3047 49.2146 89.7314
7.10758 8.31081 13.575
6.62561 23.0989 61.1487
12.0578 28.4412 62.4415
5.91193 10.2472 27.0805
5.81062 8.85472 12.1645
3.9532 14.8258 46.4657
12.7573 31.2581 55.0682
2.17727 6.38672 37.9167
9.52854 15.6333 26.4612
6.79456 21.4098 50.3664
10.7713 34.5695 88.9456
10.2029 25.7197 72.9408
10.9427 23.1937 67.2357
14.2482 27.0841 63.8247
14.3783 34.3398 50.4139
5.24164 21.919 66.1983
6.62286 14.0239 42.5365
12.6053 36.3921 79.0146
7.89958 17.8086 38.8263
3.13038 5.25802 13.1561
1.51982 5.62263 22.6928
2.30293 9.85404 56.2015
12.2567 27.4714 51.748
6.17867 15.3683 52.41
10.3179 20.8375 49.3799
7.29908 22.3887 62.6085
8.45645 17.2073 52.8555
14.1624 26.7246 29.6512
3.18788 16.7466 53.67
6.46882 9.3945 22.9135
4.09596 14.3225 58.9347
11.6395 25.108 73.3969
13.3735 21.1824 16.855
7.12422 24.8868 54.7163
6.21384 14.7508 27.1
6.39832 27.0749 63.3409
6.1197 15.472 35.5789
5.45843 20.8357 79.5427
14.5642 37.529 83.3276
11.5874 26.5824 56.7487
2.55487 8.42431 42.8439
4.52628 7.5407 29.5911
6.32584 18.061 56.0321
10.9917 24.9395 39.8195
4.42334 14.7745 62.8514
11.3032 31.5011 76.2422
7.8038 13.4358 24.0575
4.06741 14.4338 32.2963
2.65654 6.24043 30.911
7.46136 19.6409 44.772
7.40127 21.5173 46.9095
3.80258 9.71955 40.9741
11.4 34.185 76.4938
5.90124 11.2884 51.2964
6.28905 6.24363 23.2635
10.6555 26.2952 45.2898
4.92543 13.2134 32.1515
5.96363 21.1539 70.9145
8.20653 11.607 23.2644
7.47481 19.2231 39.7741
7.20003 18.2028 23.0457
1.55422 7.93438 20.8224
2.23025 5.81029 17.4569
3.74356 13.434 42.6854
8.83869 22.0425 44.3397
3.27523 10.8976 33.2136
4.60323 13.781 38.9465
3.14986 6.39006 22.5735
2.3851 5.04434 27.5006
8.0003 27.2901 62.2847
6.16762 18.5607 75.0304
13.471 28.2809 39.7752
4.16377 27.4568 136.126
30.5174 70.7966 124.543
6.29327 12.01 28.3055
6.10526 23.5882 48.8902
2.2722 7.18941 33.0381
4.85725 11.8637 32.3246
4.47952 13.2 61.854
12.5694 23.1743 23.7238
2.91632 16.8405 73.7293
11.0651 28.0363 61.995
6.34526 16.3694 34.2092
3.13019 10.9832 25.4611
2.11847 6.9874 22.7902
5.18591 27.566 98.3912
13.2661 24.9391 60.145
6.45602 17.6469 45.6121
4.09146 8.95909 30.7805
4.33028 7.90089 24.3485
8.11535 24.6336 32.9984
1.20024 9.24154 33.2852
4.22441 10.6713 35.1649
8.24001 29.8961 81.2577
10.0179 32.1574 70.7613
3.285 15.8462 64.422
4.77865 8.48354 43.519
6.16747 12.0235 44.3785
8.39946 26.1768 95.6485
12.2345 17.5593 27.5296
7.56092 29.3658 88.9655
10.1673 20.7041 51.3848
8.39242 25.1406 60.2818
4.57435 5.68052 9.66099
1.56087 3.14215 15.2296
4.01935 9.0568 25.1876
10.7137 35.9321 62.3049
5.87517 38.738 148.336
10.9719 16.4993 22.7514
1.52639 12.5539 70.8545
8.56578 19.4633 84.2646
13.2548 29.8823 54.1503
3.31782 3.771 25.6157
8.67699 30.7245 81.6123
9.71484 23.1583 57.5358
8.378 17.8817 25.5163
1.93085 4.84253 9.29051
3.32048 16.292 41.6641
4.7968 22.7696 92.6713
11.3052 25.8769 52.9303
3.25135 10.203 41.5937
3.79934 8.55505 37.4586
6.63882 17.2131 33.8038
5.04749 16.8666 27.8627
4.17193 31.3984 124.857
10.0535 13.1574 40.8013
4.7486 11.8434 35.8539
5.71199 9.72688 22.5555
8.38558 47.1572 148.38
14.216 26.2755 54.4437
5.6902 17.2601 57.7889
4.58811 14.7218 59.4971
9.5012 22.8311 44.4306
3.59268 14.264 53.8935
6.62336 23.9164 79.1448
7.60203 22.2139 107.97
14.2955 23.3954 23.0323
3.95781 18.3404 37.887
2.6302 10.7388 48.6559
5.70859 10.04 34.1291
9.5039 36.588 78.5963
2.58749 2.499 11.0139
0.695966 3.60157 52.1976
10.3407 27.8294 42.9472
4.13375 18.4008 57.5111
7.91181 26.702 62.4728
3.79369 15.8755 69.3937
6.23881 12.1283 53.8869
7.58777 16.988 38.2996
5.04149 19.1247 68.1745
6.85444 12.4076 37.5482
5.09778 10.2576 21.1502
6.7401 26.3913 50.2295
2.08518 14.6717 66.7886
4.73015 8.59231 37.396
3.98979 7.34391 12.661
2.25601 12.4834 34.5818
2.6885 18.8693 93.8247
8.39093 13.19 26.5887
3.2775 7.3901 19.2358
2.64326 8.05475 16.6916
1.54761 11.4208 73.9196
7.60635 19.8217 64.8381
6.31472 8.61855 33.2762
5.83645 13.4905 49.0355
7.578 21.9042 31.9459
2.65683 9.6613 33.3413
3.1189 3.56916 14.3175
5.0258 22.5888 75.2698
7.32174 13.4264 7.44735
1.89844 12.0209 37.0488
6.09987 26.5224 57.3327
2.09414 3.79152 16.0135
2.53357 16.4988 65.051
6.34527 18.9702 68.6443
6.78972 15.5431 23.6898
1.66841 10.1614 51.971
5.59693 18.2421 37.1918
2.50871 13.8961 103.04
11.8677 24.3007 46.5281
4.49812 12.3566 28.6068
3.36013 10.1203 16.4101
2.59865 17.1781 65.8923
5.97465 21.1641 67.8117
6.66062 11.3121 20.6974
3.56571 20.5679 60.4342
4.23087 11.0682 43.7509
4.61356 18.502 94.3353
10.0528 21.1443 41.7821
4.51514 13.2177 40.6842
5.79512 18.9507 45.5173
4.26962 15.4912 59.3274
5.85589 13.3268 35.858
4.22267 18.1144 69.769
7.95061 18.999 32.9239
2.56399 13.1741 54.0616
5.24484 20.3457 67.6504
4.39109 9.76472 37.0653
5.16174 15.2856 44.513
3.64224 8.19614 25.1038
2.78809 8.27063 26.3519
4.00352 22.8872 104.587
10.1831 24.7412 39.4972
4.02162 19.0994 48.4259
2.91827 9.40409 39.2144
2.58876 1.00619 14.9493
4.7089 21.8498 59.3018
5.62332 22.3648 71.4255
3.0183 5.16745 44.7139
4.63739 13.874 73.3405
7.98623 12.8502 41.0084
7.59644 24.3883 51.4298
3.05665 8.19642 38.2774
6.64468 25.6546 51.1706
2.33201 11.5028 60.9205
5.49227 12.9022 40.3424
5.34161 17.1438 50.5648
3.61257 7.98906 25.838
4.24488 19.2437 74.832
10.2696 32.8129 51.1348
2.49813 13.1638 34.3759
2.54761 19.3571 99.2064
7.66539 12.4056 24.9964
1.50699 3.42176 30.5518
4.45987 13.2095 51.2066
6.34406 19.315 35.4023
3.11407 12.7646 56.2008
6.53199 23.2803 49.3024
3.55929 14.1697 36.7429
3.06925 15.6075 76.4713
6.62246 16.1323 21.6345
0.840354 8.73763 52.5152
3.33248 5.64272 34.8264
4.87953 19.458 45.6485
3.73246 11.5608 29.8589
2.49043 17.729 68.0313
5.51913 15.9017 48.2278
2.61494 3.70051 33.7204
5.28375 24.184 80.8982
6.37136 16.2542 37.04
3.07006 8.86536 21.5697
1.36606 6.71319 51.4042
4.0682 12.1933 61.7007
5.91485 12.5617 29.9397
3.10363 5.95436 30.5774
4.28353 11.7937 23.976
2.64697 11.352 23.5015
3.32269 18.8115 52.2206
3.04382 9.50357 25.3273
2.28443 8.99354 21.1704
0.987612 4.94772 17.2397
1.95849 14.0022 67.6058
5.32592 21.0098 83.7986
8.01127 18.0673 46.8663
4.07852 10.5311 38.8885
3.48878 9.73447 39.0286
4.75132 18.9086 49.7021
3.56187 15.221 40.8439
2.85842 10.2736 44.0759
3.09724 7.62545 31.8403
3.67216 13.903 46.9409
4.21288 16.0121 53.9013
4.16016 12.4606 87.0985
9.83122 24.8583 41.2341
1.75684 7.2168 56.7342
6.35015 13.6325 29.875
3.17956 13.3285 55.5587
5.68082 21.0753 76.5508
6.70707 24.6006 68.3582
5.54014 20.4414 49.0047
3.28192 20.735 106.887
9.6527 18.6192 26.5389
1.99162 10.8089 30.5037
2.26432 10.0229 42.4396
3.74438 10.9407 23.9133
1.78901 10.5442 49.4841
4.53435 12.8109 54.6975
4.67746 11.9954 36.0507
4.29702 14.0304 48.9375
4.03236 16.3597 45.8341
3.39923 12.0664 45.7302
3.7757 4.82871 13.3035
1.64555 9.40993 59.1981
6.66859 22.3204 60.8297
5.11292 17.0842 41.9034
2.27237 4.50589 13.4801
1.71169 7.93688 23.5451
2.56364 13.6321 55.2599
4.86211 22.7525 55.0998
2.6179 8.37609 55.959
4.91459 22.3698 78.1555
5.61401 9.64656 39.1878
4.63387 19.0762 58.1917
5.39684 26.0097 95.4659
5.40309 6.85385 20.3556
1.49544 6.95879 37.4598
3.32112 13.878 76.9532
7.27728 15.7987 58.2382
6.57546 22.8967 41.446
2.07153 8.21152 46.5696
3.38058 14.5931 49.4817
2.97225 5.4726 35.727
3.07253 6.91022 21.8693
2.41583 6.67654 63.0098
8.04241 28.2553 26.8288
1.46662 16.1507 81.0043
6.56726 27.7944 103.404
7.94182 10.3464 11.2227
1.1543 3.3633 10.7329
1.28659 6.38877 33.923
5.2193 38.0584 179.462
12.6862 29.6097 72.3576
4.24269 7.30504 39.6259
4.9649 15.1107 32.181
3.56107 23.0341 63.2826
2.96308 8.15671 61.4837
6.64647 30.0861 47.8898
1.60016 6.78374 69.6713
6.53099 13.5175 37.2206
4.46778 18.0269 37.7341
3.45208 18.1395 46.0555
2.27962 7.6212 45.9283
4.46555 16.6391 20.5817
0.535925 8.74882 69.0729
5.0567 14.2338 12.514
1.0101 20.8 74.2936
4.06486 11.1327 66.5341
5.51245 13.9987 44.9558
2.50762 6.17773 27.3444
2.40336 10.5112 47.1674
3.02837 8.78725 60.8721
5.0457 10.2252 23.3646
3.0771 19.8225 79.0582
5.51959 16.0759 82.6073
7.11993 25.8375 65.4303
4.73819 11.2226 20.8043
1.0771 5.5278 39.9904
3.41964 7.58666 23.9568
1.85222 3.98108 14.8851
1.92041 14.0398 47.9173
3.39484 11.5893 34.8255
3.49973 16.5246 52.2837
2.68848 8.0682 65.6354
5.07241 15.2706 40.2999
3.08604 12.6278 34.5996
1.98378 14.0414 94.9323
7.09535 16.1071 55.0253
4.59305 10.6454 37.4055
3.69805 9.91831 19.2085
1.52738 8.50877 39.9726
2.34111 7.75788 25.8171
1.99803 6.58218 46.7177
4.55457 14.4873 39.1835
3.43381 13.0314 34.0869
3.23206 13.8247 62.5924
5.12407 18.7094 47.8523
2.38138 3.37287 4.72957
0.499173 3.62158 25.9311
2.35072 10.5625 32.9873
2.46456 12.7824 25.96
1.46031 10.7659 72.0629
5.0908 10.4512 17.3359
1.26469 6.5032 34.3446
3.28986 10.5239 21.0606
1.28651 9.99315 49.1388
3.62333 9.56156 21.4297
2.0824 17.1722 49.1063
2.97609 11.5285 61.5654
4.24661 6.88806 49.1678
4.64487 11.9582 30.719
2.05463 6.13087 21.7983
2.67527 20.4226 63.7658
4.56208 22.1348 81.719
4.49326 3.81068 60.1385
6.28344 19.6674 60.337
4.02461 16.661 62.9557
5.19792 12.1678 35.1796
3.06845 7.7566 25.1779
2.06285 19.2606 69.8951
4.13143 1.75968 34.2603
3.82757 14.3777 50.5238
3.70539 11.2188 64.1355
6.12531 24.0957 72.4969
5.44204 13.0745 38.5543
2.65991 11.0063 34.7826
2.71022 7.30329 59.6002
5.72827 10.1849 11.541
1.44449 6.68127 29.051
3.38957 19.0873 60.3352
4.55698 19.9641 52.9217
2.61893 12.5823 49.2602
2.41356 11.3294 54.7686
3.05571 5.04121 47.7675
4.62118 18.6831 54.5301
3.54664 12.8495 69.983
4.43299 5.08083 19.1969
2.34393 9.33723 42.3646
3.63877 13.7497 48.5911
3.39144 16.2246 40.2491
2.10449 3.48097 24.6994
2.30511 10.2868 41.258
3.25527 13.819 57.9539
4.21332 13.8566 58.7938
3.64661 8.2628 58.9295
5.14644 14.9173 41.8699
3.17284 8.4627 12.9941
1.38048 3.8481 22.724
2.66539 15.6344 53.229
3.93724 15.3139 47.629
3.17818 20.3774 94.2502
7.21818 13.6215 44.5324
2.93595 9.03307 19.1424
1.60696 4.54068 29.0174
3.299 13.7733 30.4274
2.75124 16.0642 41.6732
1.87601 5.53305 40.7233
3.89755 13.4223 37.7364
2.6551 10.8838 62.6589
4.96745 19.9776 41.5302
2.1872 6.14431 36.4022
3.61806 20.6205 65.7932
3.33662 4.46751 17.5184
1.74261 9.41908 19.5822
0.96419 7.89043 68.928
5.1618 15.6205 25.0691
1.11332 4.10528 33.9686
2.38969 13.044 43.0606
2.54987 9.63856 45.8558
2.76571 1.52832 62.0745
5.76616 18.1439 39.7142
3.25682 16.8242 38.3709
2.07081 7.54556 42.8197
3.20817 7.80388 31.8571
2.17235 4.45073 49.5619
4.58747 15.9727 28.0283
2.78024 21.2236 48.0461
2.54409 12.2358 45.6431
2.68859 15.6842 70.4322
4.1084 8.78182 78.8405
5.49476 15.0623 48.0559
4.10321 15.5938 8.67078
0.120241 7.19986 45.8387
2.69896 13.2792 62.0961
3.55055 9.26699 86.8843
6.68267 28.6297 63.4156
4.32916 20.4694 55.098
4.00487 34.6876 134.773
8.12895 13.6165 24.1654
1.80592 10.0964 33.894
2.76152 14.1722 67.896
4.6525 23.7317 71.539
3.99791 7.28002 59.3672
5.23012 25.7016 106.437
7.02648 19.877 39.8502
2.55744 13.0474 50.7844
2.65757 5.06409 31.3194
2.03919 4.86956 34.9389
3.19893 26.3272 94.0186
5.94608 15.8291 30.4553
1.68947 6.61092 39.9913
2.26654 4.29322 26.1726
2.15854 20.5412 115.382
7.47441 12.8759 18.7379
1.34473 8.73726 51.2863
3.98648 16.6115 65.7769
4.44972 6.12337 12.8676
1.28547 10.0893 57.0923
4.33568 5.25009 53.1709
4.84533 30.4853 122.251
8.96568 21.6848 18.9782
0.926717 3.29096 14.069
1.46281 7.90963 49.71
3.52971 12.0219 20.4742
1.30848 5.76419 22.42
2.31255 13.3088 42.2959
2.82542 8.44478 18.6192
1.61237 15.6167 61.4484
3.83366 20.7605 46.5896
2.8794 5.58964 9.17604
0.684973 9.14502 15.156
0.915823 13.1472 50.7935
2.01758 5.86636 37.0206
2.35739 8.04584 60.8892
3.57397 5.22376 79.9518
5.39166 16.8293 54.3005
3.54508 8.68399 25.3394
2.2625 10.3709 28.7232
1.73556 12.2012 70.5528
4.79862 17.367 29.2038
1.74801 7.47817 32.8939
2.14747 6.15982 18.2494
1.23095 6.08116 24.8726
1.60616 14.0192 60.5768
3.63833 7.80656 28.7385
1.52083 4.16639 23.0462
1.83324 8.95912 28.5218
1.65538 3.90734 12.1439
0.769716 10.1497 43.5459
2.18402 2.24076 32.7939
2.02801 10.7488 24.4994
1.36596 11.4377 66.1744
4.2452 4.95274 21.8301
1.924 5.6054 27.6587
1.97714 12.5631 49.9463
2.82535 16.3566 64.9538
4.48937 6.39019 20.454
1.82611 5.51081 45.572
3.0952 17.1327 66.5462
4.7273 20.232 64.5233
4.24609 11.2372 29.0921
1.54093 4.31957 45.9602
3.64266 13.3691 35.1803
1.62801 4.65899 31.8482
2.30203 7.33057 75.4079
5.02089 14.3968 42.7801
3.59339 13.2519 45.2447
2.66767 11.1346 20.5651
0.962272 7.59612 15.6542
0.863903 5.68539 38.7372
2.18852 5.98321 71.5196
4.88248 13.0396 39.4624
2.60202 4.92366 8.54624
0.78024 7.15091 60.186
3.80859 14.9442 50.3954
3.78652 15.6154 42.4482
2.89974 23.3282 64.7034
4.04042 9.79472 45.01
3.1742 11.1424 49.7932
3.32909 4.42981 25.7454
2.01276 11.9663 41.46
2.52786 8.89562 25.1031
1.44814 7.8696 28.7522
1.93234 4.91327 9.45968
0.671621 4.88237 17.9858
1.08135 8.62411 27.0731
1.66425 4.9097 26.5523
1.55481 12.4157 27.1767
2.03497 8.35023 31.837
2.21394 4.85307 13.5074
1.07378 5.61408 37.5149
2.70646 19.6102 106.324
7.43462 15.2824 25.8068
1.8701 14.0879 48.4647
2.93388 15.0986 76.5532
4.65671 16.4911 84.9992
5.68366 11.773 40.518
2.93422 20.6431 56.9265
3.35913 7.60217 84.0092
5.1635 11.4114 43.083
2.54327 16.0378 40.4487
2.50486 9.41187 50.4045
3.40045 15.3023 33.9169
1.97224 10.4613 62.3379
4.15313 22.6594 108.9
7.33258 21.0673 43.3255
2.38447 10.4093 44.4393
3.04967 6.15964 30.6014
2.39359 7.96297 51.8103
3.50199 12.7989 48.9414
3.43288 5.3608 27.2968
2.15069 15.4381 46.773
2.78019 6.56483 52.6629
3.44818 15.5831 42.0862
3.16096 7.97253 36.8028
2.64021 16.4825 66.5064
4.1087 9.71576 50.9507
3.59383 11.1543 13.4271
0.83404 4.46376 27.0324
1.92045 8.90846 51.7633
3.53758 10.6276 27.1177
2.24883 6.15838 12.1102
0.625475 6.5772 35.0592
2.67777 11.4861 55.0573
3.53064 12.8845 14.4668
0.919281 9.86199 50.8829
3.51951 8.54427 40.8869
2.52304 10.9103 25.5241
1.87998 7.53789 11.7714
0.937836 12.7117 59.1398
3.44409 4.40662 39.3406
2.475 7.5388 23.5467
1.3549 16.9283 38.1293
2.40254 3.58432 30.5721
2.40447 3.12541 41.1805
3.35681 13.5164 17.6202
0.884336 7.08281 42.8397
2.77579 6.96151 17.6335
1.26347 4.84858 33.3028
2.44977 22.3659 78.4654
4.85189 10.4837 27.4831
1.73717 21.2032 59.5532
3.3013 3.80819 41.45
2.47764 17.9747 48.452
3.2241 15.0243 40.0162
2.46451 6.38601 33.5453
1.82889 4.6893 39.031
2.31544 2.49499 28.634
1.87125 10.1164 26.2501
1.4948 3.9186 33.5393
2.3145 8.37239 18.5727
1.59064 5.96447 19.3713
1.48696 5.78173 18.5073
1.0347 6.8618 13.1144
0.889358 6.12964 26.9728
1.67998 6.54072 29.4879
1.69801 7.93814 59.7431
3.58412 14.1555 43.2989
2.53648 9.04306 34.1613
2.31966 3.59064 29.2934
2.1023 6.61647 17.6822
1.00156 11.7334 14.7168
0.796375 7.09251 45.7222
2.49893 10.8925 40.0303
2.40287 14.3068 67.0586
4.13263 3.47189 14.8488
1.04523 13.964 62.6224
3.48 11.7501 76.45
5.07725 12.2849 39.3468
2.15306 8.20505 23.8371
1.74181 11.1322 43.4062
2.44402 12.6262 45.1358
2.65385 13.5833 40.7479
2.44007 3.0778 30.0362
1.85452 16.3618 93.7262
5.52718 21.3375 32.3332
2.45989 8.95535 47.7261
3.22305 7.64441 43.7285
2.83909 9.36506 36.9773
2.29878 5.52284 10.4105
0.801548 4.16208 51.4981
3.09176 9.96279 13.8108
1.0018 8.24065 44.7137
3.45866 0 0