# pn-170911/RbIIR-57-RbIIR-1280-1959.psd
# Power spectrum* (dif=0,1,2) (really just |FT|^2)
# NOTE: only the first half! (symmetric)
# weeks: 1280-1959
# 3308 clock-days, 167 excluded
# PSD: 1441
1051.06 0.110156 0.048622
43907 0.960385 0.0524144
202085 4.02628 0.054931
36029.8 1.26666 0.0515582
61414.2 4.57897 0.0566982
12408.4 1.15406 0.0551035
9805.42 1.34029 0.0546582
6041.7 1.12117 0.0529172
6042.15 1.50654 0.0509576
3772.67 1.11967 0.0554538
3221.33 1.22041 0.0537915
2568.43 1.16822 0.0523737
2439.29 1.32884 0.0545128
2000.6 1.25481 0.0563324
1773.49 1.33904 0.0545266
1477.14 1.27763 0.0576141
1422.41 1.39374 0.053745
1259.58 1.40866 0.0550987
1119.17 1.43268 0.0572658
1045.24 1.46465 0.0562554
1019.48 1.60304 0.0550868
916.351 1.64551 0.0561435
858.39 1.65478 0.0599861
811.364 1.71505 0.0592121
766.829 1.80429 0.0585673
729.189 1.79407 0.0592899
694.746 1.91996 0.0615369
668.6 1.99836 0.0590822
628.074 2.05082 0.0630909
602.226 2.10403 0.0613596
599.488 2.26088 0.0660456
567.972 2.2381 0.0669019
553.521 2.37283 0.0655395
543.402 2.48442 0.0645355
530.051 2.57103 0.0697178
524.306 2.74464 0.070558
510.534 2.81959 0.072052
486.102 2.80632 0.0710661
481.833 3.02427 0.0737344
489.423 3.17106 0.0768402
457.282 3.17981 0.0778503
470.532 3.45003 0.08111
451.544 3.49622 0.0828987
455.984 3.64096 0.0858502
439.512 3.72439 0.0841087
427.319 3.78874 0.0894631
405.109 3.78014 0.0925641
423.474 4.09407 0.0960984
422.935 4.32637 0.104243
401.674 4.24297 0.10231
401.441 4.4022 0.104467
389.737 4.49015 0.104664
391.327 4.67724 0.115301
396.989 4.92046 0.121805
389.088 5.04528 0.123779
377.38 5.19648 0.132
370.613 5.16237 0.132042
363.616 5.23233 0.136133
379.59 5.78917 0.14787
374.435 5.87434 0.151669
358.136 5.78962 0.151219
359.346 6.06457 0.165159
374.048 6.51153 0.174305
342.715 6.07885 0.171459
360.602 6.68075 0.186414
353.761 6.7998 0.196861
346.948 6.85032 0.200405
351.689 7.17876 0.208696
345.881 7.20198 0.218167
353.999 7.60939 0.233199
336.372 7.48677 0.231617
330.103 7.65368 0.239671
322.468 7.75218 0.246737
324.917 7.8173 0.251907
334.091 8.41739 0.274552
316.042 8.16503 0.271673
334.366 8.87444 0.300878
310.903 8.33247 0.289517
327.602 9.07886 0.315963
312.092 8.91117 0.324084
312.74 9.19687 0.335934
318.297 9.56776 0.354549
315.38 9.65791 0.366296
310.952 9.8163 0.380815
300.465 9.68212 0.379258
297.717 9.91994 0.398337
305.338 10.4249 0.424222
299.886 10.4094 0.42383
285.838 10.1402 0.427923
304.046 11.0186 0.471839
291.497 10.8326 0.466034
287.156 10.9691 0.478878
280.812 10.9748 0.500363
269.441 10.7155 0.495584
271.971 11.0885 0.515823
279.17 11.6516 0.546324
324.814 13.9055 0.651277
279.188 11.9927 0.58622
276.155 12.2056 0.607393
261.968 11.8856 0.60688
274.085 12.6342 0.645801
273.47 12.8994 0.670768
276.916 13.261 0.716609
274.499 13.4404 0.736879
267.074 13.299 0.740363
275.951 14.0315 0.78581
253.263 13.1547 0.755181
257.016 13.504 0.782617
253.039 13.5938 0.803186
261.165 14.3825 0.869076
257.176 14.3932 0.870204
251.839 14.308 0.89091
252.584 14.6898 0.914191
254.226 15.0774 0.9625
262.972 15.8906 1.03201
257.863 15.8413 1.05653
251.287 15.6367 1.04389
242.039 15.3838 1.04393
246.754 15.9259 1.10995
235.823 15.4817 1.08047
247.774 16.4538 1.17894
242.987 16.5826 1.19872
243.025 16.7142 1.22642
239.275 16.8695 1.25915
240.123 17.1614 1.29434
233.495 17.0215 1.30373
243.238 17.8448 1.38902
231.175 17.201 1.34623
231.431 17.3708 1.39597
234.889 18.2109 1.48645
222.821 17.5367 1.44877
230.473 18.5688 1.57992
228.085 18.3924 1.56061
226.001 18.4496 1.58228
226.564 18.8263 1.63549
225.765 19.0454 1.70359
222.128 18.9415 1.71502
214.888 18.7565 1.70568
223.592 19.7305 1.83066
214.573 19.1892 1.80762
223.18 20.2549 1.91979
211.402 19.4863 1.87904
214.21 20.0452 1.96561
221.602 21.2115 2.11032
221.173 21.2118 2.11464
217.582 21.061 2.12912
201.891 19.8183 2.04545
212.989 21.5272 2.25133
216.487 22.1029 2.34017
201.657 20.8126 2.22404
207.251 21.756 2.35722
210.092 21.9761 2.39963
200.089 21.4861 2.41161
209.225 22.7291 2.5726
199.983 21.9963 2.50412
205.648 22.8856 2.64544
199.824 22.5423 2.63908
199.302 22.7854 2.69067
200.049 23.0104 2.73629
200.217 23.6088 2.88256
197 23.3478 2.85635
201.78 24.4132 3.06298
192.155 23.2558 2.9071
194.747 23.8736 3.02758
198.264 24.6581 3.16827
193.564 24.3956 3.15525
184.197 23.6126 3.12932
195.535 25.165 3.32248
194.34 25.5118 3.44276
189.045 25.098 3.40116
188.809 25.3462 3.48786
189.872 25.781 3.58347
188.407 25.9761 3.68111
189.126 26.2014 3.73703
190.93 26.8724 3.85154
187.91 26.6498 3.85848
184.539 26.3538 3.88252
181.299 26.4947 3.97195
180.856 26.4609 3.98302
180.948 26.7866 4.04719
175.751 26.4475 4.06935
181.411 27.4765 4.25557
172.744 26.4846 4.18596
183.49 28.4411 4.5146
171.21 26.7028 4.27762
178.528 28.2674 4.58979
175.285 28.1184 4.58575
174.841 28.1818 4.64679
172.397 28.3206 4.74878
171.81 28.3718 4.78721
171.26 28.5375 4.8437
176.784 30.2034 5.23361
190.696 32.6126 5.6376
170.456 29.2131 5.11276
163.023 28.3301 5.03097
167.607 29.6307 5.34579
161.505 28.6877 5.2077
161.64 28.9225 5.29471
165.577 30.0805 5.57613
160.064 29.1535 5.42879
158.352 29.1961 5.51994
162.425 30.3136 5.76879
161.012 30.3902 5.86431
156.065 29.737 5.80028
166.544 31.9153 6.24846
161.56 31.3942 6.19898
161.692 31.8192 6.43306
155.295 30.5821 6.16173
159.66 31.8609 6.47315
154.604 31.3605 6.47092
157.722 32.0965 6.62921
155.136 31.7535 6.61241
152.379 31.6752 6.69926
154.115 32.3041 6.87446
150.396 31.9048 6.93571
151.524 32.357 7.04649
150.744 32.4716 7.10917
154.052 33.3876 7.35992
145 31.9039 7.15143
149.838 33.246 7.43324
150.191 33.578 7.65837
148.946 33.6938 7.73806
146.444 33.0696 7.65983
141.007 32.1933 7.49134
143.433 33.1264 7.78549
148.108 34.5495 8.14622
140.78 32.9489 7.91393
146.784 34.9985 8.41875
147.111 35.2506 8.51264
140.576 34.0455 8.32571
141.67 34.4408 8.48302
138.16 33.9441 8.46819
139.526 34.87 8.82551
141.405 35.4481 9.02576
137.151 34.4632 8.81711
134.819 34.469 8.98627
138.147 35.1718 9.0673
136.567 35.2317 9.21827
138.775 35.9913 9.47818
133.342 35.2355 9.46923
139.438 37.1017 9.97358
136.535 36.3464 9.82501
134.768 36.2637 9.86641
130.745 35.6998 9.88499
132.278 36.0479 10.0292
135.674 37.4203 10.4604
129.018 35.8151 10.148
131.953 36.728 10.4157
132.484 37.2052 10.5601
134.704 38.4378 11.1423
125.537 36.1286 10.5056
129.085 37.2835 10.9667
125.18 36.2915 10.7189
125.981 36.8472 11.0302
126.526 37.372 11.1173
127.116 38.0022 11.4572
126.101 37.7947 11.5196
125.006 37.8999 11.6668
123.501 37.7892 11.6649
118.504 36.7346 11.4612
119.66 37.2786 11.7593
122.914 38.208 12.0196
122.157 38.4867 12.3482
119.667 37.9994 12.2515
124.407 39.3936 12.6665
118.82 38.0568 12.3189
117.607 38.3239 12.5835
119.388 39.1668 12.9821
119.829 39.3818 13.1278
119.169 39.3237 13.2104
114.92 38.2919 12.9791
114.394 38.159 12.8677
113.064 38.2371 13.1679
113.122 38.7994 13.5123
112.267 38.4381 13.3291
114.175 39.3301 13.7476
116.069 40.6172 14.4062
113.976 39.5977 13.9883
113.849 39.8257 14.1764
112.191 39.8088 14.3229
111.278 39.8411 14.3997
109.143 39.3367 14.3743
112.393 40.7831 15.0134
108.242 39.5538 14.6721
110.523 40.6433 15.1428
107.482 39.7672 14.9196
108.453 40.5049 15.3661
108.597 40.4981 15.3729
121.777 45.8354 17.1877
104.654 39.8856 15.4446
105.135 40.6175 15.8602
104.165 40.2334 15.7369
102.622 39.8092 15.7414
106.037 41.3349 16.2218
103.81 40.7176 16.1551
99.1376 39.187 15.6662
102.973 41.0738 16.6156
102.76 41.3653 16.8354
101.998 40.9485 16.6665
103.689 42.6211 17.7338
98.5163 40.154 16.6089
99.1494 40.9022 17.0742
98.7288 40.795 17.0423
99.1402 41.6437 17.6823
101.297 42.513 18.0047
97.9562 41.5695 17.914
99.4367 42.0595 18.0579
97.5405 41.4515 17.9428
97.8987 41.8293 18.1091
94.9698 41.2772 18.1577
93.204 40.2614 17.7937
99.4901 43.7453 19.3885
98.1037 43.0787 19.1001
96.602 43.2356 19.4507
94.2509 42.1383 19.0197
96.0958 43.3017 19.7557
92.5917 41.5898 18.9587
93.1443 42.799 19.8144
91.5808 41.7069 19.3565
92.3058 42.3051 19.624
89.3525 41.2946 19.4387
95.2811 44.4394 20.8494
93.5797 44.1671 20.9417
92.4205 43.3852 20.656
90.0085 43.276 21.0766
87.6281 41.5199 19.9869
89.2388 42.3969 20.4276
87.3662 42.6488 21.0952
93.019 44.7751 21.8077
87.0265 42.6299 21.2192
89.7748 43.859 21.6783
85.1944 42.2446 21.3279
89.357 43.7942 21.7513
84.9772 42.5227 21.4758
85.7554 43.1297 22.0134
85.2719 42.9124 21.8894
84.7263 43.1591 22.2067
87.071 44.4961 22.9251
85.7358 44.3635 23.1731
84.3098 43.7332 23.1206
86.6591 44.494 23.2036
84.5432 43.9234 23.0677
82.0571 43.2806 22.9805
83.7868 44.2475 23.4683
79.2586 42.2498 22.7793
80.4177 43.3623 23.6789
80.6441 43.3483 23.6726
80.4848 43.17 23.4585
82.4799 45.3035 25.0037
79.858 43.6205 24.0008
78.6515 43.6093 24.5472
79.5135 43.9559 24.671
81.3761 45.2631 25.3279
82.5765 46.2128 26.0752
77.3114 42.8086 24.2361
77.0577 43.5356 25.0456
79.9504 45.0791 25.5879
77.1529 43.9575 25.4208
77.6108 44.4728 25.7096
76.0606 43.9178 25.672
74.8632 43.7494 25.8672
77.1486 44.6749 26.3264
77.448 45.1417 26.6481
76.6591 44.5862 26.0648
72.6817 43.4827 26.4204
76.3568 44.7775 26.7588
71.6238 42.6424 25.6879
75.1283 45.8503 28.0354
73.1549 43.8167 26.7025
71.635 43.4841 26.7829
74.766 45.5398 27.8838
72.2591 44.6093 27.9161
71.0033 43.8031 27.4428
71.8071 44.4098 27.9484
73.2663 45.5936 28.6939
71.5565 44.5758 28.3067
71.0484 44.3807 28.0433
70.1989 44.1993 28.1147
68.4208 43.8392 28.3035
70.0097 45.0088 29.271
69.7928 44.6539 28.9731
69.4255 44.5551 28.9548
68.6417 44.6757 29.3477
69.2521 45.7757 30.7757
77.2408 49.7998 32.2452
69.2948 46.0782 30.9543
67.8778 44.8088 30.0828
65.3178 43.1839 29.0852
68.3407 45.4476 30.6486
64.7179 43.2354 29.3916
66.5152 44.8246 30.6044
68.513 46.5287 31.7661
66.6121 45.1493 31.0022
65.5595 45.0561 31.0916
64.8031 44.7194 31.2475
64.6402 44.3762 30.9605
65.7528 45.7704 31.9832
63.6516 44.4574 31.4124
64.6128 44.863 31.6422
61.7336 43.4489 31.1724
66.2099 46.7845 33.3305
63.0631 44.4498 31.8784
62.3258 44.2252 32.0384
61.7231 43.9496 31.8724
62.8454 45.4241 33.1955
61.7329 44.5856 32.6611
61.3486 44.1035 32.2882
62.9776 45.8311 33.6797
62.4738 46.0286 34.1339
59.0853 43.5913 32.619
60.5783 45.0117 33.8299
62.5825 46.184 34.3234
58.4164 44.0067 33.5439
60.1698 45.1123 34.147
59.637 44.9902 34.3125
58.3613 44.0405 33.6097
59.0648 44.8774 34.4932
59.4698 45.3048 34.9784
58.9982 45.6952 35.6266
57.5271 44.476 34.8342
58.4267 45.148 35.4452
59.2278 46.3266 36.636
59.3936 45.829 36.0483
57.1053 44.1251 34.7096
57.4366 45.197 36.0159
58.0804 45.9158 36.6101
58.3032 46.2481 37.008
57.0234 45.6491 36.9358
58.5386 47.2571 38.4527
56.8615 45.1703 36.3919
55.4604 44.9756 36.8917
54.4073 44.1095 36.5243
57.2644 46.6532 38.3379
53.0216 43.198 35.834
54.4259 44.3406 36.853
53.9884 44.6743 37.5566
54.9018 45.4878 38.137
54.0546 44.7646 37.4791
55.0238 45.9069 38.9226
54.7086 45.8852 38.9945
52.8786 44.3418 38.0173
54.4691 45.9765 39.1422
52.8398 44.5771 37.8909
52.4714 45.7295 39.9629
52.4917 44.9635 38.9531
53.2104 45.5761 39.6177
53.0556 45.87 39.8521
53.0571 46.5072 40.8633
51.5462 44.9257 39.9028
51.6238 44.9419 39.655
51.4571 45.3215 40.2335
51.6142 45.6705 40.7071
51.3222 45.6127 41.0157
51.2386 45.3723 40.6484
50.6177 45.5485 41.4445
50.473 44.8096 40.1947
50.6171 46.1148 42.4867
51.0575 45.9793 41.913
50.7253 46.3412 42.8377
49.359 44.8782 41.3604
49.7883 45.3808 41.8473
49.7063 45.7194 42.4894
49.3789 45.4832 42.2419
48.9021 45.5337 43.0399
50.1131 46.7279 44.0099
48.2207 45.1309 42.8211
48.4359 45.1336 42.3855
48.6761 46.3516 44.3812
48.3208 45.5972 43.6977
47.8999 45.3553 43.7069
48.4325 45.5732 43.6027
47.5856 45.0007 43.0296
47.173 45.2345 43.4531
45.72 44.7709 44.5045
47.9268 45.6103 44.1704
46.4256 44.9223 44.1784
47.0795 45.716 44.709
46.3233 45.719 45.6768
45.0314 43.6317 43.3833
44.9939 44.3221 44.9158
52.2251 51.3972 49.8275
45.5144 45.6078 46.1123
46.1936 46.0233 46.2074
45.8676 45.9054 46.283
45.5653 46.6262 48.1136
45.0597 44.5917 44.8853
44.3646 45.2446 46.2758
43.4162 44.4899 46.2715
45.3207 45.9925 47.3985
44.4214 44.8085 46.0943
44.3605 45.3931 46.9183
43.8491 45.1337 46.5912
42.1409 44.2141 47.174
44.366 45.9135 47.8523
42.8481 44.8603 47.686
44.1969 46.0266 48.3803
42.7418 44.9176 47.7819
42.3197 44.3828 47.3329
41.4482 43.2754 45.8954
41.2947 44.0613 47.3839
40.9666 43.7179 46.9106
40.9937 44.1733 47.9844
40.7229 43.965 48.1964
41.4531 44.3822 47.8223
39.6525 42.8239 46.6816
41.0261 45.1456 49.8864
40.8818 44.2257 48.251
39.0314 42.7808 47.838
40.8891 44.8129 49.4976
40.1274 44.0756 48.7588
39.516 43.6729 48.9797
40.5467 45.3272 51.0289
39.2066 42.9892 48.1558
39.3333 43.6697 49.1505
39.9376 45.1748 50.8967
37.9985 42.2409 47.8927
38.3525 43.8266 50.4986
39.2806 43.8197 49.9054
37.9801 43.0493 49.6752
38.8467 43.9106 50.0312
38.3298 44.1096 51.2117
39.7685 45.6506 52.4827
37.2677 42.5755 49.9955
39.3712 45.2623 51.7996
36.8278 43.0604 50.8866
38.105 44.3124 52.049
37.306 43.3464 51.036
36.7093 42.9342 50.768
37.3615 44.0173 52.0873
36.7285 43.0954 51.3224
35.7485 42.1961 50.997
36.7753 43.246 51.702
37.3773 44.5299 53.1437
35.9917 43.1304 52.6944
37.0767 44.3902 53.7569
36.2443 43.3029 52.6576
36.7636 44.3459 54.1007
36.0774 43.42 53.2755
36.3011 44.128 54.4845
36.9855 44.7977 55.1423
36.0529 43.2461 53.0917
36.1821 44.4653 54.7012
35.0248 42.834 53.4436
35.0694 42.8941 52.7612
34.4201 43.1232 54.3061
35.0168 43.4828 54.8386
34.9126 43.0952 53.61
33.9762 42.7533 54.4208
34.2167 42.8032 54.7951
35.0875 43.5289 54.8197
34.5611 43.2657 54.5091
33.8809 43.5091 56.0008
32.9198 41.3112 53.4218
33.7566 43.1592 55.5214
33.8046 43.3076 55.4791
32.5227 41.6658 54.4196
32.0373 41.3061 54.6366
33.6408 42.6062 55.2617
33.9939 43.9412 57.0205
33.2606 42.7158 55.7188
33.1241 43.2061 56.892
33.8031 44.6927 59.6982
33.358 42.8743 56.5416
33.1334 43.2881 56.7849
31.3786 41.7315 56.3746
31.7864 41.7283 56.1896
32.7841 42.8094 56.7683
31.6241 41.8478 56.1614
31.8187 42.6044 56.9716
31.2835 42.3537 58.17
32.7638 43.8959 59.4741
31.9062 42.8764 58.8162
31.2702 41.8823 57.1504
30.692 41.437 57.1924
31.9402 43.3332 59.0926
31.1374 43.3454 62.1328
35.5976 47.453 63.3717
31.9027 43.8073 60.3711
30.9389 42.6692 60.2266
32.2138 43.562 59.4427
30.0049 42.0478 59.6325
30.9112 43.1987 60.8284
29.8674 41.3276 58.7882
30.2266 41.6484 58.4968
30.1118 41.9952 59.4983
29.6859 41.5485 59.0589
30.5501 42.7475 60.6068
30.295 42.9104 61.3744
30.882 43.444 61.4838
30.3093 43.3438 62.2417
29.2789 41.8086 60.8978
28.9344 41.0496 59.3543
28.8292 41.3601 60.5483
28.5111 41.0341 60.1503
29.2694 41.8731 61.123
29.4447 42.2969 62.0136
30.0422 43.3018 63.0336
28.922 42.0069 61.4453
28.8201 42.0308 62.1235
28.669 42.2511 63.3113
29.6465 43.0819 63.5792
28.5247 41.349 61.5849
29.2304 43.1196 64.4742
29.1573 42.406 62.7544
28.2709 41.8153 62.8647
28.2549 41.5497 62.1081
28.0751 42.2967 63.9345
28.7566 42.258 62.4529
26.8174 40.5024 62.159
27.4605 41.6298 63.7847
27.8201 41.5176 63.241
27.6472 41.8122 63.9153
27.4273 41.1979 63.0485
27.7907 42.1728 65.1719
27.5391 41.004 62.1813
27.2852 41.3686 63.2669
27.258 41.5456 63.5753
26.9677 41.6308 64.2386
25.9048 40.5198 64.6933
27.1491 40.9019 63.0497
26.3554 41.0068 64.4075
25.8127 40.0448 63.5999
26.1131 39.8357 62.1544
25.6113 40.0161 64.1043
26.282 40.4328 63.4497
26.74 42.6342 66.9113
25.5791 40.4422 64.9932
25.8425 40.3427 63.738
24.7899 39.8194 64.9963
25.7734 40.9442 66.1005
25.3535 39.6665 63.6827
24.9562 39.7161 64.181
24.7872 39.3063 63.9803
25.5513 40.8214 65.4466
24.9081 40.0513 64.6934
24.245 39.089 63.6321
24.7841 41.0564 68.0176
24.9427 39.2658 63.3053
25.0295 41.2452 67.6048
23.8166 38.8537 65.465
24.3676 38.9974 64.4127
24.9266 40.9094 68.2023
25.2063 41.2 67.7035
24.1691 39.2126 65.1798
24.6243 40.4852 66.4723
23.6016 39.3628 66.2062
23.7058 39.5309 66.9851
23.9676 39.0884 65.2267
23.447 39.5548 66.8809
23.5051 39.2284 67.2616
23.2798 38.0778 64.1874
22.7618 38.0483 64.9951
24.0272 40.1958 67.4928
23.0388 38.8345 66.3923
22.933 38.988 67.8036
23.6835 39.3463 66.5037
22.8438 38.8711 66.7195
22.2709 37.9682 66.8687
24.1605 40.9788 69.1104
22.0904 38.2103 67.2711
22.003 37.2195 65.5726
23.0629 39.068 67.001
22.5976 39.1706 68.0504
22.6111 39.1715 68.1485
22.2408 38.9147 68.9331
22.0873 37.9521 66.0371
21.7316 37.9726 67.3386
22.5702 40.017 70.8569
22.2155 38.8429 69.3453
22.6521 39.7881 70.676
22.1033 38.6348 68.5041
21.8661 39.7097 75.7569
26.1793 43.9633 73.1568
21.7087 38.5838 68.8992
21.2344 37.9332 68.5957
21.1605 37.7679 68.7179
21.3526 38.5243 70.862
21.9897 38.6069 69.4672
21.0561 37.922 69.9437
21.6742 37.7161 67.1458
21.109 38.542 70.4698
20.897 37.6245 69.1654
20.7059 36.8525 67.824
20.9275 37.3323 67.5979
20.464 37.4456 68.7271
20.4349 37.2486 69.1484
20.7142 37.7181 68.9778
19.914 36.7044 68.8279
20.4359 37.3963 69.8184
20.9891 38.4096 70.5517
20.2355 37.7048 70.7867
19.9706 36.6795 69.5729
20.5404 38.0152 71.1176
20.3713 38.1435 72.177
19.7705 36.2167 69.2985
20.3475 37.423 70.248
20.3563 37.9854 70.6627
19.9411 37.6765 71.5131
19.63 37.1749 71.804
19.9857 37.3183 71.7055
20.1173 37.3149 70.3375
19.7375 37.4166 71.4224
19.7606 37.5164 71.2862
19.1712 37.1746 72.9007
19.5845 36.776 70.2359
19.4767 37.4871 72.2694
19.2603 36.8075 71.0669
18.8717 36.6996 72.666
19.3091 36.6362 71.5607
19.4747 37.4826 72.5407
18.8783 36.6162 72.6273
19.4239 36.962 72.7853
19.3722 36.7417 71.1821
19.3122 37.9848 74.4662
18.9162 36.3126 71.6609
19.2289 37.2819 73.1424
18.7384 36.5512 73.053
18.7914 36.4694 71.2395
17.7253 34.7741 69.8829
18.5804 37.3908 76.7268
19.4712 37.2807 72.0912
17.561 34.8366 70.9188
18.0814 35.7598 72.5919
18.1756 35.0166 69.2881
17.9116 35.9686 71.3466
17.2063 35.096 73.5574
18.7724 36.8639 74.2101
18.3461 36.0222 71.9585
17.9608 36.44 73.9311
17.9054 36.1504 73.409
17.6581 35.7593 73.3738
17.1626 34.4011 71.6449
18.2995 36.9002 73.6297
17.0269 34.319 71.1515
17.4001 35.9939 75.0871
17.329 34.8831 73.9959
18.3033 36.636 74.3671
17.597 35.6631 73.0184
16.8905 35.0975 74.5053
17.6955 35.5838 72.882
17.6865 36.5879 74.4024
16.6212 35.0339 74.7916
16.9759 34.7346 72.8716
16.4851 33.7007 71.4815
17.003 35.2718 74.0038
16.5012 33.899 71.9971
16.9137 35.4677 75.255
16.8961 34.7433 73.364
16.6339 34.833 74.4776
17.2394 36.1798 76.6812
17.2115 35.7186 75.1491
16.552 35.246 76.0303
16.737 34.9309 74.3596
16.2807 33.9864 73.5104
16.7356 35.0291 73.9246
15.9946 34.1461 74.3833
16.3323 34.7087 74.8882
16.0543 33.8704 73.2613
16.1666 34.3494 73.6259
15.9037 33.7553 73.4791
15.9119 34.1013 74.3717
16.2777 35.1744 75.9961
15.9928 34.3724 75.4298
15.8507 34.0909 74.4698
15.7184 34.1365 75.6382
16.1738 35.4936 78.7708
16.2169 34.4093 75.5706
16.047 35.3378 80.9745
17.9722 38.5768 81.9898
16.0912 34.1227 74.1589
15.7922 34.9049 76.7183
15.2067 33.1496 73.6644
15.3652 34.3948 77.6618
15.9856 34.9606 77.5124
15.6603 33.6994 73.7442
15.0694 33.4215 73.4679
14.5752 32.2572 72.81
14.6706 33.1837 76.2732
15.3094 33.7341 75.4427
14.9802 32.9977 74.5698
15.1752 34.075 78.16
15.6117 34.3258 76.2323
14.6953 33.1381 75.7427
14.755 32.4751 73.579
14.4687 32.5948 75.2558
15.0164 33.5287 76.0994
15.0288 33.7798 76.5925
14.5617 33.1745 76.9911
14.9486 34.1031 79.1302
15.2049 33.7906 76.9715
14.3132 32.2724 74.4493
14.343 32.6119 76.2394
14.779 33.4556 76.2004
14.3075 32.0425 73.075
14.3237 33.2962 77.0065
14.5699 33.7882 78.221
14.3144 32.5411 75.6195
14.1405 32.5974 76.7122
14.337 32.5511 75.4305
14.0697 32.4269 76.1028
13.8877 31.9282 74.3881
13.6379 31.9928 76.5838
14.0858 32.1189 74.8533
13.5479 31.466 74.3837
13.9226 32.6088 76.4642
13.7369 32.3944 77.6547
13.6858 31.0792 73.5716
13.5691 31.9933 76.9581
13.5606 31.3899 75.3009
13.8055 32.2397 76.4205
13.4533 31.3562 74.8902
13.6849 32.4539 77.4278
13.6435 32.128 76.2287
13.415 31.8114 77.4581
13.7479 32.1292 75.6215
13.0217 31.122 76.6464
13.4293 31.6161 76.9414
13.5633 32.2185 78.0483
13.5414 31.5819 74.5479
12.9209 31.793 78.5705
13.3798 31.92 78.027
13.3032 31.8062 77.0339
12.9762 31.2106 77.8306
13.5109 31.7646 76.7368
13.0455 31.2316 76.492
13.0532 30.9674 75.1594
12.8875 31.4257 78.2836
13.5331 32.6167 78.3245
12.94 31.5237 78.8274
13.1486 31.6412 76.501
12.7573 31.6444 79.8683
13.2107 31.5391 77.0959
12.9384 32.0975 77.256
12.1735 30.1304 76.5424
12.8097 31.9271 80.4744
13.174 32.537 82.6605
13.211 31.2679 77.131
12.8603 31.9523 78.2643
12.1106 30.0513 77.4942
12.6363 31.2654 80.3232
13.0113 31.8136 79.92
12.8785 31.3124 77.5939
12.5905 31.3104 77.654
12.394 31.5232 80.0216
12.6773 31.651 80.3632
12.5219 31.155 80.1461
12.6708 30.8032 77.7598
12.5024 31.5189 80.3733
12.5565 31.5535 79.3888
12.1367 30.2971 77.47
12.1619 30.6866 78.706
12.038 29.8361 77.1938
12.0619 30.669 78.8869
12.1248 30.1722 77.3808
12.0554 30.4775 78.3597
12.3049 31.3959 81.1758
12.3342 30.8029 78.5365
12.1918 31.3797 81.2305
12.2747 31.1005 78.8869
11.6453 30.1445 79.6876
12.1471 30.6592 78.9666
11.827 30.5722 79.3903
11.8846 31.5885 84.713
12.2737 31.5494 88.1602
14.1266 34.6769 83.3537
11.6797 30.271 80.4251
11.9856 30.8073 80.2507
11.7642 30.8274 81.3703
11.9223 30.1853 78.3943
11.6167 30.9821 83.0535
12.0835 31.1126 80.8467
11.3014 29.1019 79.3483
12.0003 31.084 80.9086
11.6068 30.5354 80.3897
11.3542 29.5481 80.1809
11.6893 30.365 80.4486
11.6099 30.7151 81.7806
11.4952 30.2837 82.4659
11.754 30.1511 79.6014
11.3262 29.4859 78.3198
11.0611 29.2954 78.7084
11.1433 29.3925 79.444
11.4298 30.2728 79.5364
10.6406 28.5207 80.2425
11.3613 29.2274 77.9422
11.33 30.4723 81.9093
11.2658 30.2803 82.6027
11.3129 29.9473 81.7998
11.3445 30.0802 81.6066
11.3318 29.8804 80.4963
10.9625 29.0707 79.7546
11.1301 29.8 80.3282
10.9284 29.656 80.7525
10.9269 28.9767 78.7042
10.6589 29.1263 79.9189
10.6118 28.2382 78.067
10.916 29.5325 81.7554
11.066 29.4139 79.1404
10.6324 28.8976 80.923
11.0932 29.9308 81.4744
10.8239 28.9982 78.8082
10.531 29.1041 80.4303
10.4209 27.8337 77.3797
10.3746 28.0066 77.0501
10.2927 28.3753 79.4137
10.5864 29.4094 80.3253
10.1247 27.9522 80.4972
10.533 28.4559 79.6297
10.4201 28.4507 80.3108
10.5918 28.7885 79.3184
10.2788 28.371 79.0468
10.2037 28.3852 80.2246
10.1476 27.6514 78.4213
10.1856 28.1523 79.6168
10.287 28.7351 81.237
10.1864 27.9614 80.0592
10.1541 27.1964 76.5636
10.0153 27.6933 78.571
10.1904 28.9096 81.5062
10.295 28.5843 80.1542
9.98794 28.2 81.3528
10.3512 28.5473 80.5433
9.94198 27.7069 80.5793
10.2158 28.3762 81.2638
10.3191 28.4256 80.6585
10.0212 27.6188 78.0432
9.67537 27.5453 79.3419
9.85803 27.2163 77.1375
9.55423 26.9538 78.6672
9.92278 28.0244 78.9012
9.6886 27.3765 78.0057
9.67796 28.0973 80.8626
9.63404 27.2572 79.0979
9.58795 27.2972 81.8264
10.1651 28.0267 78.2515
9.38564 26.8303 78.67
9.73292 28.1369 80.4595
9.41543 26.9443 81.0356
9.79589 27.5444 80.4246
9.52061 26.7807 77.5435
9.42907 27.2206 79.4492
9.34729 26.6508 78.7312
9.42558 27.2482 81.6996
9.85347 27.9548 80.761
9.50788 27.2865 80.3109
9.37926 26.721 78.6045
9.45481 27.3943 79.7333
9.21231 26.58 80.0388
9.3967 26.2231 76.8093
9.35365 27.3403 79.6441
9.3205 27.5994 81.6945
9.28699 26.1116 78.6585
9.26431 27.149 80.2206
9.20115 26.4782 78.2152
9.02308 26.2166 78.228
9.05122 26.3571 79.0429
9.22518 27.262 80.5696
9.2328 26.8848 80.1954
9.18896 27.049 78.3879
8.65384 26.5638 87.7595
10.439 29.3597 81.9696
9.01898 26.1937 78.3936
9.05235 27.2204 81.5607
9.0925 26.2176 77.3585
8.75331 26.1148 79.3695
8.95572 26.3055 77.6386
8.82385 26.8679 81.1519
8.70966 25.6759 80.0797
8.98695 26.0447 78.0879
8.79707 26.3416 80.2968
8.95275 26.283 78.9514
8.76128 26.6218 82.5661
9.01462 26.0434 79.2828
8.73317 25.4267 77.7532
8.73586 26.1706 79.409
8.79013 26.2936 79.3879
8.60387 26.1851 81.318
8.84004 26.0637 79.2643
8.71024 26.2786 80.5349
8.67618 25.2845 77.3388
8.5124 25.9316 79.1453
8.5911 26.1746 82.1164
8.91125 26.3199 79.1445
8.49537 26.179 81.4539
8.58733 25.5109 79.1767
8.46832 25.194 76.7997
8.33255 25.4104 79.5289
8.63486 26.1303 79.9434
8.45545 25.1315 77.019
8.2334 25.0454 76.4183
7.92535 24.7088 79.28
8.51664 25.8061 79.3387
8.28636 25.2327 78.9296
8.31294 25.3133 80.333
8.52033 25.6378 78.1018
8.16455 25.0653 78.6808
8.14089 24.8442 78.601
8.27798 25.7766 81.8529
8.41246 25.4285 81.5107
8.59947 26.3619 81.6739
8.29638 25.1587 78.7121
8.26921 25.8406 81.0145
8.25216 25.1607 78.2323
8.01855 24.674 78.5365
8.18413 25.5384 79.6491
8.08596 25.0209 78.8301
7.99688 25.0802 81.0288
8.04413 24.5244 80.3783
8.26261 24.966 78.3498
8.06522 25.1887 80.6432
8.33576 25.9507 82.2338
8.35118 25.6918 81.3246
8.16996 24.985 80.3987
8.22869 25.6884 79.6124
7.91504 24.8952 79.9949
7.99278 25.0505 78.7619
7.89213 24.9315 79.8128
7.87223 24.6755 80.3307
8.03604 24.7589 79.0009
7.92453 25.1107 81.1081
8.00585 24.532 79.4419
7.8807 24.405 78.7532
7.83781 24.2283 78.7028
7.9066 24.9773 79.36
7.85358 25.0493 79.4505
7.71261 23.6772 77.4845
7.96297 25.3532 78.4118
7.48899 24.3033 79.8866
7.64506 23.8882 78.4707
7.73598 24.3085 78.7373
7.73607 24.1881 78.7359
7.76461 25.1196 78.9966
7.48239 24.0865 79.8934
7.72187 24.6917 79.3495
7.55545 23.6567 77.2872
7.48243 23.9709 78.1829
7.5438 24.131 77.9179
7.31425 23.5676 79.6121
7.77147 24.797 80.7887
7.59908 23.7286 77.3971
7.50628 24.1859 77.5508
7.32627 23.6613 78.2092
7.33969 23.6866 79.9983
7.57488 23.6882 78.2919
7.5683 24.2646 77.9827
7.30349 24.0697 79.0436
7.28438 23.6361 80.64
7.55412 23.5144 76.8812
7.19353 23.0948 76.7026
7.20595 23.4668 78.2477
7.35061 24.0406 80.1295
7.41321 23.628 78.8725
7.35659 23.7684 79.0748
7.33579 23.8712 79.5203
7.34105 23.7392 78.3683
7.26638 24.4372 89.3956
8.64429 26.5451 80.581
7.24608 23.6522 78.0122
7.12141 23.2448 77.8704
7.14048 23.3232 76.821
6.99943 22.8027 77.5271
7.11034 23.0617 75.9584
6.8907 22.6237 76.2071
7.02305 23.2704 78.3175
7.13567 23.033 75.3153
6.82097 23.0738 78.787
7.10602 23.3402 78.0805
6.99572 22.6284 75.3023
6.83988 23.223 80.8153
7.24652 23.2151 78.5732
7.16345 23.6819 80.2303
7.12869 23.2772 78.7138
7.01276 22.9126 76.7909
6.88996 23.1947 80.0154
7.15889 23.2122 78.6299
7.06181 23.5817 80.9243
7.25607 24.0644 81.126
7.20423 23.736 81.1242
7.18363 23.7081 79.0098
6.85394 22.6145 78.7916
7.05688 23.2945 80.208
7.09323 23.1543 78.3931
7.06697 24.4271 81.247
6.99198 23.5122 80.716
7.04822 23.2378 78.6789
6.84622 23.088 79.8032
6.89574 23.2474 81.2208
7.03316 23.1353 78.5763
6.82015 23.0651 80.5058
6.98485 23.1244 80.8872
7.02797 22.9679 77.6669
6.76871 23.0253 80.4712
7.009 23.6541 80.7917
6.90022 23.2007 78.6481
6.76284 22.671 79.682
6.88949 22.931 77.8729
6.70227 22.7899 78.3208
6.5903 22.2765 80.2824
6.92214 22.6049 76.9644
6.67268 22.6986 78.6281
6.74257 22.722 78.6012
6.71519 22.8487 79.5413
6.81567 22.9237 78.6347
6.74198 23.1633 80.1399
6.6307 22.0713 77.8361
6.65397 23.1346 80.4692
6.75764 22.8962 79.9181
6.77618 23.372 81.3798
6.77116 22.8032 80.4011
6.75954 22.8223 79.4813
6.67894 22.8675 79.8859
6.60337 22.0771 77.9099
6.56304 22.5156 79.7538
6.65623 22.0284 76.0024
6.39617 21.8078 77.7191
6.5688 22.538 80.1391
6.70612 22.1417 77.4038
6.52226 22.291 76.7876
6.47851 23.0484 79.8606
6.49504 22.0479 78.3187
6.5084 22.6724 79.9735
6.52519 22.1751 78.025
6.48668 22.575 78.0665
6.35178 22.2907 80.9132
6.67243 22.829 78.4015
6.36857 22.3032 81.0111
6.61293 22.2374 78.272
6.36076 22.2003 80.6073
6.63194 22.6379 76.89
6.18656 21.4366 78.6985
6.54673 22.3265 79.0525
6.45134 22.2889 79.4665
6.39475 21.465 76.0716
6.27158 21.7917 76.305
6.18944 22.2099 79.7522
6.43667 21.8919 76.675
6.27988 22.1917 77.9581
6.2149 21.739 80.2078
6.48091 22.4504 78.4396
6.18996 21.9086 80.2564
6.3917 21.4457 75.2214
6.09793 22.0615 79.9959
6.39007 22.048 79.4578
6.30025 21.5759 80.2689
6.44043 21.8852 75.9799
6.02346 21.6223 77.5442
6.15542 21.7912 78.9488
6.29203 22.147 80.7568
6.4424 22.3782 79.7941
6.30936 22.2273 80.7989
6.44707 22.7401 81.3576
6.42906 23.7352 92.4134
7.41833 24.591 81.8367
6.37289 22.5885 81.4162
6.30837 21.5232 78.0507
6.19093 22.1684 79.0568
6.13729 21.9159 78.4631
6.13404 21.8736 80.7281
6.24843 21.6885 80.3142
6.31417 22.2712 79.1424
6.13322 21.6534 79.9792
6.32141 21.8351 77.38
6.01369 21.6871 77.5225
5.98132 21.3152 79.2456
6.16734 21.531 77.3242
6.05666 21.6731 78.3165
6.01942 22.044 81.992
6.33175 21.9798 79.9607
6.16964 21.9195 77.7558
5.93762 21.442 79.8751
6.16867 21.7663 80.894
6.19268 21.7228 77.1698
5.85746 21.0617 79.1585
6.07983 21.6811 77.919
5.92525 21.0869 77.8119
5.89988 20.9687 78.777
6.00186 21.2062 76.9956
5.86741 20.6594 78.0705
5.97771 21.3065 80.0692
6.19141 21.7504 75.6686
5.68769 20.4236 77.3657
5.9452 21.3377 77.7649
5.86801 20.9958 77.0238
5.82211 21.349 77.8325
5.8575 21.2152 77.4529
5.80503 20.9829 78.0481
5.86607 21.2227 78.7282
5.9374 21.7111 80.0009
5.96865 21.2073 78.9146
5.90772 21.2622 77.6797
5.79808 21.4059 79.8017
5.92477 20.7824 78.4956
5.75992 20.3192 77.5432
5.90979 20.8706 75.4419
5.64129 20.6203 78.5887
5.89799 21.0814 77.7476
5.8163 21.0392 78.0943
5.85657 21.4735 78.9815
5.76157 20.0921 76.4077
5.73563 20.7613 78.1233
5.82813 21.3458 76.2119
5.66539 21.0429 77.89
5.74914 21.1939 80.3367
5.89191 20.417 75.6321
5.64942 21.0478 78.1847
5.73688 20.6948 78.522
5.78867 20.431 74.5456
5.50247 20.2604 76.4608
5.60271 20.4662 74.95
5.50401 20.3212 78.5485
5.75246 20.642 78.7471
5.86379 20.8771 76.8515
5.63749 20.2243 77.4466
5.76906 21.7949 80.4707
5.76277 20.1023 76.7807
5.70629 21.0697 77.4806
5.68062 20.5586 78.5074
5.77191 21.2383 79.4459
5.81615 21.4524 77.8011
5.62668 20.8544 79.3667
5.70918 20.2288 77.3
5.63411 21.0684 81.3263
5.8922 20.3246 76.4544
5.57382 20.6551 77.035
5.5789 20.1778 75.2581
5.51769 20.5784 75.5132
5.39044 19.7524 78.8827
5.7713 20.5054 74.4806
5.39339 20.5529 78.4698
5.63487 20.258 78.6721
5.65468 20.7049 77.8012
5.6315 20.0269 76.1286
5.53249 20.3817 76.8287
5.55362 20.299 74.0958
5.32794 20.5921 79.3253
5.66584 20.4474 78.4627
5.59853 20.0904 75.6413
5.40542 20.4843 77.4669
5.52103 19.9981 77.4318
5.53952 20.3141 77.508
5.57931 20.9264 78.4209
5.53627 20.3887 79.1032
5.55152 20.3938 77.8328
5.50958 20.721 78.1843
5.46076 20.1891 77.8321
5.54426 20.1765 76.8259
5.416 19.5913 77.0355
5.51793 21.618 90.1731
6.39386 21.977 76.5176
5.35541 20.1479 76.988
5.45693 19.993 75.0048
5.28743 19.9066 76.0639
5.34238 20.2346 78.8268
5.55711 20.2116 73.7437
5.14097 19.4435 76.7913
5.45329 20.1346 74.8476
5.20423 19.4087 75.8345
5.37843 19.625 76.7584
5.40114 19.7599 75.4928
5.33362 19.9957 75.9641
5.29816 19.6245 74.0136
5.20913 19.5746 75.672
5.24681 19.5457 73.564
5.1898 19.7423 76.5489
5.29922 19.1757 74.5234
5.23783 20.0707 77.3237
5.37769 19.8241 75.7085
5.25669 19.3847 75.2509
5.20678 19.6296 74.4108
5.1273 19.1618 75.0547
5.24151 19.5859 74.1257
5.15119 19.6317 75.462
5.17091 18.8756 74.0224
5.16712 20.1034 74.1283
5.08504 19.2641 76.2422
5.19407 19.145 74.5422
5.17098 18.8396 74.014
5.15118 19.4723 74.8226
5.10577 19.4523 75.353
5.15318 18.6769 72.8985
5.05012 19.4375 75.3941
5.17144 19.0157 74.2345
5.13263 19.5182 75.8521
5.21426 19.2289 74.6918
5.11649 20.068 78.4529
5.37717 20.0562 76.166
5.14859 19.4058 77.8322
5.36151 19.7363 75.5889
5.13667 18.8959 72.9668
5.06436 19.5215 75.2534
5.09121 19.2727 75.056
5.11055 19.0541 74.9306
5.11848 19.2839 75.227
5.16024 19.542 73.599
4.9846 18.8962 76.2802
5.27518 19.7455 73.6887
4.95829 19.5575 76.5738
5.2198 18.691 75.654
5.1605 19.6117 75.549
5.14189 19.2126 73.2424
4.97153 19.089 73.8561
5.02926 19.3029 76.5108
5.16491 19.35 75.606
5.08964 19.5552 76.0333
5.14566 19.2728 72.9028
4.93029 18.7845 73.7728
4.96346 18.5871 73.2777
4.89936 18.3378 73.2933
4.94309 18.849 75.0113
5.0902 19.4904 77.3587
5.22029 18.8673 73.3451
4.99167 19.1653 75.8459
5.12399 19.3164 72.9638
4.91666 19.2554 75.8848
5.06114 18.7373 75.6532
5.08777 19.05 72.1886
4.86986 18.5779 73.2941
4.92008 18.7459 75.2553
5.092 19.2705 72.4547
4.81411 18.6166 73.5569
4.94249 19.0383 74.877
5.05727 18.7596 76.2367
5.12551 19.7867 76.4346
5.11132 19.5654 75.2681
4.95604 19.0514 74.0899
4.94274 18.8622 74.3515
4.9657 18.602 73.0634
4.88123 18.1801 71.9916
4.81981 18.8227 75.3099
4.99223 18.7899 72.7497
4.88137 18.4813 72.8562
4.87986 18.7855 74.6364
5.00736 18.8889 72.8923
4.82562 18.2691 73.8011
4.93977 18.6768 74.0744
4.96506 18.9734 73.8262
4.90518 18.5579 72.5423
4.8312 18.3276 70.995
4.73042 18.3431 72.8599
4.86593 18.9214 75.0796
4.94813 18.901 74.0466
4.92904 18.4607 72.8459
4.80906 18.6657 73.8382
4.86487 19.5141 85.9994
5.73865 20.4761 73.9667
4.89857 18.8109 76.1911
5.04406 19.3242 73.8765
4.91262 18.9385 73.4467
4.83283 18.8495 75.3304
4.98887 19.8047 77.044
5.00838 18.2215 73.4296
4.82795 18.8867 75.208
5.00196 18.8855 73.683
4.87306 18.5134 72.114
4.77117 18.4311 73.8029
4.83071 18.5841 75.5299
4.9429 18.6163 73.7445
4.87091 18.8098 72.2283
4.75372 17.5777 71.2981
4.68625 18.5827 74.4753
4.91952 18.414 74.9659
4.90319 18.6965 71.6393
4.70269 18.2781 73.7683
4.87783 18.4346 72.0322
4.72864 18.7387 72.8316
4.74196 18.5213 73.7917
4.81981 18.1131 72.2783
4.79739 18.4909 72.5297
4.7786 19.0567 75.0786
4.9071 18.0098 73.5003
4.85611 18.8169 73.5884
4.8077 18.9333 74.9127
4.87559 18.1633 73.297
4.82311 18.6725 75.0072
4.92216 18.8928 74.6863
4.91264 18.8168 75.7515
4.97238 18.3518 72.8817
4.80451 18.6411 74.9822
4.91222 18.7589 75.9103
4.99587 18.8225 74.8539
4.88294 18.7215 71.5935
4.6929 18.6362 73.7769
4.79142 18.926 74.7473
4.86599 18.6729 72.8791
4.73501 17.847 72.2231
4.73833 18.6334 73.927
4.87051 18.522 73.1445
4.76541 18.353 71.4869
4.67336 18.3168 74.2988
4.84728 18.4301 72.9215
4.74151 18.0743 73.7861
4.79088 18.521 71.8323
4.70806 18.4191 75.805
4.91481 18.5553 73.2349
4.76362 18.3342 72.9595
4.75997 18.8211 73.6655
4.75486 18.2656 72.9879
4.73689 18.4995 73.981
4.78446 18.3886 71.8318
4.68711 18.4784 73.9306
4.83536 18.2578 72.3143
4.70865 18.8745 75.5182
4.95046 19.002 75.4643
4.90694 18.4946 74.3206
4.84836 18.6348 75.9072
4.93175 18.6504 74.5619
4.85624 18.9406 76.1977
4.93741 18.7076 74.324
4.82688 18.5827 73.8395
4.7937 18.8516 74.0404
4.77619 18.5317 74.7422
4.90469 18.2247 71.2892
4.65293 18.5939 72.7927
4.73307 18.3447 73.5047
4.80134 18.5347 74.6163
4.84805 18.6345 75.9265
4.95037 18.5562 72.0751
4.68225 17.9915 72.0424
4.7398 18.581 72.2243
4.72366 18.0585 74.1814
4.84203 18.6837 72.9204
4.70973 18.4839 75.8807
4.95587 18.9733 76.3911
4.93877 19.1331 74.6149
4.87834 19.0328 74.0106
4.80882 18.2034 74.4902
4.83922 18.6645 74.9504
4.86986 18.4162 72.4545
4.74995 18.7447 74.984
4.86827 18.5245 75.9672
4.90761 18.8097 74.438
4.79687 18.302 74.3475
4.82527 18.4772 73.5437
4.77555 18.8446 75.4559
4.9118 18.9912 76.2625
4.91906 18.4592 74.6339
4.85196 19.5799 77.6381
5.03061 19.3244 77.2076
4.96944 19.764 75.9064
4.91665 20.0568 89.1112
5.73293 0 0