# pn-170911/RbIIR-53-RbII-1280-1959.psd
# Power spectrum* (dif=0,1,2) (really just |FT|^2)
# NOTE: only the first half! (symmetric)
# weeks: 1280-1959
# 119 clock-days, 0 excluded
# PSD: 1441
171168 3.03762 0.0336701
5.41081e+06 141.505 0.0641569
5.06253e+06 69.3784 0.058986
1.85392e+06 30.6214 0.0549042
1.15189e+06 21.7907 0.0581688
784847 14.5408 0.0559325
518657 12.2426 0.0506696
360857 8.84539 0.0548851
283857 8.28643 0.0563239
242256 6.76104 0.0609754
162451 5.11128 0.0616941
173054 4.65421 0.056855
107430 5.03029 0.0562946
121265 4.38414 0.064463
94940.2 3.83489 0.058136
93142.6 3.2734 0.0533431
67995.6 3.85818 0.0514697
72682.9 3.46895 0.0565139
63465.5 2.6095 0.0506967
56658.5 2.86013 0.0501908
33819 3.70928 0.0545224
60229.7 2.76433 0.0660664
47476.5 2.77078 0.0657019
35427.8 2.48632 0.06694
28218.2 2.41787 0.0641106
28942.6 2.29151 0.0626727
21721.8 2.35064 0.0693347
25764.8 1.94254 0.0741596
24560.2 2.5375 0.0725439
20838.7 2.89425 0.0802828
16385.7 2.53877 0.0661581
19770.8 2.62068 0.0719441
17831.2 2.5158 0.0647567
14858.9 2.67155 0.0776126
17764.7 2.45453 0.0728275
15303.4 2.66609 0.0620516
13851.7 2.57694 0.065566
13753.3 2.50207 0.0723899
12401 2.73671 0.07797
12790.6 3.23467 0.0853647
10608.1 3.47081 0.0750985
8952.67 2.7022 0.0786282
10857.2 3.06002 0.0868061
9235.83 2.72681 0.0865322
8251.13 3.13631 0.0924455
8549.8 2.92408 0.0816581
9255.9 3.91833 0.103716
8806.67 2.59268 0.0959715
6750.67 3.19881 0.0982558
7790.77 3.38208 0.0979828
8200.12 3.20058 0.103085
7993.89 3.54723 0.109712
6470.81 4.26754 0.113916
6454.27 4.13404 0.118103
6013.94 4.0876 0.120259
7052.15 4.2089 0.123839
6327.8 4.34806 0.101296
6989.98 3.69615 0.118905
6727.84 4.84792 0.143339
5652.42 3.62625 0.108617
5879.85 4.25516 0.147321
5943.26 4.11322 0.133656
5404.38 5.39222 0.156262
5815.1 4.44704 0.149288
5642.55 4.92467 0.160999
5352.52 4.33568 0.14943
4657.72 4.84945 0.15676
5646.17 4.08682 0.156707
4330.46 5.10122 0.164808
4805.12 5.06212 0.189503
4222.35 4.94827 0.166709
4017.04 5.25817 0.170797
3983.06 4.95676 0.187698
3570.41 5.32516 0.204996
3938.32 4.72709 0.193835
3879.53 5.4117 0.201405
3806.09 5.45542 0.20711
3598.42 5.96525 0.234475
3427.84 4.89252 0.200673
3385.03 5.19182 0.233704
3024.33 6.20852 0.272831
3080.73 5.71517 0.209459
3016.99 5.89164 0.260796
2666.65 6.02829 0.244782
2854.63 5.18473 0.238081
3083.87 6.08724 0.274439
2025.86 6.77837 0.278874
2616.3 6.83018 0.311158
2471.58 6.9765 0.322931
2325.16 6.24762 0.30208
1970.35 7.26075 0.356635
2569.19 5.62696 0.269432
2228.54 6.37332 0.33012
2169.43 6.3598 0.312276
2490.2 8.0502 0.414929
2444.58 7.70576 0.397165
1990.86 7.457 0.345521
2448.27 6.93734 0.387543
2086.28 8.54598 0.486071
1681.34 6.90341 0.350846
1797.02 7.19423 0.381903
2578.78 9.11246 0.49736
2060.08 7.74822 0.454722
2301.17 8.46025 0.502544
1991.15 7.5233 0.445111
2174.71 8.25787 0.509574
1505.56 7.62751 0.467223
2199.07 8.08766 0.4683
1638.33 7.45999 0.447975
1713.47 7.52534 0.479354
1467.45 9.606 0.6197
1952.41 9.01775 0.598897
1771.21 7.43953 0.520609
1255.48 8.37463 0.563638
1628.79 9.24613 0.600946
1770.19 9.15215 0.626869
1124.03 9.67864 0.657409
1274.1 8.98812 0.680682
1626.25 11.2586 0.790856
1518.31 9.85686 0.703633
1639.67 9.14473 0.654917
1197.98 9.89856 0.743085
1448.22 10.7921 0.816024
1765 10.1064 0.801916
1570.43 8.20852 0.639454
1443.46 10.4308 0.81365
1352.62 8.94372 0.74226
1124.33 10.9112 0.926181
1225.11 11.2352 0.846303
1144.76 7.72149 0.670745
1216.81 12.0455 0.975101
1243.28 11.1039 0.986094
1163.85 10.7399 0.934314
1261.05 13.6661 1.12689
1264.98 11.5091 1.0147
1357.91 12.9353 1.24218
1350.89 11.6084 1.10838
1000.95 9.55747 0.856824
1000.96 12.1866 1.16524
1122.93 9.99591 0.978835
1173.01 11.5519 1.15214
1136.79 10.2318 1.01151
886.294 12.6575 1.28347
1077.19 10.5646 1.08205
1033.83 9.94997 1.01999
1124.48 14.5174 1.53802
849.866 10.9183 1.21218
1053.99 10.9791 1.2149
917.555 10.7236 1.17421
1005.26 9.46636 1.03539
885.136 10.6663 1.19196
880.697 12.5516 1.34564
1029.34 17.8835 2.0033
1058.85 11.5963 1.33286
970.184 13.0276 1.51936
898.432 10.6083 1.21548
777.461 13.942 1.65363
991.003 11.2423 1.38641
859.852 11.8012 1.40217
719.859 13.1426 1.69007
756.474 13.0837 1.63613
741.283 13.631 1.74569
889.868 16.212 2.09084
799.03 11.9997 1.51768
1007.2 13.8912 1.88628
939.429 11.9968 1.56009
700.537 12.6664 1.63257
648.527 15.6946 2.18049
1047.15 13.3381 1.78543
690.338 12.2868 1.70868
758.444 13.5899 1.87306
587.57 15.5499 2.20276
571.346 13.583 1.97207
799.71 14.3974 2.1133
665.021 13.2869 1.94803
566.67 13.5513 1.95528
688.128 16.0796 2.38591
772.33 14.4981 2.25436
623.592 13.4538 2.09819
724.601 12.7258 1.96494
697.841 14.13 2.25752
778.275 13.5579 2.28393
544.878 14.5006 2.31834
748.888 16.382 2.59919
722.24 13.4449 2.22804
828.089 16.2562 2.63782
701.065 13.1988 2.15122
844.918 14.8057 2.424
543.266 14.1021 2.4109
514.348 13.965 2.40925
621.634 15.4355 2.58323
701.322 14.3966 2.52282
584.878 15.9366 2.68756
693.617 15.7519 2.88996
635.467 14.3901 2.6283
609.111 14.5229 2.58597
536.955 14.0764 2.54046
750.224 16.0279 2.99767
522.829 16.0471 3.00192
544.219 15.7514 2.99489
608.727 15.3934 3.0156
568.349 16.382 3.20705
481.263 15.2758 2.88951
659.824 17.9504 3.58513
596.448 16.7056 3.29914
503.971 15.3295 2.99692
592.877 17.2436 3.4582
545.712 15.1521 3.26235
522.547 16.3036 3.3465
603.495 20.1076 4.032
589 16.6196 3.55523
600.87 16.0966 3.3981
573.544 16.8107 3.55143
550.767 17.5266 3.89248
519.873 18.3214 3.9846
473.827 16.6729 3.66314
554.564 15.7146 3.50432
548.714 17.8688 3.94897
501.921 17.2132 3.86584
518.928 15.4201 3.47874
479.29 15.0301 3.41257
551.772 14.0688 3.48215
479.383 18.1826 4.06097
550.502 15.4515 3.71021
527.286 16.8301 4.02352
526.726 16.3959 3.92509
486.783 16.2559 3.89362
438.174 15.6761 4.00894
502.322 19.1959 4.67858
457.603 17.0737 4.243
451.142 17.4304 4.17302
449.55 14.6271 3.5794
461.994 16.8959 4.42846
470.288 19.9898 5.1228
361.019 14.5847 3.88359
416.14 15.056 3.95448
357.111 16.1822 4.19758
445.186 17.5412 4.71669
500.871 21.2986 5.45613
447.845 21.5389 5.80936
365.898 18.5131 5.26679
427.539 18.969 5.10741
401.481 19.5309 5.22004
325.161 16.8242 4.83176
319.171 19.7405 5.65948
391.547 15.4787 4.35845
355.579 19.0515 5.35239
339.093 19.0516 5.72418
360.787 20.1153 5.68085
404.309 16.5201 4.94803
360.829 15.8359 4.43628
402.745 17.4305 5.23164
327.315 18.0312 5.36499
334.444 18.9873 5.48513
376.481 20.0728 5.8637
299.29 16.7557 5.10923
408.517 21.2311 6.42184
353.35 19.3966 6.06858
364.474 19.8393 5.96712
324.018 17.4495 5.68613
350.477 16.629 5.49599
350.129 17.1127 5.40758
283.88 20.1296 6.64334
309.276 18.305 6.03947
324.464 20.1403 6.4337
345.181 23.7698 7.73031
380.238 20.5387 6.68635
432.509 18.3175 6.09897
257.397 21.7203 7.23746
394.484 18.8446 6.66381
360.248 19.3807 6.30407
330.5 19.7027 6.90276
301.215 17.9629 6.01392
316.828 17.5052 6.17765
310.237 20.9983 7.36414
342.821 18.8429 6.27684
268.205 17.8435 6.33423
337.364 17.3622 5.86342
272.789 18.339 6.65252
330.399 17.9649 6.92068
267.996 17.975 6.4551
315.246 20.0479 7.15363
305.603 20.1213 7.6248
266.234 20.311 7.35634
229.004 20.7567 7.66211
196.499 16.9645 6.55906
174.818 20.8886 7.54473
365.106 22.4395 8.97177
217.355 21.4198 7.77495
168.369 20.3183 8.18902
252.587 20.8721 7.98854
231.322 20.0519 8.18112
244.544 22.8154 8.87641
276.906 17.4695 6.94549
277.517 20.0769 7.92978
238.549 18.0446 7.27164
292.543 19.0754 7.74099
267.464 21.616 8.27317
239.267 19.0267 7.89
312.442 17.844 7.56446
247.016 20.9565 8.74363
306.485 21.8875 9.47708
251.673 19.9713 8.20309
289.889 22.9801 9.98389
225.153 22.466 9.27608
271.922 23.3695 10.1793
257.057 19.1869 8.42212
241.334 20.89 9.00876
209.766 18.0176 7.39609
310.626 21.3552 9.65725
288.362 20.0404 8.94292
258.125 21.0421 9.04214
230.275 23.3695 10.6792
214.658 18.3159 8.59237
205.925 29.3577 13.4421
245.17 20.978 9.48957
215.523 18.6611 8.45718
232.704 20.4417 9.88439
186.38 20.9639 9.65512
270.064 20.1915 8.94105
214.353 18.6698 9.14846
228.965 19.8432 9.201
277.862 23.4373 11.337
256.623 23.8601 11.6624
215.583 21.4964 10.3928
219.327 20.718 9.61857
214.633 20.9502 10.455
227.027 20.703 10.0413
222.672 24.3624 11.6466
208.058 22.8465 11.5335
219.146 19.3954 9.44557
191.74 24.9332 12.2701
180.07 19.7387 10.2889
187.313 20.4341 10.9157
187.16 20.4728 10.6264
235.665 20.9069 10.1936
173.623 23.1707 11.8449
175.332 21.7315 11.865
224.363 20.1367 10.0671
215.542 16.9055 9.04731
166.248 18.9121 10.1178
185.015 19.5601 9.71617
186.623 22.4194 12.2261
212.622 22.7349 12.301
178.019 20.606 10.9907
230.725 18.6684 9.79086
226.962 16.6104 9.41865
207.62 19.2601 10.0131
214.601 21.9606 12.8455
221.875 23.0539 12.2526
212.097 19.5636 11.1474
234.474 22.9091 12.697
183.594 18.8747 11.1035
230.767 22.5913 12.4359
225.266 22.195 12.8279
238.639 19.9599 11.7062
197.637 19.9236 11.0823
219.257 18.683 11.0091
194.984 18.8294 10.9688
207.461 21.1822 12.6225
207.946 21.6216 12.6433
180.408 24.2083 14.8466
212.493 23.7914 13.4312
206.341 20.8438 13.0023
195.17 20.171 12.4845
180.659 21.0759 12.3046
168.573 20.2871 13.2057
201.809 20.2751 12.0689
189.912 23.8077 14.0297
160.03 20.9322 12.3466
179.747 23.7024 15.1243
193.121 20.9837 13.6402
177.779 19.6964 12.3938
187.207 26.6402 17.205
146.597 20.9138 12.2011
203.751 21.9993 13.9293
189.695 22.1606 14.2588
177.281 20.2414 14.2529
156.257 19.9172 12.2027
183.353 22.3011 14.3711
171.756 21.883 14.0478
160.565 20.4865 13.4684
187.518 20.6923 13.4941
186.887 23.8192 15.5649
156.385 24.5704 16.5096
189.347 21.537 14.5618
176.685 23.1243 16.0704
162.22 23.0282 14.9076
164.457 21.4404 14.7775
195.619 22.0067 14.9268
167.913 22.0668 14.7198
183.312 24.1988 16.3502
177.086 22.9082 15.6736
178.972 23.7763 17.0611
138.583 20.749 14.2674
183.998 20.5471 15.0487
157.508 22.8418 15.4653
176.446 21.1533 15.4837
142.865 19.1614 13.8252
196.138 22.1688 15.3501
170.238 21.9603 15.9518
149.31 26.285 18.2674
155.832 22.7745 16.4196
174.592 20.9254 16.1099
142.195 21.416 14.8023
131.219 20.2127 15.6939
170.81 24.9491 17.5597
171.958 20.0206 16.0465
153.874 24.1437 17.261
143.271 20.7942 15.0814
144.666 21.9506 16.7795
174.55 18.8999 14.3522
144.491 21.3805 16.3082
166.452 20.1822 15.9779
136.425 20.3958 15.6942
122.187 19.0659 15.3592
153.859 20.5756 16.8037
143.479 23.9947 17.2132
147.372 21.1671 15.78
127.971 18.9764 15.8439
128.973 20.0614 16.031
149.31 21.3764 17.1312
134.001 19.6105 15.1013
130.649 18.3677 14.4471
137.565 18.2559 14.6623
120.287 21.8631 17.809
132.822 20.6164 16.6209
145.594 20.3781 15.9867
150.069 21.609 17.2394
147.742 21.5388 16.6621
112.461 19.4415 16.8131
161.354 20.3447 16.9429
135.412 19.8389 17.2267
138.823 26.433 21.3831
119.056 22.552 18.4152
140.351 23.0526 20.0495
133.701 21.3074 17.6549
131.088 21.5098 17.2199
140.174 19.4322 16.458
133.837 20.8314 18.4322
145.53 22.8266 18.8031
180.85 26.6247 22.4801
140.234 20.4124 17.3287
141.764 17.4796 14.8589
116.492 22.6427 20.2294
154.468 22.8648 19.3564
136.924 19.8971 18.3111
133.632 23.5699 20.053
122.873 16.9955 14.8456
113.751 25.6187 23.3304
134.751 19.9558 17.6389
119.486 22.3794 20.1968
166.38 23.4511 21.471
140.04 22.5128 19.4208
100.434 19.539 16.6416
105.881 20.0694 20.0574
171.863 23.4924 20.2547
114.358 20.6095 18.1629
126.594 24.5486 22.4627
110.168 24.0474 22.5346
108.457 18.7196 17.0358
157.57 24.5548 23.2823
119.322 24.878 22.9721
97.5476 25.5066 24.8607
122.906 23.0289 20.4416
127.498 21.3078 20.1005
109.29 19.3411 18.0389
112.329 19.0262 19.5861
127.444 20.4034 19.9659
146.35 24.596 22.1437
102.893 23.8724 22.4681
119.66 20.7406 20.6471
117.808 22.1096 19.9531
127.873 20.1212 21.2722
117.671 21.2977 20.9171
112.013 19.3161 18.5335
101.893 22.1233 21.7244
99.8375 22.7068 23.3752
117.028 24.409 23.3153
134.052 28.2545 28.681
108.059 25.5511 24.8786
127.982 24.6524 25.7401
123.969 21.9323 21.7733
109.254 19.8657 20.1401
108.444 20.6637 20.6296
142.223 18.6403 20.2955
109.474 22.5227 22.8927
118.746 20.1734 21.4878
116.083 21.9202 22.509
108.286 24.9789 25.2034
107.361 21.8992 22.7202
109.915 17.963 19.1259
115.849 18.5418 19.6846
103.834 24.8105 24.426
113.303 20.8857 21.9791
124.627 25.1306 26.0182
113.105 20.2559 21.7424
121.363 19.964 21.0095
119.927 21.1345 22.1837
115.856 20.2421 23.0974
111.59 24.794 25.6382
105.387 19.8666 21.8048
102.83 22.5226 24.8441
90.4989 19.7087 22.0872
102.858 20.9839 24.5155
102.436 20.8195 22.225
97.5725 21.0609 22.9129
98.5186 21.5069 24.2846
113.414 23.976 26.3367
116.612 20.1741 20.819
93.3306 20.8633 24.8809
120.455 24.8708 28.1707
106.029 19.6974 20.4616
108.76 21.68 23.5936
120.282 21.2836 24.1885
91.0975 20.9168 24.402
88.5582 22.3174 25.2128
92.4015 17.1052 19.908
91.9691 18.7346 21.2256
99.8133 18.4199 22.3782
93.3993 20.4419 23.0484
116.162 20.0893 22.6032
86.116 18.2253 20.7904
98.3712 22.5673 27.2275
87.532 21.1565 23.4024
105.4 22.4327 25.7056
97.2354 19.8603 23.2022
119.166 19.3606 23.8043
89.3406 20.3737 24.3181
108.979 21.6945 25.5461
91.073 23.6986 28.4274
84.5816 18.2848 22.3277
94.9296 22.8606 27.7384
94.3427 21.9576 26.0257
91.0519 18.2158 23.3841
85.7768 20.8867 26.5211
91.958 19.4226 22.6506
103.762 18.038 24.0577
95.3357 21.2899 23.7515
100.309 16.2251 20.014
96.9371 18.0174 24.0295
87.0425 17.7173 22.6288
84.4426 18.9516 22.2016
88.2935 21.4118 26.2848
87.2344 19.3056 25.4749
96.2809 20.5108 25.9216
110.823 21.0851 26.6233
82.4341 21.4827 25.2884
112.076 20.6664 26.5394
79.0738 20.2441 25.6826
81.9886 23.0728 30.3226
82.924 21.6319 24.8639
81.4397 20.7345 27.0835
72.2965 19.3758 24.4854
112.49 22.0134 25.571
96.6016 22.5068 30.9344
65.9442 18.281 25.2841
98.1106 19.8862 26.348
101.723 19.8702 26.7338
89.8469 19.7642 26.3429
72.0041 21.9771 29.3112
85.8444 20.1871 25.7537
81.7331 19.7741 24.4352
105.904 24.2586 30.2433
88.861 20.7411 29.5611
84.7578 21.997 29.1842
89.619 22.0291 27.0662
92.6266 18.5561 26.7438
78.3693 22.7292 29.2084
87.8754 16.8236 25.5282
84.5754 16.7452 22.4956
79.8811 20.4277 27.2186
80.8793 19.3046 25.9305
65.0815 19.7944 27.9149
65.6192 21.3954 30.0775
125.34 19.4416 28.6131
72.7257 25.0482 33.0866
58.4207 22.4635 28.9298
87.9166 20.9846 32.5801
76.7706 19.8833 27.0466
80.3741 20.4424 27.0628
86.6547 22.8831 29.9414
85.7459 24.0569 33.2439
71.0261 21.1143 30.7994
81.9188 18.1755 26.8713
69.0028 20.6254 26.4725
73.9113 20.5197 31.6154
71.3639 19.8606 27.3958
61.1009 21.0388 29.4573
75.2847 18.497 26.5101
76.3809 17.8864 25.2235
75.4185 23.9091 33.559
78.0705 22.3168 32.1944
83.798 19.6364 28.6008
64.4199 21.4223 31.8333
68.7509 19.9218 33.1932
75.1849 19.8599 27.3966
82.3851 22.8445 31.7859
81.0528 17.9561 29.1558
83.0663 22.0401 30.7408
69.6046 20.4029 31.0513
77.3464 20.1013 30.0095
66.1577 19.7417 27.8136
72.0794 18.2398 27.9819
74.9976 21.1813 31.6506
70.8661 20.153 28.2602
49.213 20.1737 30.169
79.5433 22.7888 34.5288
69.7843 20.9011 32.4155
75.7301 20.2782 30.461
66.5169 19.9912 30.8634
78.1682 19.7203 29.6114
72.2386 20.0458 31.7356
73.2345 22.398 31.6219
63.3844 21.9714 35.8683
61.3118 15.8797 25.6173
64.0418 18.3151 26.5711
67.2564 19.8359 31.4902
73.9968 18.1538 28.7656
55.3019 17.351 26.9575
60.8222 17.4435 25.9536
72.0617 19.709 31.1223
66.6278 21.9357 35.7432
66.8195 17.9084 26.919
52.6545 20.7512 32.1
68.7008 19.5671 33.3806
69.0514 20.976 31.6843
80.6628 18.6457 30.8691
65.7276 20.9299 33.507
62.4406 17.8648 28.76
71.2113 18.7402 30.478
71.0719 21.0636 32.2691
55.6128 17.8934 28.8838
67.6149 19.8771 32.5282
73.3093 20.3038 30.4615
64.5931 17.6448 30.5747
68.2366 19.3883 32.8187
69.143 19.2388 33.4535
66.5053 20.5473 34.0203
72.8826 19.8361 32.5837
58.0053 19.0871 33.2128
73.8668 21.5697 32.2449
65.6711 22.5358 35.9886
73.3104 20.0942 34.3702
66.3232 21.0402 34.259
74.4289 19.0901 32.9029
62.3886 14.3507 25.8909
73.1758 18.285 29.6413
66.1625 17.5944 31.5701
53.4339 21.9875 36.6882
73.3755 16.9798 29.9594
66.689 21.486 36.7268
62.015 19.4896 34.6278
63.3704 17.5608 26.8677
64.6756 18.5348 32.9041
67.6415 20.1049 35.7815
69.8408 18.3337 30.7828
56.9161 21.9857 38.0915
62.9596 19.1407 36.0078
64.6748 18.7564 32.2203
66.3944 24.167 38.4612
67.9322 16.136 31.3802
56.7019 20.4178 31.52
70.8905 17.8103 32.9809
66.5846 18.5088 32.7828
59.6664 18.1359 32.5263
65.3293 18.001 30.9174
70.2487 16.1884 29.0251
56.5002 17.9498 31.8471
53.7123 19.0666 37.8558
65.1839 17.6906 28.0659
66.4142 23.2499 42.8127
62.0247 23.5097 37.1707
56.3476 20.4151 39.6497
67.0651 18.9301 31.0192
54.0333 18.3798 35.6522
68.8932 19.5385 34.4711
69.377 18.4618 36.4283
55.8785 17.9336 32.8985
65.8306 20.2975 36.0354
69.1035 19.8175 33.4137
65.1184 18.7613 32.3924
51.6824 20.1812 38.2411
55.2097 18.6952 34.8708
63.0971 22.4665 38.4676
62.9283 21.2487 46.9355
59.9527 18.0689 32.3949
75.4756 15.7932 28.0185
67.0085 18.8615 35.0298
65.1442 21.3931 37.9185
72.2499 20.3338 36.9845
61.6469 18.9217 33.0051
55.679 18.1569 36.8396
61.122 19.5471 36.9307
53.8186 19.1838 38.7098
58.4438 16.9632 31.5733
55.3467 17.9743 33.8712
60.5637 18.3998 32.4618
59.2878 17.0507 31.3605
62.0742 17.9682 33.3572
51.7327 15.6245 31.0537
63.5497 19.8072 37.4196
56.7159 16.6182 30.4334
55.655 17.6038 32.2798
55.413 17.8675 33.4938
60.9711 16.4251 32.2321
61.4975 15.0705 29.1485
57.8488 17.8862 34.8874
56.6116 20.4266 40.4298
61.8301 16.646 33.7439
53.2516 15.9112 30.527
55.4415 18.6287 34.028
52.5853 17.8746 35.6987
46.2154 17.0086 36.5623
53.9378 17.6342 32.7005
55.6042 16.2746 33.9177
65.6368 19.9865 38.467
58.668 15.7434 32.9526
42.3075 17.5153 34.7774
67.0839 18.1867 37.0292
52.5267 16.0781 30.5704
63.6237 18.0082 36.9648
54.7397 16.7333 35.9831
44.0315 18.1401 34.3229
57.3097 17.5005 33.6559
54.3688 17.2267 36.8875
55.6888 20.3111 42.3691
57.8003 19.3191 39.0453
45.7695 16.6324 31.834
61.0066 17.2904 34.3295
56.6393 18.9053 35.1886
54.4831 16.1 35.073
44.729 15.1838 31.9596
68.3727 17.2825 33.548
54.4509 16.8966 35.5694
52.5057 16.3872 32.7898
50.6184 16.6455 33.3912
52.8239 19.1694 39.6882
57.651 18.7454 39.8323
50.6967 18.574 39.0996
64.9515 16.8483 36.0456
59.1255 17.1262 32.3564
49.0449 20.4341 42.8147
50.7983 17.3298 35.0687
65.1577 16.4426 35.1597
47.9981 18.9264 38.73
52.6983 19.3726 43.0661
47.3281 18.3536 40.9195
49.1115 16.5787 40.2201
48.1529 18.5612 32.144
47.9542 17.6657 41.0807
46.4703 19.7428 41.3697
44.4027 23.8705 50.3811
46.4208 18.0899 39.7244
54.0674 18.084 38.7424
46.7667 17.4854 39.3246
53.2715 15.0117 32.4884
56.505 22.3518 46.8105
45.6437 15.6845 32.9802
46.7664 14.5591 33.5301
50.8853 17.4179 39.5513
59.7644 20.39 42.3776
46.0368 18.5004 37.5033
45.7888 17.1054 40.2887
53.0917 15.2507 34.8324
46.1453 18.4239 38.7933
47.9917 16.9095 37.4864
55.4898 16.8205 38.9666
48.5113 16.8996 35.7213
56.1611 14.2943 31.4486
52.9546 18.2519 40.1384
46.4211 17.8804 37.9552
50.2105 18.8155 35.6441
61.7414 15.1606 36.7873
53.6271 15.1305 32.2369
43.8363 17.8782 43.744
49.136 14.3623 33.1763
48.7959 16.26 33.311
45.1025 13.7484 32.2715
57.4884 15.8181 36.3911
51.4471 17.1879 40.9716
51.4422 19.419 44.1992
66.0928 16.6489 35.6952
61.0964 18.4388 37.1184
46.7238 17.5128 42.9311
60.947 20.0977 45.1833
51.7481 15.3969 36.069
67.961 18.0855 42.7146
47.5964 15.7735 38.3841
46.8619 17.0824 34.4692
46.58 14.2489 32.4587
45.636 16.8255 40.4275
51.2418 18.9293 43.2399
51.9382 15.0043 31.3156
40.8779 15.2513 38.3142
49.506 16.9653 37.8756
46.8756 14.5204 35.7794
45.0288 17.2777 34.1694
44.7022 14.6334 38.9892
50.3181 18.0236 40.4618
47.1231 17.0431 41.512
50.5762 15.4353 36.1097
52.7897 18.9104 43.1504
40.8115 16.4953 38.0792
44.6089 16.0011 39.7419
51.2946 15.5342 36.4641
43.7463 14.5103 33.2385
36.9366 16.0499 36.4342
42.8659 16.4344 37.6453
53.8954 15.739 35.1046
42.8455 14.1261 36.648
48.2242 14.1297 37.4677
43.5471 15.0889 36.4869
55.9375 15.0389 35.6665
43.1971 15.9513 38.1472
45.846 16.2658 39.3696
51.0159 14.4154 34.8581
50.3908 16.5023 37.4619
39.2514 18.4894 43.1989
51.4565 18.7801 45.1021
42.2456 15.0733 35.8286
46.0679 15.2985 39.4843
60.6883 17.2261 43.3682
49.9046 15.2053 40.0367
46.6416 15.5009 37.8167
55.6344 12.91 33.1562
46.201 15.3326 36.1932
53.1535 15.5283 34.6317
45.3859 15.2616 37.6727
44.2841 14.2996 37.041
42.903 15.89 40.3357
41.3013 16.6187 38.6546
52.8544 17.4694 39.519
47.017 16.4081 44.9782
45.9917 13.7506 32.563
43.0589 16.3019 39.9687
50.6665 15.4398 40.9049
43.6086 14.8978 40.7552
41.3947 15.8861 37.1083
45.3391 17.1544 44.6069
39.7881 14.6365 39.8573
42.3136 17.8521 41.4866
50.0801 14.5405 31.3104
39.7835 14.1428 41.1517
37.458 15.997 42.4178
59.6909 14.7364 35.1945
46.014 13.6729 35.9497
38.2021 14.196 33.617
48.1086 14.2514 34.5334
41.8237 16.03 47.087
52.5691 18.3928 42.5422
54.0776 14.8387 37.3352
37.0771 16.5187 43.2332
47.0277 16.8185 44.7697
51.5091 16.2667 40.7462
47.2585 16.7706 43.9346
38.6109 15.7391 43.6717
49.3586 18.5869 44.3719
46.0149 16.7109 42.682
47.4086 14.6139 38.7897
46.3911 15.1739 35.1296
45.2819 15.6878 43.0144
48.4128 16.6348 39.1939
86.4134 17.2333 50.539
40.9068 18.6102 43.3634
52.0951 15.2663 43.0706
58.6002 19.1457 48.0232
51.3104 13.8965 38.1698
45.1743 15.1442 34.2834
44.7595 13.9291 36.2269
45.278 14.0912 35.4902
45.7711 14.5761 42.588
44.6092 14.2794 35.5012
40.045 14.362 40.644
45.1201 15.3657 41.8693
39.7559 16.0772 42.0849
37.3532 17.1945 43.5645
44.0235 13.016 37.9296
44.1668 13.5892 40.2178
38.1356 14.9084 39.7433
47.2313 14.2612 40.0533
43.2707 15.324 37.9877
34.9646 15.6056 43.4918
33.1159 15.6742 41.9648
37.6019 13.0919 33.4272
37.3347 14.088 36.0925
34.1018 12.7245 37.1276
36.2795 12.9168 32.8405
33.6599 15.0858 38.1385
37.4803 15.9298 48.1149
31.8434 14.5884 40.7188
38.7125 15.1111 43.4472
39.972 14.8994 43.111
38.6625 14.7716 35.1652
29.6604 12.2201 34.2902
41.0704 15.6271 43.1444
35.1662 15.4559 44.2128
40.1605 13.5598 34.2479
40.378 13.2997 37.7739
52.1986 19.0254 47.9162
38.0661 11.8617 37.7202
40.2658 14.1945 36.7545
35.9484 15.5449 45.4313
37.8818 13.6816 35.7568
32.9408 13.4752 37.5378
36.4544 14.9243 41.4783
42.2118 13.9843 37.7746
32.5574 14.1072 40.0106
37.3454 13.9106 33.7926
40.7197 12.2569 35.5021
36.3052 13.2422 38.4195
39.4905 12.9644 36.8819
36.3021 16.2561 45.95
37.1634 15.5756 41.1061
35.633 14.1909 37.9976
39.9903 10.6156 36.0616
37.9408 17.586 47.0842
34.9828 14.8593 40.4466
35.6201 13.5156 40.7147
35.0463 13.9505 39.9702
27.5553 16.6114 45.5951
39.4431 12.4681 35.3147
39.2995 14.0504 37.385
32.9885 13.4047 38.5855
33.7109 12.3457 35.5182
46.074 13.7352 39.8586
40.685 13.5019 39.4934
35.0987 13.3177 38.2748
30.1639 15.1181 42.5173
41.4127 12.3079 36.9658
37.8391 14.0278 39.5105
38.4285 12.8382 39.0828
40.5716 15.4417 41.4639
42.5672 13.4805 42.5405
38.3557 13.5177 38.9937
43.6549 14.3815 40.9482
37.176 14.0904 40.0112
29.363 13.9687 39.2695
37.364 11.6731 37.8521
40.4272 13.891 41.3268
35.1712 15.0908 43.1744
33.9157 14.0759 42.5854
39.1121 15.3356 40.756
39.1427 12.268 40.9393
40.6943 13.4085 38.3967
35.9917 14.6631 40.5436
38.2496 14.5139 43.4437
44.0352 11.7769 40.601
38.9718 12.7347 31.1703
37.0024 12.5938 36.5497
32.7469 12.5296 37.6537
46.8788 12.6583 33.926
36.4665 13.9129 41.4803
39.9918 12.9938 40.6096
35.2078 12.6663 39.1301
37.1797 14.1418 39.21
30.5611 13.5803 39.2664
28.8396 12.6415 36.6517
35.8834 14.3168 46.5792
35.3891 12.683 42.8157
34.1414 15.7626 40.6923
36.4872 13.1593 42.871
39.3915 13.2878 39.6296
36.9574 14.2898 43.6931
38.0381 14.4543 42.7375
35.6842 15.1351 41.0659
27.3976 13.0331 40.3853
34.1993 13.2343 40.4569
35.1528 13.9301 41.1032
34.1974 12.5362 40.6535
29.3302 12.561 42.1295
37.7272 11.8699 30.7904
30.7564 15.0075 43.8761
30.6294 12.423 38.6364
31.0714 13.4197 42.7277
38.1956 15.0706 43.6731
35.7988 11.4995 31.5239
33.6203 13.6643 42.5961
35.3071 13.1263 37.4571
37.6144 11.7754 40.8794
38.784 12.3787 37.8664
40.6773 13.5524 42.755
38.8037 13.0792 38.9651
34.5226 14.494 41.1609
36.1454 11.8785 40.3929
37.4615 12.2153 35.279
31.1332 11.8518 40.5711
42.4392 12.4966 36.8995
35.7854 11.3124 35.5627
41.8344 12.0038 34.1791
35.3334 14.4246 47.507
34.8156 15.498 48.5444
31.5284 12.9881 37.074
37.7113 11.1579 33.6761
34.0953 11.7198 41.359
33.5711 13.2681 38.3143
32.9755 12.1879 42.1916
35.8826 14.8789 41.5929
33.0853 13.732 41.0297
28.4568 11.9114 40.1561
32.7722 10.6138 33.6058
27.5166 12.9105 40.8022
35.892 11.3186 36.2049
33.0537 16.1672 48.4357
36.3429 13.4933 45.6191
35.3857 13.7907 42.8618
29.2941 13.4759 43.3605
35.4456 13.4248 40.5915
32.7227 12.5544 43.7332
34.4474 13.2745 41.0041
33.9606 12.18 40.9807
32.766 12.7006 39.1925
33.2756 14.0503 45.5517
34.0683 10.7743 35.7578
40.222 12.8177 38.9761
35.7512 12.0686 40.5702
36.2558 11.7633 35.9299
39.9059 13.0497 43.4415
35.808 12.5715 41.8775
44.7541 14.0416 47.6761
33.3551 12.6974 37.7503
45.645 11.8838 36.4713
37.2622 12.7055 36.0656
36.208 12.0944 39.7645
32.0384 10.336 38.1758
29.9443 10.2886 29.34
31.2515 15.632 50.7977
33.3742 11.7112 36.8417
36.2283 12.0962 43.8364
33.7676 12.5941 36.7742
27.1774 11.6023 38.6246
32.8703 13.4102 42.9685
44.9973 11.7774 41.2291
30.8071 13.7161 44.2631
36.9507 10.037 34.5822
36.6393 13.6172 42.1286
28.6464 10.5435 36.7523
33.7403 13.2892 37.2105
38.2558 13.1042 46.6956
33.8295 13.4718 41.982
28.105 12.5777 41.2053
33.1005 11.1005 35.2879
32.4442 10.8722 34.6758
27.6516 12.5231 44.5911
33.8866 9.88948 33.3408
40.7018 10.2578 35.2965
27.2631 14.0313 44.6079
28.2892 10.4413 33.625
32.3571 12.1805 40.7674
32.9165 12.1608 36.0279
28.2922 11.8283 38.4648
27.0173 10.9252 36.6154
32.7194 10.0173 38.9412
32.0877 11.3832 36.0189
30.641 10.5704 34.4014
31.8068 13.9175 58.6874
31.6389 12.6245 36.4576
34.4075 13.9996 42.3628
32.9454 12.3501 39.7119
27.028 12.8396 41.2682
26.972 13.3496 45.3812
38.5538 11.0864 42.6001
33.1099 11.114 35.0853
36.7873 13.4941 45.3511
30.9743 11.8536 35.9374
33.4284 9.13897 35.6024
32.7973 13.5481 46.0693
40.379 12.4802 46.6921
34.1259 12.8104 35.7155
36.0992 10.9457 37.7336
36.2561 11.3343 44.3823
37.8458 14.1003 43.2617
31.9349 11.6571 36.0704
35.0684 11.3292 40.4688
32.2637 10.7663 34.9306
37.4849 10.3192 35.4423
27.0694 10.4302 32.0442
31.4139 9.97572 37.4224
27.3484 11.7047 38.2848
26.7991 10.961 39.8709
32.3564 11.9076 42.093
28.7017 10.1019 32.4273
29.7894 10.0528 38.8271
31.7075 12.5908 45.8543
28.6787 13.6151 43.6593
31.1823 11.9903 43.2248
31.9805 13.9549 39.7934
32.3088 12.2752 42.3923
24.9851 12.1579 41.5119
28.4983 12.595 41.8861
38.5158 11.7368 36.2884
26.7531 11.0293 40.9047
28.8685 11.7335 38.9931
32.7001 13.511 49.1271
28.6054 11.6557 40.8335
29.2736 13.0714 42.6838
28.7972 11.1419 40.0724
35.1566 13.346 47.4619
30.2744 12.9475 39.1697
29.4744 10.4038 35.6493
33.8613 11.721 34.4242
36.3098 9.46516 37.3683
29.6353 11.0127 36.3052
38.2545 11.7946 40.2079
36.529 10.9439 36.8997
34.3368 11.7662 43.7748
28.24 12.4976 41.045
33.8906 11.1874 40.8391
28.917 13.0629 43.9151
27.7611 10.3643 36.5828
29.5954 11.1708 35.8998
36.5739 9.44287 34.6876
32.0497 9.98441 36.0378
31.5535 12.9693 43.4885
34.5129 12.2523 42.7622
39.0858 11.101 43.3016
29.2564 11.8354 36.172
32.426 11.4902 45.2127
30.7452 12.8755 42.7804
35.3537 11.4786 42.2403
34.9158 11.1787 43.5645
35.893 13.4185 44.3965
39.4467 13.0147 48.3161
33.3337 12.7387 40.5155
42.0566 11.6057 41.8872
33.0782 10.119 36.6802
23.9978 9.90271 37.968
29.5967 11.2807 38.4885
27.7881 13.0215 45.8145
25.8253 10.9857 38.6642
32.0251 12.8625 46.0931
25.9542 13.7837 43.7772
28.4673 10.541 41.1763
34.9338 12.6287 47.8246
30.5266 12.3747 45.4591
30.2375 11.5861 41.1969
30.005 14.2293 48.2669
29.3763 10.4934 42.9766
31.7427 12.3699 41.3163
33.0082 12.5373 41.2759
28.0843 11.4197 39.8585
30.353 10.23 37.2324
33.6046 10.9338 36.9898
32.2252 10.7321 41.3147
29.9501 11.2022 43.57
38.4785 12.2891 36.0077
30.6886 10.0381 38.2366
35.501 11.1146 38.3875
32.1641 9.93017 37.6494
32.476 11.2468 43.9643
39.2919 13.264 47.0829
74.0827 12.1522 48.1031
28.1691 11.9828 40.99
54.6669 14.1015 52.3291
48.2987 12.7286 38.6611
41.3359 12.4796 47.1094
38.8492 14.3856 49.8484
37.367 13.0442 46.4234
33.1232 11.5431 43.0261
32.0117 10.5742 44.6671
29.3092 10.8239 38.2396
29.408 12.7414 45.6142
32.9009 11.0267 39.916
25.1984 11.9065 44.8156
29.1861 10.3501 35.6427
30.6416 11.4103 39.7421
28.3522 8.75502 36.093
23.4811 12.0808 40.9535
30.6208 13.1098 42.1965
27.8233 11.7866 47.2496
25.5956 12.4697 41.1133
25.2968 10.389 38.3306
26.3605 12.2051 42.7118
24.8766 9.87448 41.5484
26.748 10.9553 39.9163
24.2464 11.4679 39.0772
26.027 10.6733 41.503
30.4058 9.38808 38.2305
22.3807 12.3628 43.2466
30.0889 10.562 37.2671
35.8356 13.5043 48.8944
29.2967 12.0764 44.1904
25.4754 9.00236 34.2361
33.7697 11.1094 39.737
28.8662 9.95089 36.1618
31.6547 10.4679 34.2113
30.1822 11.2161 42.9719
31 12.291 48.3302
28.2765 10.6649 38.4267
31.6771 11.0563 46.2355
29.2312 10.7316 35.9894
28.3877 12.0411 42.8174
26.4298 11.9146 41.863
31.4991 11.0268 36.3296
30.856 10.6283 43.2542
23.9834 9.65907 38.549
24.7873 11.9325 41.7917
32.1777 10.0398 32.5469
24.875 11.7961 49.2469
32.7853 10.3006 38.8284
28.494 10.5795 38.0087
26.6683 10.7859 41.638
27.6073 12.3455 45.5406
33.1882 10.1056 34.5102
27.241 10.3653 39.6566
25.5098 10.6752 44.6764
30.5476 10.7741 33.1559
30.7221 9.93939 36.2651
22.3219 9.77271 36.1953
28.1315 10.4641 41.8809
27.5979 12.4497 46.3639
28.9125 10.5666 38.2976
29.0857 10.2834 43.2776
30.3805 11.4627 35.719
27.4432 10.9808 47.0886
23.2896 8.86167 36.9394
20.9377 9.67826 37.938
25.758 9.93493 42.6682
26.8186 11.5129 43.9766
23.7678 12.0942 37.0034
25.542 8.85144 36.7211
30.3278 8.90732 35.0529
26.2112 12.0765 41.131
33.6992 10.7896 41.2555
30.6144 11.0283 37.9666
21.7572 9.78296 40.8927
29.2123 12.1527 39.5423
26.6364 10.8383 41.1618
21.7519 10.666 40.2885
26.8297 9.12818 32.3881
27.0842 7.34226 30.3581
31.8222 9.18415 37.7088
32.2373 9.5638 38.0023
27.4673 9.22511 38.5402
32.1425 10.9216 37.5546
34.0291 9.74566 41.5096
26.7203 11.9677 36.79
32.6059 9.40845 34.8954
26.8818 10.7517 38.4307
34.5355 10.3456 39.8747
29.3267 10.2156 40.0446
29.3204 11.0362 40.9814
33.1771 10.0638 40.8646
35.2382 10.0351 39.848
24.9746 9.92325 47.7432
27.599 10.964 36.0884
26.1645 10.5385 38.1061
25.7808 11.6236 50.5793
25.8443 9.90476 31.8428
22.6887 8.9882 36.4786
25.3338 10.371 33.8546
25.5785 11.244 41.7275
29.0849 9.17935 36.592
22.1387 9.17843 36.2877
18.9905 9.19638 39.3169
27.571 11.2024 38.9909
28.9218 9.97137 37.5983
24.01 10.7296 43.1028
24.7752 10.2973 39.7155
28.1982 9.61083 37.7834
32.1361 11.2152 44.8332
29.9533 9.65 37.7056
26.9744 9.1649 36.4839
33.059 11.4258 45.5203
28.3954 10.9255 39.2923
29.9323 9.58126 40.7064
32.3752 12.8151 45.7311
25.8681 11.0275 37.4987
29.966 9.26521 30.4007
32.1487 10.7907 40.3068
27.6552 9.68395 39.3539
27.1063 9.06892 36.11
31.7022 9.98827 39.0524
30.7017 10.6533 40.1415
29.0746 8.52066 36.7674
24.6703 10.9876 40.8696
27.1862 10.4221 40.9585
34.4967 9.48615 35.7335
23.4031 9.50283 39.3314
30.6339 8.94623 40.9064
27.4883 11.2385 40.5401
27.4081 10.7186 41.9426
30.3709 10.2919 38.0487
27.451 9.62529 36.643
25.9354 9.72538 36.02
30.4117 11.2833 42.6261
20.5503 9.53543 39.422
27.6403 9.94084 36.4754
24.9914 9.65448 38.1081
23.0661 10.4267 42.0803
31.4691 11.2693 38.5382
21.6279 9.79959 39.6328
31.3602 10.8713 39.8377
27.9096 10.1336 38.6398
21.5758 8.92953 34.284
32.3579 8.90282 37.8693
27.2031 9.56004 32.3796
29.3316 10.2129 40.8608
26.2568 9.61298 39.6012
23.6596 10.3904 44.2419
30.2597 9.40694 40.9708
26.9032 10.5653 39.0433
26.6066 10.2112 35.2658
27.4209 8.55618 32.7847
26.8488 8.6625 42.1297
31.2764 9.5293 32.5062
23.9413 9.76522 41.0114
30.48 9.41486 40.4866
27.3288 9.24582 31.5136
31.0887 8.81263 36.0099
26.7646 9.37703 35.0705
34.9814 10.7304 40.0071
23.796 9.412 37.9794
27.1444 9.87504 35.1607
29.3998 9.16275 35.3863
26.2565 9.46857 47.6654
28.8812 10.2201 41.2103
28.0573 9.38235 37.4686
22.0742 10.293 37.9348
32.3867 9.03977 33.7252
30.9034 11.054 36.2349
21.0042 9.07809 34.6471
30.1389 9.21188 36.2506
28.7497 10.256 45.7935
28.9344 11.4538 42.0822
27.1766 11.0747 38.5868
31.3403 10.5515 49.7804
29.762 9.78436 38.783
19.3316 9.82503 42.3272
30.6525 10.8168 42.0724
31.038 11.6836 45.2772
22.5599 10.7215 35.5302
29.532 9.88781 37.3257
26.7608 10.446 40.8635
19.597 9.75585 44.2732
24.2263 9.11582 33.7363
24.5582 9.42342 34.706
26.6148 9.71665 44.3382
22.2697 10.0527 36.2705
17.6719 9.6783 40.425
30.3353 11.2564 42.416
25.3472 10.5683 34.3953
26.369 10.3516 42.1181
26.4366 9.91613 47.4887
23.821 10.8695 39.3042
27.3862 10.083 33.0367
24.7182 9.58483 41.2677
22.9922 10.6155 39.5819
27.9115 9.632 41.3319
31.8008 9.74849 41.0599
28.9128 9.21508 31.7306
27.9317 9.49934 37.7939
24.3238 10.3176 42.7598
31.6783 10.6204 31.7169
27.543 8.45275 36.9718
29.5684 9.90075 40.711
28.0417 8.90786 39.0069
32.2712 8.7103 41.5738
33.4795 12.0176 40.0602
32.7153 8.74249 34.5707
30.0725 8.65297 34.1708
29.7834 9.95671 44.8385
25.8823 11.4495 41.6471
32.356 11.0076 46.758
24.609 11.3627 44.4021
28.512 10.688 43.2896
29.2936 8.31885 37.6588
23.5053 12.7102 49.5413
27.603 11.4566 44.7071
29.7137 11.5448 43.5763
26.4808 11.1406 42.6395
26.3234 11.297 45.4216
23.7626 11.6823 46.6273
22.1372 10.1458 41.4512
26.3602 11.5589 44.875
28.0939 9.50006 34.3965
19.2003 9.6629 34.6882
26.6275 10.6747 44.4794
31.4877 8.95831 44.4251
26.1333 10.9852 39.7371
26.3138 11.258 44.4231
27.232 10.9204 43.3322
26.1818 9.54544 39.6307
23.8043 9.54191 40.7773
22.4382 10.7379 38.4096
27.6222 8.99069 42.1767
26.6807 10.2739 38.6773
25.6986 11.1512 39.7226
27.4605 12.2491 40.2603
31.3971 10.6176 47.3202
25.0274 10.4148 38.2528
28.5535 10.0047 47.8088
30.9768 11.4371 42.5034
29.3943 8.50082 37.7537
22.7042 11.3504 38.2527
31.3873 10.1467 40.1196
29.3542 8.58202 33.6965
27.0562 8.48635 33.2542
34.575 8.66957 39.8338
30.0699 10.9084 40.1907
26.7978 9.27732 34.8964
31.9246 8.97634 35.2971
25.7632 9.49974 42.3964
35.0623 10.1559 41.2886
24.909 10.078 41.1725
32.0044 11.1172 41.4579
27.1682 9.83562 40.1146
32.4056 10.906 36.4225
27.9721 9.08261 35.9989
29.003 8.35552 38.1255
26.5682 10.0831 36.6853
26.7246 9.96127 36.8036
32.9142 9.36647 41.5515
27.7763 11.1212 39.5195
25.5294 10.1964 45.5023
26.509 11.7439 42.3145
26.6463 9.59554 40.897
25.5111 10.85 39.5547
22.9559 10.4854 41.7052
21.3184 8.2269 40.7547
23.6219 9.83458 37.1146
22.3124 10.0001 33.8819
23.5267 10.3408 43.3916
23.0697 10.482 40.5587
29.814 10.3912 45.4061
25.3654 10.382 41.7478
28.5207 9.72315 40.7062
33.4885 10.3608 40.5635
26.8355 9.6903 38.4985
26.8703 10.3861 40.6429
30.9971 9.83012 37.1274
30.4927 11.546 47.153
28.6278 10.2887 39.0257
33.4198 9.6452 41.8526
34.6709 9.10751 37.9306
37.3583 9.60774 41.351
34.6294 12.9139 47.0897
33.9024 11.7953 42.7107
43.0055 11.0475 46.454
55.3856 10.3396 41.3134
25.3771 0 0