# pn-170911/RbIIR-48-RbIIR-1280-1959.psd
# Power spectrum* (dif=0,1,2) (really just |FT|^2)
# NOTE: only the first half! (symmetric)
# weeks: 1280-1959
# 3292 clock-days, 108 excluded
# PSD: 1441
337.53 0.10457 0.0446486
36734.1 0.864222 0.0495657
135949 2.80367 0.0492006
33750.9 1.2953 0.0477602
77964.8 5.984 0.0484514
12286.2 1.17605 0.0487404
9990.16 1.44052 0.0470408
6157.68 1.13958 0.0476826
5466.72 1.38411 0.048078
3851.46 1.1506 0.04685
3315.61 1.24107 0.0479267
2652.63 1.20205 0.0481949
2315.44 1.24905 0.0510383
1933.66 1.23102 0.0495129
1728.43 1.31281 0.0479493
1470.26 1.26984 0.0509131
1384.69 1.40062 0.0506719
1221.24 1.40979 0.0510239
1127.66 1.46086 0.0500735
1023.03 1.46242 0.0512337
979.826 1.55723 0.0519492
895.169 1.56467 0.0504803
852.815 1.6608 0.0523799
810.232 1.74393 0.0519506
755.722 1.74955 0.0523284
719.802 1.81259 0.0539904
667.725 1.86648 0.0544896
653.069 1.95001 0.0525527
641.156 2.07498 0.0563143
605.212 2.10054 0.0566309
599.64 2.28844 0.0590113
572.188 2.29592 0.0603777
563.282 2.43267 0.0609369
546.139 2.53467 0.0608685
550.907 2.70691 0.0649436
529.941 2.7871 0.0649815
506.592 2.81159 0.0684706
499.577 2.93256 0.0677515
491.661 3.08639 0.0703625
494.648 3.23114 0.0707973
474.523 3.29815 0.075517
461.512 3.41869 0.075499
464.323 3.56268 0.0780671
468.14 3.76019 0.08292
467.949 3.94957 0.0852983
436.693 3.91114 0.0839734
436.894 4.09175 0.0913245
436.862 4.24914 0.0912442
444.773 4.5509 0.0990384
415.71 4.51628 0.100381
433.54 4.85287 0.110086
415.353 4.84576 0.108974
420.086 5.07525 0.114532
406.388 5.16794 0.121118
420.737 5.46698 0.126186
409.885 5.59238 0.12706
390.528 5.53591 0.132456
398.922 5.83474 0.13858
401.752 6.14166 0.146775
384.585 6.08454 0.146507
395.857 6.45844 0.152163
386.857 6.5426 0.164871
389.526 6.80129 0.176129
380.558 6.83757 0.179152
376.246 6.99128 0.186146
378.594 7.3031 0.195251
384.455 7.61971 0.208253
381.892 7.82688 0.217474
363.75 7.54385 0.219125
361.683 7.85564 0.227104
355.263 7.96622 0.232938
345.628 7.9601 0.233836
361.019 8.64816 0.263368
351.057 8.67949 0.273061
342.197 8.65364 0.277129
348.037 8.99206 0.290176
347.913 9.30624 0.306895
345.672 9.3889 0.312214
348.935 9.77035 0.33324
326.235 9.31049 0.321199
325.549 9.60995 0.343734
332.554 10.0344 0.363395
338.089 10.4039 0.383959
327.387 10.3535 0.388415
321.099 10.4535 0.399255
325.535 10.8799 0.424014
321.352 11.0092 0.436435
316.109 11.0327 0.441651
303.341 10.8729 0.446754
313.646 11.4128 0.480556
314.086 11.7069 0.496502
307.659 11.7686 0.507699
310.692 12.1695 0.537553
292.222 11.7302 0.522102
297.554 12.0971 0.555695
298.725 12.452 0.575315
346.256 14.8962 0.697485
302.969 12.9988 0.626614
280.835 12.447 0.619837
279.358 12.6463 0.634179
293.161 13.6269 0.700203
285.5 13.434 0.690302
291.053 13.9499 0.737978
280.018 13.7863 0.735578
281.225 14.1009 0.775334
285.063 14.4169 0.795812
269.999 14.0868 0.807406
272.019 14.4982 0.830179
271.901 14.6344 0.85362
270.566 14.795 0.890037
260.986 14.6551 0.887439
263.32 15.0873 0.933674
258.983 15.1903 0.948799
262.818 15.6544 0.987861
278.104 16.7902 1.0864
252.642 15.5298 1.02339
257.15 16.0777 1.06695
257.014 16.3499 1.09944
253.163 16.3076 1.12982
252.988 16.7685 1.18816
253.815 16.8731 1.1952
254.403 17.329 1.24853
239.116 16.4617 1.20672
246.573 17.3858 1.28341
258.145 18.4044 1.37211
249.737 18.2808 1.40443
242.128 17.8793 1.39829
240.289 17.9267 1.4024
233.989 17.7056 1.42096
235.001 18.0661 1.45592
231.259 18.0057 1.49067
239.219 19.1575 1.61999
228.697 18.6199 1.57961
235.065 19.2303 1.63506
232.229 19.3465 1.68262
227.108 19.1765 1.69743
228.496 19.6201 1.76296
219.618 19.0647 1.72883
228.082 20.1686 1.86463
222.069 19.8621 1.85978
229.654 20.8014 1.97281
217.601 20.0631 1.92667
215.37 20.0809 1.94897
218.712 20.8832 2.0693
220.728 21.2103 2.12491
217.868 21.3405 2.1601
210.477 20.8667 2.14481
215.163 21.628 2.24808
213.008 21.6384 2.29314
217.471 22.3734 2.37663
212.65 22.3609 2.39698
213.364 22.4906 2.45089
197.212 21.0692 2.32844
206.934 22.53 2.54845
203.393 22.453 2.54052
211.105 23.5126 2.70228
200.152 22.5015 2.61506
202.107 23.1228 2.71714
199.438 22.9739 2.72188
199.684 23.3984 2.82665
198.209 23.6607 2.89493
200.019 24.1062 3.01291
193.181 23.4656 2.93904
196.585 24.2027 3.0722
199.29 24.7219 3.16324
192.771 24.4357 3.17021
183.072 23.4595 3.08795
189.359 24.7288 3.27998
186.242 24.318 3.2713
189.028 24.8694 3.35525
187.318 25.0269 3.43998
186.083 25.1446 3.51477
190.421 26.0572 3.66048
182.881 25.3545 3.59303
181.874 25.5741 3.68112
185.574 26.628 3.8753
180.262 25.7824 3.79279
181.922 26.2634 3.90348
180.633 26.4238 3.97354
180.05 26.5429 4.00461
176.018 26.2474 4.00962
177.089 26.75 4.12143
169.858 26.2842 4.12547
177.969 27.6344 4.39832
174.125 27.1433 4.35732
171.803 27.4578 4.47852
173.903 27.8306 4.53905
169.289 27.1806 4.46856
168.179 27.6187 4.65676
173.108 28.4965 4.78981
170.909 28.5719 4.87487
168.104 28.5885 4.97625
193.38 33.0118 5.71149
162.578 27.8782 4.89524
168.838 29.6095 5.29614
165.92 29.1538 5.21869
163.808 28.8625 5.21221
161.617 28.9768 5.30242
161.925 29.6168 5.4673
159.996 29.3321 5.50122
151.634 28.1195 5.36601
156.153 29.0401 5.54963
157.241 29.5632 5.68765
159.041 30.2775 5.86802
161.59 31.2446 6.09707
153.17 29.7716 5.87132
158.997 31.17 6.20823
153.729 30.3014 6.10043
154.516 30.8236 6.25797
151.814 30.8433 6.37055
154.208 31.2185 6.47435
154.991 31.767 6.5904
144.017 30.0836 6.37278
148.767 31.2497 6.69299
146.457 31.1582 6.74157
149.651 32.1068 7.00723
148.629 31.7478 6.92254
145.68 31.5788 6.96595
144.666 31.9383 7.11397
143.051 31.779 7.1739
141.826 31.7264 7.25627
141.473 31.8465 7.24594
144.84 33.0549 7.63468
140.316 32.002 7.44595
138.298 32.2386 7.57627
139.74 32.322 7.61756
137.414 32.4727 7.79889
139.448 33.1858 8.06328
142.528 34.0395 8.2589
140.812 33.8824 8.29393
134.163 32.6019 8.03521
137.248 33.7685 8.4439
135.108 33.5894 8.46897
137.067 34.2015 8.68799
132.359 33.4204 8.53597
137.261 34.9195 9.02933
132.06 33.7374 8.77455
131.845 33.7617 8.8137
128.732 33.6559 8.90752
131.15 34.7855 9.34167
132.377 34.9195 9.34412
126.918 33.8112 9.13476
127.564 34.3146 9.34203
127.659 34.9678 9.69358
127.362 34.7211 9.60921
129.656 35.7098 9.99632
125.016 35.1216 9.97357
125.026 34.7684 9.84823
124.813 35.3931 10.1354
122.424 34.7889 10.0604
125.147 35.949 10.4628
126.49 36.7891 10.7824
121.882 35.5114 10.472
125.373 36.6511 10.8993
123.883 36.5496 10.8893
121.303 36.4207 11.024
120.973 36.2303 11.0406
120.499 36.4446 11.1681
118.009 36.1186 11.1552
119.031 36.8314 11.523
117.097 36.4092 11.4926
119.26 37.2337 11.7475
118.932 37.2766 11.8948
117.662 37.4723 12.0771
114.348 36.449 11.8017
117.244 37.669 12.2089
113.811 36.8631 12.0611
115.061 37.7006 12.4595
110.434 36.3616 12.1509
115.398 38.0302 12.7034
111.29 37.2322 12.6598
114.972 38.1193 12.7701
109.735 37.3693 12.9291
111.545 38.1572 13.2216
113.707 38.7766 13.4372
108.457 37.5598 13.2023
114.454 39.8096 13.9027
105.143 36.7828 13.094
109.501 38.5654 13.7243
108.036 38.3101 13.6934
104.708 37.8714 13.8334
106.572 38.0836 13.8459
106.745 39.0358 14.3961
106.939 39.0287 14.455
105.37 38.6955 14.3427
107.661 39.5873 14.7469
105.767 39.9643 15.2565
104.443 39.46 15.1908
127.959 47.8154 17.8317
102.143 39.1077 15.1925
101.002 38.749 15.1689
102.079 39.1088 15.1869
100.509 39.1891 15.474
101.817 39.6274 15.5979
100.939 40.0032 16.0588
97.1538 38.4735 15.439
97.302 38.4797 15.4118
97.6269 39.1034 15.8277
96.6451 39.1191 15.9951
95.3003 39.0025 16.1677
97.5607 39.7018 16.4572
99.1198 40.9387 17.0103
96.849 40.2981 16.9184
97.3602 40.5166 17.0299
97.2783 41.1605 17.4715
93.2599 39.5471 17.0244
98.4624 41.6609 17.7853
92.587 39.9481 17.5179
93.7046 40.3523 17.67
93.4072 40.3243 17.7127
95.8338 41.4848 18.2001
93.6125 41.195 18.2626
93.5765 41.2662 18.4545
93.1964 41.5431 18.6021
90.3475 40.3062 18.153
93.4863 41.8508 18.9576
87.94 39.8357 18.2889
90.7661 41.2636 18.8535
88.2202 40.5563 18.9031
88.4014 40.5543 18.7085
83.8342 39.2929 18.705
89.178 41.3614 19.43
85.8098 40.1525 19.1134
87.4196 41.2101 19.6797
87.9256 41.7275 19.9461
85.7544 41.0607 19.8795
85.1909 41.0424 19.9739
86.3566 41.757 20.4111
86.3434 41.8993 20.5453
86.2789 42.2502 20.8784
82.9636 40.8984 20.3794
85.4195 42.2006 21.0322
87.3538 42.829 21.234
81.7648 41.156 20.9717
81.7993 40.8394 20.7243
82.5112 41.9727 21.54
77.6221 39.5857 20.4452
80.6913 41.0197 21.1522
80.8042 41.7229 21.7382
81.1164 41.8493 21.958
80.3005 41.5715 21.6098
78.6035 41.1404 21.8206
82.4086 43.3786 23.0415
79.2944 42.0316 22.6081
78.5777 41.5326 22.3485
78.4078 41.745 22.5451
79.5203 42.5785 22.9501
76.5731 41.8513 23.0457
77.817 43.1444 24.0591
79.0365 42.7907 23.552
76.9812 42.078 23.3374
76.7024 42.3963 23.7465
78.5244 43.6224 24.4549
76.321 42.2072 23.6433
73.0485 40.7485 23.0525
74.287 42.2981 24.2942
75.6453 43.1312 24.7818
74.403 42.9851 25.1828
76.4732 43.2852 24.8031
70.8293 40.8828 23.9021
73.7152 42.7949 25.0234
73.5646 42.6611 25.0967
73.0602 42.8556 25.4489
73.7149 43.0856 25.5237
74.5468 44.5507 26.7149
73.1251 42.9005 25.5594
70.3892 42.3799 25.6467
70.6657 42.9363 26.3105
71.2255 42.496 25.804
71.4966 43.3392 26.3539
69.6044 42.8621 26.5276
70.9401 43.9597 27.3419
67.1122 41.4705 26.0095
68.4385 42.4288 26.6433
69.614 43.8966 27.8953
70.7469 44.1753 27.9208
70.6282 44.3179 28.1649
67.2592 42.6787 27.4393
68.0084 43.0216 27.5606
66.7107 42.9903 27.9465
67.2164 42.8954 27.6961
64.8176 41.7832 27.4152
64.5604 41.9286 27.7548
68.0858 44.4905 29.7165
80.2983 52.2871 33.5267
65.7707 43.4744 29.0124
64.4243 42.9613 29.0027
65.899 43.3203 28.9318
64.5792 43.1932 29.2822
65.0189 43.6814 29.7392
64.6984 43.9478 30.1407
66.2866 44.8591 30.7236
62.3598 42.1095 28.9905
64.3447 43.9651 30.2841
62.1268 42.7515 29.9921
65.2784 44.3693 30.5079
61.3647 42.935 30.342
62.4504 43.4832 30.644
61.5496 43.0197 30.3537
60.195 42.3121 30.1646
61.8982 44.0149 31.5356
60.8858 43.0347 30.8736
61.3348 43.5616 31.1767
58.5788 42.2845 31.1782
60.8008 43.9199 32.083
60.724 43.8405 32.0308
59.4729 43.1397 31.8669
60.9862 44.386 32.5444
60.1368 44.1747 32.746
58.7476 43.0275 31.9845
58.8759 43.22 32.0273
58.6401 43.8264 32.9586
57.4192 43.0678 32.5853
58.0981 43.6782 33.0763
57.0028 42.9742 32.89
57.4106 43.4438 33.1323
56.7066 43.3584 33.6492
56.4679 42.4203 32.3821
56.0367 42.6662 32.7229
55.528 43.355 34.1015
57.9553 44.7511 34.8702
57.6658 44.9632 35.393
56.7734 44.2482 34.5722
53.9823 43.2105 34.8975
55.928 44.1528 35.3338
53.978 42.9526 34.874
56.7979 44.5216 35.2113
54.5982 43.836 35.5621
53.9515 42.9599 34.7891
53.5661 42.8834 34.7962
51.759 42.0363 34.6409
52.1775 42.4363 34.9834
54.6796 44.6749 36.7226
51.795 42.0993 34.7757
53.1289 43.8802 36.4094
52.0175 43.1446 36.3663
52.5731 43.2152 35.9743
50.7071 42.3637 35.6666
51.2029 42.9213 36.4711
50.1163 41.9764 35.6066
50.7011 43.3023 37.291
51.4347 43.0264 36.7047
52.1782 44.4479 38.1279
51.3577 43.6146 37.5672
50.6347 43.4553 37.7249
50.4866 43.5352 37.9332
51.3207 44.3085 38.5068
49.8712 43.8142 38.8632
49.6651 43.1446 37.8957
49.0977 43.2367 38.3878
46.7561 40.7501 36.1854
49.3756 43.9175 39.3031
49.98 44.9381 40.6514
49.3308 44.1627 40.4155
51.1212 46.8325 43.758
48.3444 45.5203 48.7973
117.769 101.217 80.0502
48.3969 44.3508 41.9103
52.4119 47.9178 43.8977
47.2764 42.9073 39.8043
48.5442 44.6185 41.3491
48.9972 45.1426 42.1946
46.9082 43.0405 40.1484
45.9605 42.4607 39.653
46.0695 43.1325 40.8678
44.4994 41.2322 39.0266
46.6124 43.9379 41.7362
46.479 43.8951 41.8662
45.7589 42.874 40.9139
47.4956 45.2299 43.0942
45.3809 43.2299 41.9996
46.4011 44.146 42.2447
44.7143 42.8633 41.2903
43.1466 42.1072 41.5365
44.4177 43.2448 42.9866
45.2556 43.3852 42.2943
43.5422 41.9565 41.0594
42.9924 42.0638 41.6607
44.2488 43.5425 43.2796
42.7758 42.9069 44.7543
55.4935 54.3014 51.7545
43.7988 43.5435 43.6568
42.3667 42.2972 42.9725
43.8283 43.9838 44.3118
41.7782 42.2632 43.6034
43.693 43.6774 44.4294
43.0822 43.7357 44.9339
42.9023 43.1397 43.7776
42.3709 43.588 45.2672
42.2318 42.8767 44.0722
41.9206 43.0449 44.5079
39.3787 40.6903 42.8318
41.685 43.1598 45.2742
41.706 42.5779 43.9146
40.9746 42.8272 45.1296
40.7921 43.5416 46.8085
41.5736 43.2752 45.6647
39.2829 41.8271 45.3946
39.9685 41.8716 44.8888
40.543 42.5035 45.0198
39.4817 41.8536 45.2565
40.0102 42.5554 45.911
38.9627 41.8041 45.7322
39.6956 41.8693 45.1659
40.1236 43.2821 47.081
39.5722 42.9189 47.0088
38.7205 42.0664 46.2994
39.0337 42.7892 47.1917
38.8205 42.5932 47.2541
39.5586 43.2487 47.752
38.7346 43.0083 48.183
38.6204 42.3709 47.1616
37.453 41.8978 47.5966
38.0825 41.5346 46.1714
37.623 42.4778 48.126
37.3875 42.0242 47.7106
37.5798 42.3365 47.9551
37.0666 42.3826 49.1115
37.2696 41.872 47.7881
36.8987 41.7844 47.6969
36.8792 42.764 50.0389
36.8775 41.532 47.6256
37.07 42.6064 49.1989
36.142 41.7007 48.3989
35.3734 41.1233 48.2153
36.0412 42.0848 49.8277
36.3048 41.8558 49.3662
36.0044 41.7877 49.1033
35.5085 42.2873 50.818
35.4813 41.4383 49.2434
34.3982 40.4057 48.4446
35.8133 42.5353 51.1465
36.7986 43.8905 52.3687
35.3468 42.1554 50.8606
35.3035 42.1453 50.7519
35.4486 42.9313 52.3385
35.1121 42.4382 51.9543
34.6812 41.3456 49.5951
34.1906 42.5299 52.8891
33.4337 40.7252 50.9726
34.2359 41.6279 51.8601
34.4004 41.7206 51.2714
33.3344 40.8494 51.377
34.5094 41.9757 51.5666
33.9217 41.7541 51.6422
33.5917 41.932 52.317
33.8212 42.2474 53.0908
32.8079 40.9202 51.6351
32.2331 40.3221 51.2876
32.7944 40.9341 51.8429
32.0217 40.2018 51.1494
32.1657 40.7158 52.1229
31.5038 39.9362 51.344
32.0076 40.672 52.1828
32.0408 41.0594 53.067
31.5181 40.5487 52.9353
32.0381 41.1395 53.64
31.6457 40.312 52.4469
31.9765 41.3491 53.7228
31.4376 41.4797 55.1879
32.1642 41.3751 54.0078
31.9479 41.6476 54.7406
31.4855 41.039 53.8531
31.1117 41.3088 54.6361
30.4199 40.5442 54.9868
31.562 41.9406 56.2418
30.6795 40.7696 55.0365
29.9375 39.3292 53.0588
30.8057 41.2067 55.8833
30.4391 40.0239 53.825
30.777 41.5132 55.817
29.3097 40.0446 55.5627
29.9222 39.7842 54.3461
30.0814 40.5793 54.9443
29.1599 40.0502 56.3643
30.0211 41.6944 60.8394
38.1607 50.51 65.2016
30.3389 40.9193 56.0167
29.2618 40.8135 57.2255
29.9454 41.5062 57.6644
29.3211 40.526 57.0947
29.6309 40.7212 56.6498
28.4283 39.6973 56.2912
28.0376 39.3097 56.6748
29.4072 40.905 58.0905
29.0248 39.9895 56.3224
29.0472 40.2666 56.4307
28.7785 40.6028 57.6059
28.7061 41.2798 59.7543
28.2137 39.5779 56.5396
26.7716 38.2828 55.8174
27.8632 39.723 57.2789
27.1307 39.1038 57.7338
28.2255 39.7435 57.0791
28.1114 40.4843 58.6873
27.8988 40.4276 58.7016
26.932 39.0774 57.7945
27.7959 40.2463 58.7416
26.7268 39.0129 57.8098
26.8849 39.0315 57.4407
26.3577 38.3474 57.3317
27.6455 40.6438 59.4136
26.3422 39.3432 59.5014
26.5591 39.1589 59.382
26.9273 39.2539 58.7411
26.7299 39.6834 59.8519
26.7896 39.5067 59.351
26.5712 39.2269 58.5201
25.7287 38.2984 58.2707
25.9325 38.8176 58.8941
25.77 38.5232 58.9313
26.053 38.9192 58.5794
25.4049 38.7521 59.9668
26.2314 39.8521 61.1861
25.5076 38.8811 60.3595
25.4982 38.1443 58.0803
25.2628 38.8707 59.9048
25.1956 39.0769 61.042
24.5788 37.776 59.4961
25.4128 38.9788 60.4791
24.3509 37.5649 58.9734
24.433 38.2025 60.4654
24.4531 38.2989 61.6203
25.2919 38.4457 60.1321
25.1846 39.53 61.9799
24.1415 38.1268 60.9129
24.119 38.0464 61.2165
24.3707 38.0734 60.6705
23.6871 37.1295 59.3523
23.6408 37.26 59.9096
24.0301 38.0187 61.0122
23.982 38.082 61.5502
23.6533 37.5629 60.7702
23.4221 37.774 61.7367
23.5176 37.1992 59.8587
22.7135 36.346 59.125
23.6142 38.7482 63.5539
23.3099 37.0675 60.1617
23.4144 38.3002 62.4383
22.527 36.7521 61.2553
22.671 36.3108 59.8772
22.9601 38.0373 63.3858
23.5482 38.5355 63.3205
22.8985 37.7436 62.9758
23.0157 37.8412 63.2377
22.9636 38.3138 64.4372
23.0225 38.2452 64.2115
22.5551 37.0078 61.6438
22.1193 36.9148 62.7708
22.2038 37.2484 62.9772
21.3339 35.6198 61.0687
22.3511 37.2791 63.6779
22.8754 38.4272 64.8419
22.162 37.308 63.5747
21.7662 37.0449 64.3514
22.6263 37.7789 64.2259
22.3507 38.0261 65.4835
21.5175 35.5931 60.9871
22.2478 38.2767 65.1522
21.3866 36.9979 64.5466
21.2898 36.5753 63.8365
21.3947 36.6743 64.3108
21.6936 37.0233 64.6014
21.723 37.4563 65.0023
20.9125 36.5431 64.7386
21.2769 36.3478 62.8417
20.7357 36.7244 64.743
20.8166 37.0434 66.9114
21.3189 36.89 65.6677
21.6319 38.4198 67.8236
20.8676 36.8077 66.5665
20.7666 37.717 73.7688
27.8884 47.0381 75.7197
21.1089 37.4363 67.0075
20.7329 36.96 66.4576
20.5074 36.7215 66.6171
20.7277 37.4416 67.8313
20.3104 36.072 65.2965
20.0766 36.2556 66.2031
20.0024 36.0433 67.0453
20.8348 36.8552 66.125
19.5377 35.2457 64.6838
20.1002 36.3081 66.1413
19.9947 36.3265 66.1206
19.4044 35.2462 65.1235
19.284 35.361 66.4765
19.9398 35.8894 65.5868
19.5795 35.8925 65.8593
18.5266 34.364 65.3247
19.603 35.7626 66.7899
19.3907 35.3152 65.7669
19.4551 35.9536 66.6491
19.2426 36.1885 67.8844
19.0619 35.4069 66.5916
18.873 35.6034 68.3845
19.0504 35.3604 67.7616
19.4062 35.5121 66.6793
18.6652 34.7343 65.9907
18.8738 35.0937 66.0999
19.0187 36.0113 68.0856
18.5987 35.4095 67.9571
18.325 34.0597 65.3936
18.603 35.4575 67.7623
18.5533 35.6061 69.3453
18.8679 35.5184 67.7314
18.5118 35.7577 69.2781
18.2388 34.1477 65.3105
17.4133 34.0621 68.2551
18.484 34.83 66.7261
17.5299 33.9868 67.5945
18.5438 35.5278 69.2762
18.3678 35.5756 69.6773
18.2448 34.8024 67.2803
17.8659 35.3166 69.4207
17.4448 33.9561 68.1891
17.5671 33.7625 66.8182
17.6746 34.6177 68.5237
17.1075 32.76 65.2822
17.3343 33.9683 67.9101
17.7757 35.2254 71.4076
18.3518 35.525 69.4157
17.4291 34.3418 69.0043
17.4097 34.6271 69.9464
17.594 34.7173 70.2489
17.3164 33.7624 67.1967
16.9831 33.952 68.5537
17.2265 34.5777 70.0283
17.1256 33.9251 68.0789
16.6391 33.8285 69.6057
17.2841 34.5391 69.2708
16.5514 33.6672 69.0636
16.503 33.1458 68.6351
16.7292 33.7155 68.9663
16.4825 33.4252 69.0962
16.5281 33.6425 69.2817
16.5843 34.0427 71.5426
16.8735 34.1783 70.5721
16.5428 33.3278 68.8147
16.2318 33.1363 69.726
16.7484 33.9927 69.5272
16.4275 34.1004 70.9987
16.5161 34.1221 71.2165
16.1536 33.4355 71.3123
16.47 33.4559 69.7206
16.3136 33.835 70.6596
15.6667 32.2935 68.815
16.0185 33.4231 70.9349
16.1016 32.5254 67.1153
15.9223 34.2045 71.4749
15.362 32.798 70.678
15.6881 32.9342 70.7925
15.5304 32.0838 68.4772
15.5916 32.8762 68.7526
14.9021 31.9264 69.9927
15.7427 32.7962 70.6097
15.8729 33.3213 70.0272
15.0945 32.1976 69.7527
15.5893 33.5227 71.3702
14.9727 32.3593 71.5407
15.133 31.4258 67.99
15.1221 32.2671 69.2434
14.606 31.8204 70.5932
15.2359 32.1167 68.9959
14.6021 31.8394 69.8612
14.8721 32.4701 71.7997
15.158 32.7214 71.3113
14.7312 32.1684 72.1683
14.8182 32.9121 81.5886
20.0749 41.3579 80.6081
15.1799 33.1632 71.113
14.2227 31.6078 70.8455
14.3081 31.023 69.8085
14.773 32.2535 71.1351
14.8126 32.6858 71.3625
14.3646 31.9333 70.7422
14.172 32.0937 73.358
14.6078 32.3191 72.7589
14.6087 32.3875 74.0815
15.1368 33.3324 73.8205
14.2898 31.3116 70.9016
14.3167 32.2247 73.9852
14.9501 32.7927 71.915
13.9391 31.6328 71.9444
13.9655 31.4047 72.4271
14.045 31.1825 71.4898
13.8618 30.825 70.9513
14.089 31.6647 71.3105
13.7611 31.4377 73.5475
14.3738 32.3844 74.2152
14.1797 31.803 73.0479
14.0064 31.2579 71.6883
14.1295 31.7594 70.8195
13.4926 31.5506 73.1833
13.7908 30.7769 70.5908
13.7456 32.4389 75.0215
13.591 31.2141 72.716
13.5668 31.5641 73.7966
13.234 30.2736 72.2982
13.667 30.9672 72.4433
14.0557 33.4926 79.4487
13.6761 29.9668 69.4352
13.0187 29.9408 71.3757
13.2489 30.4479 70.979
13.3555 30.3938 68.8626
12.5557 30.7903 74.1007
12.9863 30.2125 73.7566
13.2599 30.036 70.4754
13.0003 30.3974 72.3338
12.7737 30.0692 72.59
12.8097 29.1491 69.6541
12.8087 30.1116 71.4405
12.6656 29.9715 72.4328
13.1415 30.8206 72.8976
12.5281 29.2182 70.5727
12.6768 30.3078 74.5318
13.3217 30.9345 72.8354
12.821 31.018 74.7816
12.8413 30.2877 72.2509
12.2531 29.0749 71.3874
12.9717 31.3123 74.4217
12.1932 29.2627 72.5693
12.4758 29.8677 74.0561
12.6172 29.5033 71.2699
12.4139 30.1654 74.4941
12.4621 29.3044 71.4866
12.2037 29.2566 71.5384
12.5643 30.9907 75.7929
12.575 30.266 73.2786
12.1181 29.7039 74.9311
12.4295 29.6345 73.6644
12.6877 30.5576 74.4099
12.3762 30.1511 74.6223
12.5431 31.0959 76.5866
12.1842 29.7789 75.1295
12.4049 30.2188 73.9511
12.0534 30.1296 75.0524
12.0346 29.5463 76.3917
12.4733 30.0963 75.0568
12.4304 30.619 76.535
12.3631 30.028 74.2687
11.9662 29.981 75.602
11.9955 29.3774 74.0318
11.7473 28.7749 72.7808
11.7978 29.6899 75.4252
11.8256 29.1512 73.8837
11.8227 29.8149 76.1927
11.9752 29.741 75.8061
12.0339 30.2959 76.8288
11.6561 28.8966 73.3301
11.3963 29.1259 75.3648
11.5394 28.3289 72.9328
11.6116 29.5974 76.8928
11.9286 29.2466 73.3032
11.5959 29.1077 74.6902
11.5576 29.0768 73.6329
11.4496 29.7295 77.0316
11.7592 29.8842 76.3233
11.195 28.4372 74.7862
11.4958 29.5864 76.9293
11.5007 29.1138 75.6292
11.3296 28.5266 73.577
10.9787 28.5417 76.7887
11.657 29.508 77.3257
11.4347 30.5407 90.6854
15.0874 36.4055 82.9961
11.3274 29.0244 76.1261
11.6104 30.6687 79.4733
11.3348 29.0262 76.1172
11.1981 29.0238 76.2237
11.1125 28.9994 77.147
11.1715 28.9217 76.4647
10.9301 27.2652 71.6743
11.0254 29.263 76.7119
11.0216 28.875 76.0768
10.784 27.6353 72.5571
10.6396 28.5272 75.4817
10.7837 29.0531 77.6728
10.9038 28.8316 78.1365
11.0351 28.3133 73.6076
10.3913 28.344 77.1504
10.591 27.5839 75.058
10.732 28.3442 76.9032
10.7362 27.7775 74.9318
10.539 27.9789 76.1478
10.654 28.1474 76.7004
10.684 27.6821 74.4897
10.5511 27.8382 73.9901
10.2096 27.2346 74.8661
10.7271 28.5763 75.9905
10.4322 28.3501 77.5337
10.4557 27.5362 75.2476
10.5144 28.0561 74.935
10.0312 26.9799 74.8719
10.3091 27.6033 75.3811
10.1377 27.0665 74.2624
10.1925 27.1465 74.0508
10.1235 27.6858 76.3133
10.4001 27.7407 74.6186
9.94515 26.7251 73.2239
9.90874 27.0941 74.4599
9.79043 26.6401 74.0894
9.99636 27.1072 75.9526
10.2295 27.6977 74.8209
9.8194 27.6035 77.6922
10.0352 26.3971 73.498
9.89775 27.3483 75.5289
9.75611 27.1052 76.9635
10.1297 27.7912 78.2133
10.1885 27.5678 75.8619
9.85213 27.3347 75.808
9.45896 25.5387 73.0001
9.59716 26.5395 75.0732
9.70275 26.5071 75.0252
9.90412 27.1865 75.4116
9.64466 26.7568 75.3723
9.51766 26.4184 75.7333
9.91566 27.2183 74.1484
9.20012 25.476 73.9485
9.55571 26.9295 76.0606
9.63026 26.7611 75.3734
9.39882 26.5412 74.7901
9.37302 26.2354 75.1055
9.54935 27.2059 78.1817
9.55841 26.1007 74.658
9.45982 26.3406 74.0625
9.24718 26.4806 76.5567
9.479 26.7795 76.8188
9.49265 26.8568 78.3766
9.57024 26.1559 75.2337
9.48366 27.0922 76.9441
9.3598 26.2768 75.5829
9.31393 26.6656 76.4724
9.29201 26.1043 74.8951
9.08172 25.9278 75.2306
9.20214 26.4473 76.4729
9.24362 26.3699 77.2605
9.33735 26.6974 77.126
8.99156 25.7423 76.8253
9.2454 25.7923 75.5454
9.17145 26.3734 75.851
8.98773 25.7711 75.7435
9.09923 26.307 77.6091
9.32142 26.7625 76.7902
8.92059 26.1259 78.7893
9.25725 26.3748 77.8441
9.11166 25.9183 76.3846
9.00557 25.1313 71.5124
8.33717 24.7075 75.0232
8.90383 25.4386 74.2344
8.69682 25.3417 75.6598
8.90125 26.0013 77.0415
8.97036 25.834 74.9113
8.67826 25.7308 76.383
8.53161 24.812 75.2548
8.7581 25.6924 77.0901
8.70601 25.27 75.7553
8.70967 25.4289 77.0616
8.89527 25.548 75.5712
8.59207 24.7839 74.8346
8.67417 27.7105 99.0559
12.3463 33.3019 82.358
8.50306 25.4389 75.982
8.52982 25.2527 76.1553
8.61505 25.3165 74.8588
8.37717 24.9158 75.6536
8.61876 25.1876 74.1972
8.36931 25.5743 78.2325
8.55182 24.7829 74.2425
8.28185 24.705 74.8241
8.3077 24.6311 75.4723
8.36615 24.4788 73.9505
8.31106 25.0982 76.7082
8.37476 24.8865 75.5748
8.12821 24.0623 73.8282
8.14653 24.2613 74.1845
8.14192 24.3038 75.2793
8.34819 24.8813 77.5396
8.47815 25.099 75.4432
8.16604 24.1971 73.2463
7.84795 23.5092 74.1755
8.26276 24.8797 74.853
8.04208 24.4456 74.9906
8.00991 24.278 75.0117
7.94058 23.6521 73.2508
7.9893 23.9122 72.9246
7.89 24.6553 76.0349
7.93196 23.8817 74.6211
8.11037 24.5756 76.1619
8.03903 23.8715 71.8553
7.59188 23.2156 71.7212
7.63485 23.7211 75.8993
8.14105 25.2306 77.9797
8.07097 24.197 75.2419
7.93104 24.1836 75.0104
7.84184 24.1212 75.6646
7.83282 23.9124 76.0358
7.97799 24.2646 74.723
7.64171 23.4181 74.4379
7.85451 24.2057 77.0747
7.92228 23.558 72.291
7.62386 23.4512 73.3269
7.66784 24.1056 76.0852
7.72888 23.7551 74.7833
7.66536 23.5498 74.5181
7.70557 23.6807 73.6829
7.47629 23.3802 74.263
7.48324 23.0481 73.2308
7.52478 23.4831 75.1167
7.56684 23.0567 74.3953
7.57764 23.1896 73.7767
7.59424 23.4587 74.6563
7.66118 23.6339 74.7508
7.5146 23.3161 74.5187
7.62201 24.2204 77.6315
7.72601 23.7507 75.0204
7.36932 22.7686 73.3782
7.53325 23.4385 72.8414
7.20698 23.2143 76.7729
7.7259 23.9055 76.4391
7.5263 23.1639 74.2543
7.47733 23.6583 75.1813
7.42526 23.4811 75.9352
7.49974 23.4182 75.2864
7.46354 23.8028 75.0959
7.23775 22.4673 72.2603
7.13644 22.7746 73.5575
7.23032 23.1075 75.4264
7.31347 22.9386 75.5989
7.41544 22.74 71.9993
7.05464 22.7385 73.0124
7.10056 22.6123 72.6893
6.92806 22.0953 73.3524
7.12127 23.0324 74.8941
7.12072 22.6374 74.8452
7.24111 23.1366 74.2396
7.07805 22.7101 74.6013
7.20361 22.9624 74.3618
7.05374 22.564 74.4048
7.10675 22.7303 74.6339
7.07672 22.574 74.8984
7.18616 22.7713 72.3745
6.816 22.5373 74.7736
7.01164 22.1314 74.092
7.15547 22.6587 73.6928
6.94605 22.2729 72.5905
6.85867 22.1604 72.6814
6.77859 21.6818 72.3653
6.89134 22.4395 73.9847
6.83901 21.7892 72.6327
6.82208 21.9588 73.6687
6.89913 21.945 71.4959
6.711 22.3222 74.7077
6.85622 22.2676 74.588
6.91823 22.3914 75.2327
6.94488 22.654 75.2974
6.92692 24.7994 102.297
10.1268 28.9993 76.0042
6.65989 22.588 73.203
6.56941 22.346 76.5117
6.87642 21.8609 72.0633
6.61482 21.6531 73.0326
6.69499 21.9565 74.2924
6.80578 21.9867 73.2197
6.59569 21.3141 71.3929
6.61905 22.1413 73.788
6.57769 21.3912 71.3555
6.56205 21.9767 73.2181
6.51943 21.6736 73.6545
6.58802 21.6663 74.5308
6.80535 21.8827 73.2084
6.67617 22.249 72.3977
6.38324 21.2347 73.2501
6.52743 21.4711 73.6117
6.67535 21.965 74.5063
6.60507 21.6918 73.7059
6.5165 21.541 73.2212
6.51416 21.1069 72.3683
6.51981 21.5458 74.3488
6.66745 21.5365 71.0332
6.35027 21.576 72.5516
6.33934 21.1742 73.6783
6.50256 21.9415 74.7735
6.48686 21.7932 73.8448
6.44007 21.1936 72.4886
6.3486 21.4701 73.0308
6.41009 21.5102 73.5557
6.32989 20.9235 73.3994
6.37682 21.4347 74.4227
6.45143 21.2214 73.1987
6.44117 21.5307 72.8593
6.34827 21.5855 74.5794
6.41334 21.5116 74.7801
6.50247 21.3695 72.2715
6.27907 21.5495 73.3392
6.2962 21.3543 75.1436
6.41632 21.3673 73.3848
6.31891 21.4367 73.4976
6.28041 21.0457 71.5115
5.99863 20.0487 72.6931
6.339 21.2696 72.8277
6.17617 20.5299 71.5244
6.12429 20.594 70.6283
6.1109 21.553 73.8316
6.16203 21.0008 73.0629
6.0508 20.2103 71.6574
6.17843 21.078 72.4307
6.1816 21.4686 74.1697
6.20696 20.9222 72.9407
6.0778 20.7418 73.4444
6.24687 21.4662 73.7485
5.99754 20.1508 70.6652
5.91784 20.3988 72.4437
6.04546 20.3577 72.8452
6.08678 20.3991 70.2757
5.91872 20.3693 71.8951
6.04818 20.8215 72.3986
5.93283 20.3419 73.1797
6.16068 20.953 71.931
5.92783 20.7486 72.4208
5.95406 20.7239 74.6844
6.13642 20.7987 72.4185
6.00374 20.6569 71.6632
5.81709 19.7432 69.4705
5.77888 20.3604 72.4904
5.8537 20.0422 72.2957
5.86371 20.1783 72.6878
5.95517 20.341 74.3082
6.1439 20.7677 71.861
5.88095 20.8273 73.0572
5.89512 20.5525 71.8532
5.78048 20.0866 72.7281
5.91994 20.4695 73.1329
5.92391 20.1147 71.1041
5.81853 20.1468 71.8705
5.80567 20.2791 73.8526
6.02334 20.9749 72.3403
5.80327 20.5907 70.7912
5.55506 19.775 72.4802
5.79654 20.5475 73.6344
5.81341 19.5208 71.2197
5.78096 20.0961 73.0295
5.86753 20.4866 73.6561
5.9592 20.7364 73.2213
5.78646 20.1205 72.4249
5.76148 20.2033 73.6607
5.86574 20.312 72.8315
5.80565 20.289 71.9678
5.72349 19.9677 71.6609
5.73581 20.1764 70.9406
5.60321 20.7184 75.4464
5.88045 21.1213 77.347
5.98416 23.3109 108.497
8.877 26.9695 79.1689
6.04164 21.2479 75.8171
5.97786 20.7784 71.0799
5.51026 20.0242 73.598
5.77882 20.7019 74.2619
5.81291 20.8553 75.3358
5.77685 19.9384 72.7313
5.65583 19.5817 71.6737
5.64505 20.1592 72.7494
5.67775 19.8142 72.5712
5.64676 19.8064 70.2358
5.42931 19.7928 73.967
5.7741 20.1533 72.8781
5.65268 20.1656 72.2871
5.51512 19.5372 70.9389
5.43744 19.2148 71.342
5.58112 20.5695 73.9074
5.59655 19.8844 72.6862
5.53078 19.2863 72.2059
5.60804 19.7676 71.0771
5.37607 19.2623 72.0045
5.5334 19.4921 73.0883
5.63988 19.7652 71.156
5.46639 19.4484 70.5319
5.35974 19.111 72.442
5.58232 19.9016 72.1446
5.55046 20.2317 73.1913
5.42703 19.1093 70.4364
5.42424 19.5783 70.2844
5.30086 19.054 72.1551
5.4776 19.6804 72.9243
5.49648 19.7723 71.5615
5.34926 19.2666 71.0869
5.30853 19.0534 72.4175
5.53611 19.8582 71.33
5.43052 19.9457 72.1933
5.34358 19.3466 72.6291
5.42225 19.5345 72.4249
5.40056 19.71 72.9219
5.44801 19.5758 72.5542
5.34641 18.8705 72.121
5.46788 20.002 72.2223
5.40788 19.7001 72.5742
5.37092 19.0914 70.2188
5.20557 19.1171 71.361
5.26091 18.7836 70.3272
5.18515 18.6589 70.9368
5.38142 19.5873 72.1168
5.34809 19.126 70.1459
5.25302 19.2491 72.6842
5.37187 19.736 73.2933
5.41405 19.606 72.9791
5.35866 19.5374 72.2249
5.30497 19.0821 72.5847
5.32078 19.1194 71.5332
5.2285 18.3644 68.4252
5.10305 19.0842 70.1476
5.16636 19.5456 73.766
5.39458 19.906 73.665
5.30012 18.7829 71.7158
5.23525 18.7531 71.3697
5.22304 19.2361 71.7138
5.23726 19.4388 71.1293
5.14321 18.582 70.4936
5.17199 19.427 72.3259
5.22694 18.5637 69.2359
5.03568 19.0309 73.0373
5.26985 18.9105 69.7721
5.00607 17.9136 68.2545
4.9715 18.3194 71.3603
5.19181 18.6723 68.8532
5.04774 19.1385 70.9581
5.05874 18.5928 70.928
5.13998 18.6565 70.3684
5.08794 18.3868 69.4064
5.04063 18.4227 70.4082
5.05753 18.7495 69.9846
5.02069 18.913 73.5946
5.2634 19.0227 70.8357
5.07466 18.7762 71.9947
5.18353 18.89 69.8491
4.99406 18.7421 69.4955
4.95408 18.6841 72.7039
5.18195 18.6992 70.795
5.05108 18.551 70.9707
5.08799 19.0785 71.683
5.1239 18.889 70.5654
4.9902 18.3322 71.4483
5.07326 18.8821 72.5335
5.1157 18.3672 71.2501
5.06621 18.8425 71.7291
5.16954 19.1778 69.8139
4.8998 18.4536 70.6957
4.94486 18.9617 72.1386
5.06303 18.8314 70.905
5.00406 21.5321 105.555
7.4337 23.2433 71.4185
4.9788 18.8433 70.8863
4.99726 18.8619 71.9173
4.99843 18.8116 71.4617
4.99663 18.3788 71.8385
5.08004 19.0698 71.0792
4.95099 18.5527 72.5371
5.11939 19.4479 72.6078
5.0343 18.4733 71.4572
5.02384 18.486 70.4695
4.94553 18.4013 71.2925
4.99104 18.3835 68.4058
4.69973 17.596 69.5853
4.89495 18.8373 70.9931
4.86617 18.2465 71.1924
4.91305 18.2869 70.8388
4.95752 18.0459 69.9215
4.89018 18.1644 71.2326
4.96712 18.482 69.1024
4.77255 18.2996 70.9096
4.95254 18.4336 68.9264
4.73371 18.1206 71.6774
4.96339 18.0001 68.5548
4.7774 18.2348 69.5772
4.78616 17.9471 69.6403
4.82588 18.2478 70.1905
4.83165 18.4572 70.5786
4.83629 17.438 70.9791
4.92878 18.4662 68.1214
4.64915 17.6894 69.9261
4.84099 17.8531 69.8262
4.80892 18.1873 69.3106
4.76466 17.9323 70.1981
4.81981 18.2617 70.2036
4.78921 17.8675 67.8235
4.64056 17.2945 69.483
4.78697 18.4443 70.3492
4.77685 17.5127 69.2099
4.74087 18.0625 70.3147
4.77518 17.7571 69.9314
4.78545 17.7143 68.3042
4.71677 17.8665 67.8035
4.58418 17.9384 70.1855
4.76921 17.82 69.3515
4.73481 17.5278 69.6921
4.77712 18.3365 68.6855
4.66674 17.9192 70.1152
4.74729 17.4676 69.3008
4.758 18.2656 72.6887
4.90726 17.7763 69.8233
4.77301 18.1548 68.1768
4.58946 17.6785 68.798
4.64326 17.5213 68.4951
4.65089 17.4379 70.2126
4.73803 18.0647 69.4536
4.67435 18.0929 71.3572
4.85506 18.1731 68.6689
4.64112 17.7408 70.5088
4.73715 17.68 68.6873
4.6462 17.6967 70.4163
4.74201 18.4266 71.7606
4.84265 18.136 70.09
4.68119 17.5643 69.4216
4.71587 18.1637 71.4694
4.81392 17.7881 68.0004
4.52624 17.5679 69.1063
4.61032 17.9128 69.3213
4.62389 17.7226 70.0151
4.67697 17.5725 68.9626
4.62357 17.6017 69.2178
4.64717 17.9113 69.4121
4.60911 17.8463 67.5815
4.49629 17.7309 71.6933
4.76162 17.5267 69.799
4.65287 17.7949 67.9327
4.52183 17.952 72.4566
4.78783 18.0001 68.0425
4.52431 17.4005 71.2609
4.76523 17.933 70.9262
4.7262 17.9582 69.1392
4.57618 17.1498 67.5508
4.52556 17.8097 69.7457
4.59035 17.6007 71.0186
4.70178 17.4747 68.8606
4.57405 17.4205 68.1453
4.52786 17.2678 69.0446
4.61207 17.5606 68.0014
4.52999 17.7263 70.9642
4.70668 17.5442 68.1219
4.5279 17.3141 67.0018
4.4328 16.9638 68.6825
4.57513 17.919 68.9699
4.55068 17.3052 68.2746
4.50812 17.4526 69.8809
4.57843 17.9558 68.8202
4.54652 21.453 108.056
7.01799 21.1496 67.418
4.43613 17.6794 68.5918
4.5385 17.59 67.4584
4.44706 17.1818 69.85
4.64618 18.0391 69.8006
4.64074 17.7264 68.0589
4.4375 17.0817 69.0189
4.55103 17.4619 70.3267
4.66204 17.735 69.81
4.57938 17.0695 66.9576
4.44434 17.7959 69.0899
4.50527 17.5357 71.2821
4.6657 17.4691 68.2685
4.52899 17.3114 68.2369
4.45017 17.0299 69.6622
4.57478 17.3717 69.191
4.55027 17.5688 66.8615
4.38762 16.8979 69.7704
4.58969 17.3594 67.3512
4.403 17.3184 67.452
4.47479 17.3553 68.4803
4.44359 17.0324 69.9244
4.55553 17.6162 69.5335
4.56082 17.4872 68.9394
4.47584 17.7624 70.7794
4.62128 17.1123 68.8388
4.49548 17.7687 68.4262
4.45232 17.0907 70.1236
4.5983 17.2543 68.4747
4.51549 18.0485 69.5667
4.54931 17.3026 69.6675
4.54194 17.1566 69.8412
4.5569 17.5519 68.6918
4.49682 17.1582 66.2985
4.32583 17.4302 71.1923
4.63924 17.2899 66.7502
4.32547 17.2568 69.0471
4.48689 17.1043 67.9382
4.41462 17.1339 69.2655
4.49109 17.3139 69.7233
4.53416 17.2537 68.9857
4.48728 17.4954 68.8303
4.45994 17.0449 67.5488
4.39691 17.5983 69.8209
4.5441 17.2086 68.4021
4.44317 17.236 68.5469
4.44095 17.3972 69.3626
4.50707 17.64 69.5258
4.54208 17.1213 68.758
4.47011 17.4856 70.5955
4.5729 17.2421 67.7214
4.37875 16.7877 66.3428
4.33247 16.9325 68.3121
4.44475 16.9175 69.9396
4.54537 17.3392 67.3105
4.37309 17.3794 67.6333
4.39391 17.0436 68.8267
4.48994 17.485 68.4986
4.43467 17.4268 71.9065
4.67109 17.9022 71.2232
4.61636 17.5502 69.5111
4.49161 17.6095 69.4339
4.47719 17.2177 68.4365
4.45144 16.8253 66.6394
4.27976 17.3104 70.7012
4.56215 17.8268 69.9261
4.5427 16.977 70.8259
4.57441 17.771 69.1385
4.47374 17.469 68.232
4.42985 17.2641 68.7286
4.4551 17.0893 69.1874
4.48241 17.5294 70.7947
4.59775 16.7479 67.9331
4.39832 17.71 69.1627
4.46553 17.695 70.1919
4.53494 17.5364 69.3298
4.4939 17.1662 68.8671
4.43947 17.5432 68.6862
4.47082 16.971 68.0522
4.40882 17.3706 69.2866
4.48943 17.7999 71.3368
4.62503 17.4187 69.1218
4.45473 17.2043 68.5792
4.4356 17.3877 68.0666
4.43204 17.2262 69.7426
4.48186 17.3342 71.0688
4.60668 17.5831 69.6239
4.53579 17.3639 69.431
4.50506 17.2823 68.8647
4.44849 17.542 70.0739
4.5511 17.6427 71.5867
4.64338 17.9761 70.1716
4.51827 17.9851 72.154
4.65763 17.7396 70.1719
4.54074 18.4179 71.8577
4.59066 20.6373 100.462
6.36698 0 0