# pn-170911/RbIIA-24-RbIIA-1280-1959.psd
# Power spectrum* (dif=0,1,2) (really just |FT|^2)
# NOTE: only the first half! (symmetric)
# weeks: 1280-1959
# 1 clock-days, 0 excluded
# PSD: 1441
55898.1 2.40275 0.0506675
2.00341e+06 7.96026 0.0817309
2.84006e+07 739.766 0.133719
1.79644e+06 34.1798 0.106261
988684 48.463 0.0525865
618782 80.005 0.0402327
36160.7 17.0643 0.0703014
43806.9 36.8147 0.0640168
207256 11.7964 0.0699387
105809 3.34786 0.0745542
412637 252.914 0.0310232
50994.3 49.7018 0.034653
104982 16.0095 0.127118
79062.1 40.2089 0.219109
19668.9 0.34416 0.0781732
124591 83.6647 0.339
13757.8 11.4457 0.15496
49157.6 41.518 0.280949
25725.7 119.843 0.298369
12085.1 76.2532 0.290754
5900.34 52.9793 0.116031
19109.1 56.7633 0.0347437
1974.65 38.777 0.116341
28280.6 22.5421 0.258553
36735 28.0409 0.211196
13083.7 14.4165 0.0070651
28623.5 72.3063 0.598512
14923.7 12.0541 0.0281371
20541.7 101.976 0.144793
21780.7 146.234 0.960391
353.75 37.9879 0.25896
11997.2 7.16254 0.0749884
3752.25 81.5017 0.543108
17467 24.5449 0.325558
8824.36 68.1998 0.153649
85.5579 31.4778 0.246746
2058.56 47.5154 0.547398
18124.1 84.221 0.206559
1374.75 5.94371 0.161119
30515.1 95.4097 0.792846
4661.43 1.32901 0.0493956
64695 402.105 4.2208
589.704 21.6201 0.16682
26203 112.094 1.35145
42073.6 229.733 2.55787
13.2842 19.9418 0.27459
42616.7 278.528 3.55038
11018.5 41.0285 0.378591
33.0968 17.8805 0.309677
35751.2 256.145 2.48907
6375.57 25.8441 0.195317
1100.76 6.18891 0.0156948
1642.92 0.685738 0.0301126
7637.8 95.0866 1.98774
9285.18 47.1005 0.543929
4739.39 14.4862 0.427327
12484.4 148.941 3.24272
3133.62 5.77997 0.250574
3429.3 32.0972 0.174934
1952.93 91.7372 1.84301
2045.46 1.91611 0.216015
3677.27 15.5021 0.627234
686.025 23.7078 0.22832
1047.27 11.379 0.0596713
5809.62 34.3486 0.881618
1496.3 5.00289 0.400764
4867.76 29.9018 0.700043
1625.38 8.23418 0.0511538
996.689 75.9921 1.93206
1125.38 26.4455 0.262031
1411.18 9.86055 0.041547
2325.64 148.093 3.97898
4553.2 30.515 0.589354
1902.37 18.0363 0.954512
4486.67 34.2694 1.07108
2951.89 16.6851 0.485985
4489.64 43.0832 1.58455
1095.85 1.02051 0.111292
3170.86 27.0824 0.690506
2753.91 50.9435 0.892467
1539.71 5.12107 0.274005
2145.41 27.9662 1.61208
3932.33 82.0152 1.8306
390.346 1.33557 0.151141
817.759 15.5054 1.03775
608.184 25.6452 0.420954
1003.98 16.0082 1.08259
191.278 29.6579 1.47563
2873.4 32.7627 1.51629
163.72 47.1457 1.5921
161.767 32.9922 1.93157
8692.89 274.165 8.89414
4166.05 108.496 5.64644
1384.06 12.9744 1.19497
2065.37 135.103 4.03712
957.726 38.5974 0.913636
1232.39 138.167 6.4553
2668.68 151.305 5.36192
1462.43 11.8686 0.357334
331.681 1.54131 0.373146
4346.32 233.661 8.99759
2332.15 57.8648 2.11496
1029.95 8.05061 0.310843
722.279 13.7035 0.279003
1340.98 79.5465 2.91321
6638.4 388.174 19.5292
1028.8 10.7261 0.485014
4967.65 153.561 9.10929
101.584 5.90227 0.346049
3005.39 77.8686 5.36408
33.1853 12.2195 0.674571
791.936 31.0818 1.40373
2728.01 135.841 9.39167
831.442 138.052 7.93788
505.345 7.13176 0.954786
1915.71 42.4856 3.43341
53.4727 12.4908 0.394911
171.209 59.8223 3.40165
136.523 12.9777 0.651817
538.95 3.85715 0.0635076
2431.53 91.7393 6.42313
1772.81 204.827 13.9184
507.769 32.8638 3.42224
1971.91 49.3161 3.7049
78.8976 4.53058 0.222403
442.232 20.4549 2.18171
977.321 43.7383 4.99709
715.909 17.8106 0.791857
299.71 0.512253 0.25
1803.11 198.21 18.1499
565.803 103.771 7.24212
1623.97 62.0943 3.29041
1185.86 105.233 7.0192
152.222 34.3407 3.20639
225.179 3.24715 0.0489939
24.1127 43.1867 4.07983
2787.66 162.6 12.5723
708.177 19.9199 2.37445
285.871 38.8863 4.17965
41.4245 8.60891 1.12501
843.162 181.516 15.9764
1024.58 43.4801 2.55992
414.449 89.8423 7.18273
31.7858 31.7072 3.05941
691.119 52.6377 3.90158
497.565 106.113 10.6254
548.191 14.8598 1.73829
31.9572 16.0817 2.47833
1809 121.222 11.0544
2480.67 123.348 12.68
606.844 25.9211 3.55769
354.946 27.2943 4.28704
655.698 13.8874 1.79906
1164.76 64.7525 6.87864
559.9 95.2125 8.8444
3.6625 29.9722 3.22674
1457.82 78.2141 10.1917
11.676 17.6901 1.24348
50.8911 15.9427 1.44101
723.897 199.125 23.3239
573.728 12.2134 1.32624
908.095 104.208 13.2384
714.568 172.23 23.8253
53.0655 26.8007 3.19528
19.1692 25.9442 3.43423
2.53664 38.0781 6.26829
1175.55 65.8176 7.17599
617.536 86.3972 12.8262
111.793 15.9243 1.93268
1239.44 87.2243 13.2682
514.211 86.5581 17.2071
355.081 44.3046 3.2972
460.605 22.2542 1.46955
314.398 14.5089 1.26149
398.418 144.372 18.7622
72.1864 39.4936 6.42042
598.434 13.6525 1.5588
569.969 51.9211 6.16823
288.57 7.75252 1.68035
22.62 28.0965 5.25972
645.664 77.9451 9.28283
219.468 8.45677 1.21303
182.346 30.1349 5.30549
73.002 5.45575 0.587662
132.304 12.9325 3.03724
117.996 95.7662 17.4594
438.495 69.6163 10.2048
1012.67 52.8325 7.29188
267.874 15.9644 1.61443
57.0529 10.3896 1.51037
444.156 14.8342 2.73314
47.9204 53.9154 8.67375
211.943 0.362142 0.0411079
565.553 33.8241 6.11972
269.83 136.71 23.9071
47.3148 10.4236 3.56315
519.278 52.1174 7.11174
841.451 56.6791 9.36486
4.99286 35.8549 6.99251
235.383 11.2638 1.82237
974.216 69.8099 12.4978
49.0705 3.43366 0.436913
139.417 11.5943 1.8709
511.786 36.5988 8.40545
386.785 29.625 4.51175
36.3525 53.3943 10.178
228.744 5.81749 1.8267
434.882 17.1867 3.05734
314.183 55.12 9.4819
487.024 27.0684 5.94198
45.103 7.36074 0.839498
18.1227 18.1275 5.46606
635.352 54.3632 8.20447
264.567 8.19173 1.87023
393.425 92.7037 17.41
125.481 20.0616 5.09277
250.248 9.94621 2.46163
125.486 0.366703 0.264824
936.946 94.3447 21.1871
35.829 53.3052 12.154
628.223 41.35 7.57988
728.611 75.6482 19.4853
327.035 30.6225 8.98574
67.2593 17.7309 3.67337
26.3142 6.61982 1.60816
48.7375 2.50352 0.133796
304.159 127.965 35.677
115.942 7.45454 1.40943
829.15 157.742 29.7034
576.954 120.13 33.0535
460.051 81.7988 18.8185
584.979 61.909 15.7751
47.2401 56.6536 14.0767
463.471 35.2946 7.59933
483.213 142.446 37.7923
261.665 13.5442 2.32011
245.471 73.3662 17.8321
68.8656 1.8121 0.867659
164.388 10.4733 3.74598
136.154 3.35803 1.93355
116.431 3.18517 0.752545
58.7662 36.9694 11.8003
96.951 3.73975 0.31354
275.846 18.516 7.90677
840.884 312.87 78.5634
59.1747 8.00131 4.25223
36.1993 11.0779 5.3628
340.169 13.785 1.91413
625.329 103.408 29.5277
166.403 8.51873 4.73577
82.1752 0.682767 0.153207
223.443 55.2606 13.5837
711.239 102.276 32.2053
14.0574 18.1239 3.78984
4.7399 24.7635 6.75954
240.698 56.3026 17.5899
421.737 51.9041 19.8918
103.729 40.4633 8.09
37.1314 64.1249 22.919
450.086 50.4249 13.1469
19.394 32.1507 10.8259
258.011 15.5812 5.6333
213.594 96.0766 29.8894
202.64 18.4963 4.88013
123.754 3.50207 1.84869
138.882 2.09396 0.0554223
378.584 36.4908 10.0885
223.316 20.497 8.53077
43.8537 23.8425 7.23214
74.3646 20.2487 6.94829
192.618 11.475 3.22414
127.656 9.75663 3.23108
153.797 8.03511 3.56342
57.0163 0.605602 0.634691
101.777 1.57733 1.11593
9.8785 16.0228 6.34204
497.852 75.2845 25.7373
18.055 13.648 3.44574
25.8481 11.1475 5.09729
188.912 100.908 40.8481
507.201 66.6456 17.6302
144.494 6.28779 2.37051
116.071 5.62561 2.38991
118.971 13.9704 9.08574
287.011 83.6393 25.164
161 8.84684 2.26095
396.492 88.5678 34.1779
384.851 72.0218 34.9477
10.9234 3.16844 1.06209
63.8395 3.31914 2.36808
144.998 13.5217 7.71707
206.499 68.4603 35.5248
12.884 32.9923 19.3352
82.1901 8.77458 0.121474
111.55 25.8539 6.90084
39.4241 34.4176 14.8946
15.9041 5.3912 4.33673
69.8557 28.9819 5.26461
157.374 90.0365 29.8592
140.242 53.3273 24.2536
156.64 18.2639 7.86628
241.795 47.3038 17.0367
51.7693 0.25858 0.175627
241.132 32.4648 16.149
22.4215 22.1078 8.69347
130.504 29.0775 9.96311
151.124 27.6362 15.6052
12.2079 20.9893 10.2939
86.4444 24.5515 20.7909
54.4081 6.41598 0.667593
79.2845 9.88046 0.200551
348.417 131.993 44.6039
19.5105 26.5875 8.85807
188.445 103.067 51.9195
49.4494 29.2579 10.2839
68.8914 4.30232 1.63522
11.0405 9.9216 4.91937
75.3112 1.85801 0.88881
14.1177 20.5186 8.23276
8.3426 67.0692 40.3026
244.974 33.1437 9.44346
47.9232 2.49135 1.97932
157.327 22.8518 11.9324
59.5543 29.9375 13.8687
70.1841 0.276285 1.71654
338.313 65.2739 30.9759
65.8763 5.18276 0.547107
137.284 31.9382 14.7958
16.07 4.16305 1.92013
55.768 1.32868 1.85708
46.214 31.9959 14.5177
106.435 9.79273 4.77177
103.759 17.9962 13.1816
40.1134 18.4385 9.59833
297.849 51.5509 23.9843
62.8143 4.20385 3.61937
13.5306 27.6693 11.2709
13.4832 11.2833 8.52135
100.934 0.98611 0.249773
371.609 81.6461 38.4812
120.982 31.9305 23.7621
29.0261 50.6052 26.3053
32.3791 3.76093 6.71667
82.9918 24.4341 8.68142
34.0842 27.3768 18.9651
92.8556 8.12823 2.15508
135.037 13.5957 7.25944
35.7832 7.13517 6.62964
33.4116 10.1267 14.6256
212.055 35.1803 8.92182
161.414 22.8663 11.6744
151.069 30.147 18.555
118.208 36.9879 28.3374
10.8906 21.4041 5.99848
21.5698 51.1988 23.1005
161.049 133.601 83.2503
303.365 95.6823 47.2828
1.38415 24.7905 13.3826
22.5962 4.27824 0.691322
32.8841 66.348 33.9792
3.62109 33.0347 32.8383
295.779 51.872 22.6194
56.3187 13.5576 5.97664
5.01046 22.0347 14.1773
85.2721 18.6265 7.79881
24.3417 10.1695 9.64944
108.079 41.0373 18.2689
29.9561 0.670121 0.675969
46.3647 59.9038 34.069
47.4671 7.91207 6.49614
21.4256 23.1314 22.4096
92.517 10.5149 4.61616
62.8891 5.35069 5.14381
24.3964 8.98558 7.56806
71.7024 40.9182 34.5558
183.135 17.2561 3.20092
111.205 5.93752 0.723033
163.869 28.6171 15.1931
65.2912 9.35476 5.3388
56.3214 0.767351 0.300925
190.198 43.9641 29.9687
6.68073 5.0793 1.81262
9.94525 28.9322 24.11
172.435 22.9478 11.8296
112.145 32.6416 13.8947
57.8272 6.83813 3.73872
148.692 38.5834 26.2442
4.72614 12.0562 9.47852
37.9916 9.31141 15.997
295.312 68.7551 33.2925
38.195 13.1616 17.0008
164.584 42.9135 17.9688
216.74 58.1443 37.3977
77.6185 31.0526 22.1972
326.264 111.19 73.7334
57.3838 23.0657 15.1552
32.7358 4.64181 4.13276
72.6764 13.6491 13.033
53.0829 3.47143 5.13687
19.2517 7.3324 5.82523
219.95 61.2881 40.1886
76.465 29.9993 38.4438
32.2046 11.1368 1.01173
62.7171 12.6261 5.20113
79.268 36.9062 28.6653
16.6798 0.496917 1.27238
1.31421 31.5042 26.3355
166.625 35.4831 22.1061
90.9616 16.5275 13.2932
13.5573 5.14398 2.98418
156.455 38.9968 26.0295
118.583 56.3336 55.9784
5.02419 7.70813 9.55633
5.77194 3.77566 3.65252
14.0126 2.94759 8.25488
5.72389 31.5107 22.8905
144.331 68.4854 37.4733
5.9926 61.0305 49.7453
86.612 3.96806 0.388804
140.975 49.516 36.6248
5.711 12.5546 16.4133
184.186 43.7905 24.3533
83.0325 21.9868 26.3475
48.9211 35.5325 24.7392
7.0967 16.5977 22.4989
143.714 32.2497 19.1127
67.7323 37.3401 27.0292
84.3015 20.5314 24.5896
38.7838 10.8835 21.4814
5.50522 22.0502 4.16272
15.7023 77.0143 63.4548
111.102 18.4219 18.2666
31.3644 29.3855 14.8039
29.6962 8.23553 7.0027
58.8848 13.6954 14.2408
74.5934 8.62184 8.2391
70.962 16.2248 13.1592
30.7876 7.85764 10.7765
16.3091 2.62268 3.76338
0.0627645 17.5089 7.58167
10.4315 26.788 16.9981
20.0914 17.2963 18.2129
39.4688 0.788267 0.565446
19.4096 3.18739 6.1019
106.978 24.3915 20.5426
17.4023 12.7251 10.2946
23.6293 19.0053 16.8524
57.0786 2.05985 0.698453
51.6179 3.03294 1.34837
42.488 4.54157 8.2095
80.9865 36.6867 23.585
25.0784 2.44002 1.95455
17.3944 27.785 33.3372
135.05 29.0185 16.8886
87.9452 32.6462 33.2891
27.5412 61.1898 53.1049
43.8163 16.2349 31.1179
140.538 41.7081 31.5426
42.7172 26.8154 40.1869
5.20408 35.6884 29.4421
38.724 0.34681 5.2538
79.7723 10.8589 12.8585
63.4946 13.8789 4.02441
86.1151 21.0801 16.6551
59.0206 17.38 27.2544
3.94126 3.06711 3.18063
13.2513 1.14167 0.230771
0.497075 19.0286 17.6492
29.9098 13.7681 12.8465
79.9202 20.8706 18.3912
104.945 31.2622 25.8391
17.0208 0.233263 0.608375
29.3846 2.45341 5.65316
67.9779 14.0218 10.4382
34.7529 14.1544 18.9001
86.0623 16.104 6.93908
92.6432 28.4757 24.9918
66.0497 22.7156 29.3839
50.7057 22.8943 39.4335
20.6645 28.6321 40.9373
84.2066 52.2918 108.269
28.9474 15.9274 4.15521
21.4525 60.3882 32.3035
29.8319 14.5286 2.43867
31.1458 24.5863 10.7237
33.2816 11.7565 7.34086
17.1091 37.476 31.98
12.6517 29.6269 40.8083
119.957 50.017 32.5088
59.1415 26.1684 39.6386
12.0498 6.92526 3.1147
11.3399 0.850953 0.047311
17.4473 0.324585 2.90178
9.79605 31.5038 22.8155
38.9269 2.73513 5.10548
7.35461 18.6681 12.937
29.6015 0.534413 2.06999
29.7915 30.7102 25.1486
27.1483 2.60929 4.65175
9.16922 5.0466 3.13104
31.7496 20.7401 30.6688
5.38622 5.5427 3.85333
11.5815 1.11669 1.64234
9.97664 18.178 10.0966
4.51527 8.34307 5.36787
4.14859 10.6086 8.60628
3.0757 39.4413 57.0577
86.1332 13.3926 10.0788
22.5912 19.3627 15.3594
18.6021 14.6886 22.3651
47.1308 10.9445 21.6282
11.6681 16.6814 21.3571
52.2426 1.38509 0.631767
72.1842 15.6071 13.5352
17.1203 0.000237784 0.351297
14.1015 8.34578 16.9241
86.4725 31.3732 47.9863
11.6533 26.1454 13.7127
20.4573 0.754703 7.36435
39.5552 16.6864 4.91946
93.7211 83.8512 91.6235
14.5492 5.873 4.49119
24.7115 0.557406 3.60227
57.4759 26.5145 22.4435
54.7498 16.7893 26.4932
4.89813 15.9649 12.9832
18.3301 4.21825 10.1542
13.7737 35.7849 53.7398
126.709 68.3956 62.6733
9.32342 32.7415 40.5981
7.24557 7.33687 11.6165
20.7709 1.84776 6.88305
12.1247 5.16167 6.36298
25.4728 4.2794 7.89092
2.8326 23.787 49.216
97.7513 19.8018 13.0211
51.3945 10.8244 8.86779
13.3269 2.93342 4.98934
45.5286 6.68787 3.90158
54.1778 13.0191 13.8128
47.8297 41.3184 54.1392
27.0804 20.7346 61.4045
48.6826 17.6658 41.2316
26.0189 47.7191 23.2436
7.52239 69.8951 68.0649
10.7563 25.538 55.9148
48.1302 0.0709015 8.05127
105.924 42.4209 50.5625
18.1909 28.1717 20.5689
11.8663 3.77423 7.81564
34.7928 0.65988 0.0934725
42.5225 8.03821 10.4089
18.9203 4.29251 4.74756
10.8993 5.53704 8.1181
2.17212 36.9737 58.7763
28.7902 33.6409 41.3614
29.3263 8.86116 28.3406
42.898 0.0750533 8.70187
57.437 4.59195 1.63727
55.6152 13.2322 1.47552
73.571 51.8381 48.4698
39.652 20.4451 42.447
37.3795 4.54501 3.90902
59.2291 7.96207 1.56853
72.9829 18.258 8.14622
78.1757 32.1037 28.9888
47.8905 26.9613 42.9471
45.3226 18.1428 24.2991
19.0615 3.59092 7.30566
30.9458 12.9271 32.1327
9.43218 13.5506 11.1483
40.7453 12.9727 26.6979
72.3341 48.1613 53.8665
4.50793 5.34167 10.1669
86.4996 39.5744 42.625
36.9286 19.0516 41.2435
12.5485 3.50353 11.495
18.9929 5.03773 20.3803
5.03727 3.39741 2.35818
68.1825 57.5706 133.656
3.38744 12.4106 0.149011
2.94916 13.3333 7.41333
3.30023 34.4287 53.9141
13.0075 13.7154 19.0581
58.4225 36.3478 35.594
0.0192276 30.2294 44.0964
63.0355 16.0179 15.708
26.7684 17.1774 42.5936
14.666 12.7953 3.4241
21.7786 6.29166 2.76335
24.4243 7.93838 8.27775
22.6558 8.91329 19.0443
9.97538 6.59114 26.1713
0.470793 19.3089 11.3947
1.56855 27.9287 34.1034
23.3866 3.96228 3.13703
11.4889 4.11583 11.5586
45.5569 8.02801 2.2393
59.0271 46.9492 81.5628
0.3763 10.1221 14.3787
9.93104 0.887159 5.69483
6.87352 7.61161 36.3716
30.2375 41.1494 26.7818
8.92873 6.82914 15.1737
50.3971 25.0539 33.5875
9.67576 4.80117 3.33716
6.88 6.27105 14.5544
64.1741 34.4808 72.2393
12.0995 25.7153 12.6081
0.193651 25.7901 30.9028
15.9892 4.45823 8.48102
16.0224 1.57105 6.85328
22.9687 12.15 25.376
44.0308 7.36384 9.74719
52.5165 24.26 27.2765
31.4987 8.82166 12.5033
18.7149 2.28144 5.65377
19.4421 5.48431 20.0985
2.26356 8.67036 9.18435
26.9879 16.4517 37.0515
11.2262 22.1957 18.1481
0.0604261 29.2193 45.3717
21.1595 19.0204 30.0927
29.6013 0.0422896 2.8982
30.143 8.3174 15.2435
53.8765 14.1886 11.9227
45.0239 33.0197 54.1412
19.7034 7.46689 40.8392
18.1193 13.3861 10.5162
2.7309 22.8743 18.3245
18.4599 2.45674 2.16613
14.8458 1.15111 7.55094
1.01253 23.0533 20.5468
13.8211 18.6093 35.4291
25.4491 3.11713 7.62584
27.6145 2.45869 0.42801
37.5378 20.3862 28.4892
23.5034 4.04444 11.7383
3.14647 7.89744 16.1346
63.768 40.2537 66.1879
3.10548 10.6729 20.4955
15.145 7.93072 54.474
19.2087 31.9686 10.7223
11.0533 21.7228 24.035
4.97481 8.32955 14.701
6.06711 8.38793 12.887
11.2475 8.93713 18.0047
30.7392 9.88213 17.5687
16.7024 9.50528 19.3523
16.0013 40.0228 70.5331
30.216 1.90808 7.25481
37.4657 4.71111 2.76478
34.4868 9.64289 13.4183
10.5286 0.0899322 0.722694
8.67786 1.57406 2.10554
14.1658 1.67663 4.96903
13.2833 18.3282 33.5805
11.1031 13.5561 29.552
40.7117 10.2744 12.2804
12.8293 2.0627 17.956
55.9708 47.8786 84.4869
40.3387 10.9153 3.68011
19.7474 5.08568 2.71446
22.2566 3.90854 5.5109
58.2398 35.6103 51.8576
19.5697 32.657 95.9128
7.36754 11.3351 2.47705
7.0677 2.33845 5.28887
9.36772 2.64514 8.0603
20.7061 1.3829 1.29659
28.5961 24.5054 30.1522
14.1361 1.22709 6.40205
9.62548 4.09699 6.21735
16.5986 0.529021 0.259911
8.10752 4.30976 14.8558
24.6083 23.54 56.5449
69.3464 37.9382 66.1268
28.4997 3.85044 1.75796
51.1224 32.3484 33.1601
72.6129 73.8524 150.657
1.06693 12.5868 10.2981
42.0328 22.879 45.0553
15.0602 24.765 50.5492
3.60702 3.08086 9.90134
10.378 0.57862 1.09006
26.7584 13.7566 46.2886
12.6876 4.21114 12.625
2.5006 28.77 38.9765
39.972 13.9166 23.0406
4.95677 4.5087 6.65482
11.2917 0.0265398 2.79957
8.03496 3.59736 2.96501
11.1288 1.14119 7.25951
1.09161 18.5162 33.0923
27.3528 2.60112 4.45369
27.3258 14.9385 40.0223
39.8253 23.5811 25.4488
15.8718 8.04466 38.1798
1.72586 22.9875 34.2269
16.4462 8.51482 8.46673
9.64495 2.40755 5.6999
21.0441 1.49358 1.99232
16.9134 9.64546 18.5305
15.5814 2.24259 13.5159
2.42088 4.65738 0.90321
4.31503 7.77395 15.3695
22.3489 1.05111 0.0346134
22.5797 11.0254 29.2576
0.100479 33.5846 85.8231
50.3714 11.1775 15.5356
33.8226 22.9732 19.2279
21.6036 13.6997 38.3597
3.44091 0.758218 1.37371
4.16558 8.41595 25.627
40.7951 23.781 48.6815
4.10163 11.7003 16.1281
2.05835 9.47396 17.2143
21.379 4.45028 17.9498
2.42723 13.6633 15.7603
2.13242 17.702 45.2975
13.4345 2.30859 40.9613
29.8116 48.7618 53.6357
14.8471 7.91187 44.984
51.8913 15.0829 10.9054
37.6151 16.7242 24.8449
18.1937 10.1094 13.25
33.214 17.0731 33.5974
13.6253 12.3419 25.1761
22.5712 13.3046 34.5866
4.2377 0.321139 5.55403
7.09714 7.69882 8.50735
18.6426 1.93862 3.3178
16.322 4.13862 18.0674
6.55507 0.370838 5.42733
2.38135 6.31946 13.4851
22.1441 4.41529 8.47739
14.306 30.2758 40.0861
30.8409 19.9725 61.9853
4.70713 16.6437 23.0415
21.4637 6.77907 7.89758
8.5986 0.844175 1.82587
8.2879 3.14701 6.85083
2.57701 9.25356 16.2507
15.2431 0.700741 7.58287
20.5157 2.61506 18.8181
67.3914 63.4273 102.367
7.93139 3.4969 22.5436
8.24637 3.87051 36.2782
1.87921 2.4927 10.7198
0.475794 13.0887 11.3723
15.86 0.819823 2.55532
12.6381 5.90909 26.7459
7.30425 1.731 6.52877
6.38293 4.94533 46.3768
9.37043 12.9635 2.88892
4.41131 26.897 29.1676
9.27924 0.950341 5.77303
1.37852 14.7735 14.5907
12.3652 9.51242 3.52871
13.1797 24.9579 36.4009
14.7952 10.2704 33.3429
8.92978 0.526115 5.47307
7.27639 1.1177 2.80085
11.9403 1.92783 14.0807
21.0439 59.6371 153.056
17.6988 12.846 2.24404
5.91209 2.39981 5.36864
5.49798 8.45151 13.2339
14.0414 0.707389 3.81629
23.4617 20.0601 52.3351
2.12207 14.2929 21.1329
15.409 24.2117 45.6381
24.0905 4.41978 12.4973
11.7071 0.273132 6.30892
9.84944 2.0064 8.65642
0.517197 24.2259 44.0396
21.3202 5.17494 32.1821
21.3534 11.2081 5.84733
16.2802 6.42698 17.8669
8.62219 3.72281 4.66367
10.6633 0.457088 6.78419
4.53788 2.72033 8.3573
12.9226 16.9798 21.2336
15.3272 2.53913 6.05067
12.2725 1.10989 4.22934
8.9061 6.56807 37.7113
6.31936 8.42014 0.753273
3.35777 9.02424 7.72105
4.87129 10.5534 31.0328
22.1521 1.83409 7.32873
15.0156 4.82244 6.27958
13.5579 1.12226 5.24558
5.1031 3.13041 1.87314
7.84595 2.09878 7.61992
22.3855 13.1412 36.1223
1.99596 9.74073 11.9346
12.2532 1.14183 0.932343
11.18 3.31678 16.3889
5.08441 13.7029 17.8737
11.0843 2.83796 12.076
8.20972 16.1678 40.5274
23.2558 0.18199 8.09227
31.9868 25.885 36.372
6.52485 6.62072 23.0541
13.2474 2.39419 19.5933
8.88373 1.59378 7.60471
17.0769 3.60161 29.3588
14.1723 6.43708 1.29318
14.9235 2.72705 4.61015
6.66269 10.6371 17.0078
8.3509 1.26993 0.391424
4.03682 7.06568 13.1857
7.63749 18.5419 74.2434
34.715 7.1043 14.7318
25.7093 6.5081 5.66128
16.1826 4.80437 11.256
15.3454 0.781005 6.2268
14.7866 0.35659 9.80999
29.0847 37.0699 70.6708
13.3873 4.79283 7.37223
17.3551 1.74576 4.1356
23.7413 21.6451 42.4666
9.26697 3.81023 29.6761
2.28025 13.4224 13.6259
18.3669 20.7003 30.4799
16.4703 7.99208 11.8316
15.6865 60.9263 277.405
51.8429 29.1886 20.7262
7.72493 6.41528 0.492091
9.22741 0.55564 20.1939
29.008 15.9078 5.92786
18.8051 24.6127 32.1026
6.80902 18.5489 57.1823
29.6706 25.5398 96.6828
11.052 21.3448 52.2399
4.50292 1.60213 4.02301
11.7368 17.1699 44.0045
4.77118 1.89929 11.4107
7.82189 28.1451 77.7001
11.4692 2.05951 19.6212
1.28156 12.5495 1.75441
3.77621 25.3823 33.4565
4.55443 17.1196 53.9353
25.7928 2.72869 2.27289
10.8494 1.6021 31.1192
9.9873 48.9897 79.0735
17.5222 1.60476 8.98547
14.2493 4.78415 30.9532
1.58465 13.3111 15.5826
9.37605 7.61641 40.3043
20.4189 3.71714 3.96739
6.47812 2.96866 47.0085
5.53051 78.107 144.433
19.7335 5.98023 80.9547
35.8345 14.852 32.389
31.1689 8.93305 25.4635
32.3529 13.3113 8.36592
31.9144 30.8901 81.1657
12.5497 12.8202 20.7311
2.81475 4.30287 11.5228
21.2337 6.68988 10.6468
19.1398 15.9535 36.9606
10.8084 8.34274 74.1112
12.3061 10.7034 10.0918
6.56262 4.59849 39.3463
0.507923 11.7212 16.9383
14.3481 70.5915 111.054
18.3824 2.02317 17.4699
0.0286494 42.7253 92.1944
22.1679 19.0474 77.8535
28.0773 2.95641 20.1814
40.9376 33.7 69.3355
4.46934 2.95702 5.10299
14.8561 30.334 48.7652
16.0737 0.21566 5.65213
25.2404 19.1065 14.799
17.9615 16.9926 58.4827
11.7741 50.3198 95.273
1.82257 13.6157 34.4762
12.7915 16.5779 85.0464
5.04369 3.8989 26.8005
8.40683 2.10945 1.13822
3.27636 9.16261 18
9.33557 13.6012 73.7786
24.2028 0.38543 13.4248
27.9222 12.3791 20.8132
5.26054 7.64302 75.0586
42.524 34.3654 43.7595
20.3697 27.5761 65.7187
10.3987 4.58854 33.447
1.79029 7.57559 29.2965
38.6735 47.7037 101.192
3.83634 23.6521 170.262
8.53815 12.8625 3.70243
8.20896 4.55415 48.7315
22.1813 16.6481 90.3414
2.51661 6.3353 8.55712
6.58174 1.41897 12.2563
12.4973 7.95304 5.86996
6.09091 1.75136 12.8292
2.30789 1.42548 15.5384
6.22746 0.76436 20.9139
6.99996 19.599 10.7429
2.00588 8.09872 3.68175
6.5417 3.69653 1.81578
7.50354 2.85821 8.87885
5.86578 3.64453 6.4922
10.6711 2.57647 34.5851
0.0256088 18.419 33.5511
9.39067 5.45775 3.57747
9.7145 4.93361 2.07937
4.73865 4.84502 9.73625
1.99552 11.6789 15.0797
9.43743 0.239824 2.69198
2.72637 11.4411 14.2791
8.66604 2.09373 7.504
9.44785 1.51691 3.57858
10.3417 1.19983 3.0254
6.3649 7.50894 25.3082
9.70547 0.920695 27.1823
17.1465 5.72503 15.7553
5.17402 10.2859 0.80119
2.23352 26.4071 69.6405
32.9356 38.0976 70.4442
0.726987 17.6476 45.9929
6.97661 4.08814 10.4199
3.31378 32.2916 131.4
39.391 12.1221 7.37039
7.87862 3.22464 16.4986
11.2815 3.01063 1.64135
5.19696 6.68529 14.9682
11.8602 1.12253 10.6045
3.25629 3.99128 2.38365
5.67222 8.00151 37.6952
12.3734 2.70278 2.15149
7.84393 2.53983 32.7136
14.0219 7.31915 4.57293
13.7235 25.3856 51.3081
9.76364 2.34202 12.0133
14.4044 0.580761 12.6479
15.7327 25.0353 72.7985
9.94933 7.46091 6.67421
10.9848 1.08924 3.17024
3.58961 20.6179 100.198
18.2858 14.2924 10.2837
10.6395 4.67401 11.5011
12.2546 6.11344 15.0728
16.0086 30.0944 111.091
30.5419 5.70945 0.267184
16.7809 6.94275 13.0316
5.09519 1.66106 7.38434
11.8769 0.0507971 2.72297
12.8146 1.16533 1.29911
8.61746 8.39319 76.8532
33.5039 28.5957 35.0216
3.16812 5.08449 22.0684
17.2827 1.21484 2.3344
19.6391 10.9563 16.6763
7.42269 6.14712 57.6392
16.6705 16.0997 14.5116
7.64509 2.76751 33.1668
4.76518 13.0861 8.13152
11.5154 7.70792 17.9936
7.64004 6.43531 64.074
1.40857 9.50595 0.927688
4.47018 3.56365 4.69297
10.6873 1.47494 16.3433
1.35194 7.18515 15.214
10.2001 6.71487 10.1689
1.67409 11.596 21.8403
13.8014 6.69066 18.5493
3.28864 7.3065 13.8368
8.54035 15.2979 24.879
6.61545 7.49034 32.7871
12.2685 1.19773 18.3081
13.3109 1.30872 5.52662
10.7209 0.741579 14.6434
16.0535 1.13493 0.896803
11.9843 4.40069 14.5546
9.31411 1.51744 4.35235
11.0411 4.033 23.7448
12.1795 7.06996 16.1027
5.87796 16.957 88.0141
31.9702 16.5602 32.7775
2.30856 8.75934 58.7854
26.2482 25.9816 18.7546
17.8509 23.5317 64.3496
14.555 1.86913 1.23598
10.2037 8.7396 54.1607
22.9603 12.7409 27.6985
12.7944 16.9379 35.8619
4.65081 0.968112 11.1659
7.9371 19.4733 136.452
10.3202 25.379 65.4155
3.13201 15.6 35.8319
4.37743 45.6805 111.212
28.7722 15.4609 33.5559
8.90252 2.1996 22.1911
2.68102 34.8714 116.639
31.8647 17.7777 41.8975
6.32995 1.31987 35.5017
4.13153 6.25545 1.06941
4.49931 1.33753 2.17073
3.22855 2.65058 3.69702
6.79395 0.618342 11.3336
3.72067 25.128 40.6992
8.38102 0.848211 1.47649
3.26269 7.32714 9.27136
6.7076 4.45858 11.628
9.67741 6.79699 40.2353
9.1599 1.86062 46.1418
17.5535 23.4397 22.3209
0.937895 31.6817 95.7979
20.3748 0.738979 44.3411
27.387 12.7957 8.93386
8.26855 2.30044 17.7067
3.25959 3.79381 0.990458
3.52536 10.7368 41.1483
15.5141 3.24368 2.53404
8.50945 0.431755 0.354268
3.72431 13.3702 82.7023
26.4764 22.0709 27.6028
3.15407 8.52022 17.1633
8.12293 9.60684 77.4034
27.6136 10.7074 5.58775
4.83472 21.0848 144.809
42.6572 32.4006 63.6418
7.03347 0.835089 23.961
12.6397 2.14205 42.5325
28.1446 18.8872 19.3622
6.48838 1.26429 6.95177
8.02859 3.65047 17.3114
12.6294 3.791 77.4893
34.9513 18.7244 1.20853
14.3171 14.2533 66.5378
24.1112 24.4701 16.3808
10.4362 10.4206 32.5339
3.05364 1.30145 2.93197
6.55374 1.92676 10.3664
14.052 7.91315 29.8455
4.13228 0.970329 0.0525449
8.97634 3.98043 27.953
4.15351 11.006 25.3359
10.8831 0.622429 10.0325
19.4319 25.4223 97.507
7.45647 4.6821 41.0886
0.854269 16.4027 14.7659
9.25625 9.94981 50.661
27.11 26.5766 66.2725
9.97676 8.50698 41.4463
0.812304 8.44207 15.5741
14.6062 8.21495 39.5896
7.19817 10.9448 43.0352
12.8565 24.8388 90.4773
8.58951 6.39862 3.15607
4.92001 1.02851 15.3824
3.50902 10.3186 25.6144
15.5229 2.11814 6.15196
8.33469 10.0978 16.5913
4.08143 1.45374 0.0610683
4.92241 15.0263 53.2903
13.5155 0.240637 30.2259
14.3196 10.2046 9.40931
12.4538 7.17605 39.7024
4.20136 8.14516 10.4933
10.9599 2.31773 15.8407
2.13908 6.5294 24.0408
16.1824 5.58854 27.2801
5.34862 7.79567 20.3983
1.70487 10.0996 22.2353
14.3043 8.19314 30.5211
7.30541 0.982085 9.5687
2.604 16.0785 97.6695
16.2127 12.1686 2.44893
3.78366 6.18929 0.548672
4.81401 5.47269 11.869
9.30895 29.8751 67.5593
12.5434 0.695429 6.90606
7.00708 4.63265 17.9595
9.29891 9.09884 110.024
33.4911 24.0975 33.1227
13.4153 4.28143 26.0425
14.6138 4.40913 24.469
11.2997 2.22937 10.8035
7.35755 0.615271 4.28682
5.17083 0.578328 8.85672
6.89535 3.04075 21.0532
15.0919 2.28438 1.43787
11.0071 1.27839 9.25506
7.21885 5.91645 9.51549
9.13809 0.439109 9.64006
12.2018 0.843487 30.7658
20.9977 6.20766 17.7945
18.1224 18.928 13.0194
7.06536 17.8438 84.2351
10.5343 9.90946 11.2056
8.0982 2.02111 15.0607
3.43774 3.92912 14.668
13.4941 6.48355 17.1384
8.15994 0.805066 11.6041
11.868 13.8511 27.6354
2.89974 1.85826 3.59201
12.0227 15.7092 86.9714
0.177792 7.32132 40.6305
4.68979 4.26568 3.40007
3.20022 1.50522 2.01732
3.51388 6.00647 11.2371
5.62557 1.94501 17.5691
6.29627 5.13177 12.0969
10.9519 7.72738 9.87623
6.01479 0.894548 0.935658
5.95283 1.11565 0.13631
4.82401 13.838 58.2786
13.2972 5.48774 57.8628
24.0228 5.24549 12.5142
19.1196 22.2356 65.2127
2.28716 7.88878 8.39539
13.9512 15.8096 46.8945
5.70297 4.18937 52.7924
0.821029 6.31899 4.33296
3.09863 7.64778 47.9905
4.01999 9.16352 3.98604
5.72091 3.60864 1.46094
3.28306 6.16934 1.15336
2.1725 25.1242 56.786
11.813 12.1134 107.993
27.3851 7.53444 9.06294
7.60516 3.0808 30.3738
15.1715 4.93876 62.2689
23.495 6.88038 1.76722
12.3496 9.14767 47.2203
10.4409 6.05947 17.3025
2.30432 13.0278 11.0296
6.85806 11.4533 73.7306
18.7512 9.07581 74.8165
23.5017 9.41873 36.0745
17.2123 11.4583 24.8373
12.6007 1.76166 45.5363
15.6018 3.67531 58.8563
29.7388 22.6142 11.2403
13.0967 34.3942 62.699
16.5278 9.38489 14.9312
15.3913 19.7449 59.7882
15.6403 31.657 91.5563
1.16091 0.707582 59.5973
8.05969 36.2209 89.9855
5.28562 0.840666 25.0697
7.06901 3.48733 1.33934
7.34937 6.30527 20.5972
13.0693 0.786371 7.60569
16.1104 17.457 44.5517
4.47512 1.42774 1.82039
11.6952 9.60356 43.0845
5.29352 9.48062 9.56663
8.8331 4.94131 18.2521
9.16441 7.40408 25.46
5.2431 12.5968 87.2298
4.23259 8.6071 4.99532
5.97316 19.8805 142.521
4.18845 1.21834 42.8641
1.51982 6.80298 8.39366
1.98744 13.1448 11.8624
7.95566 6.19394 86.4776
21.5869 9.09774 14.9009
9.98042 15.1446 15.63
3.31833 5.28327 1.97402
5.73989 10.6597 32.3569
4.44734 0.637446 36.3985
0.791996 6.72602 1.00698
3.95685 5.81777 0.493726
3.93454 10.9164 7.98934
6.44793 7.53848 20.2388
9.80743 2.99686 28.3219
11.2574 1.49544 0.352737
7.04294 1.07981 20.789
3.05897 15.7013 31.4084
11.1121 0.466161 1.78798
6.76005 1.41452 7.41103
4.25331 2.07835 12.0692
14.0014 14.6888 56.7969
0.967875 6.44376 43.4233
5.01493 1.62774 76.9195
11.6436 23.9608 71.7536
1.34696 31.4771 56.9855
16.1948 1.24079 2.55752
4.19489 1.64432 3.698
4.80851 2.15726 1.25522
2.94705 14.3413 72.1009
19.5292 25.9606 39.0913
6.40328 10.9198 118.962
22.8828 12.4014 13.6903
10.3161 13.8388 71.0716
8.18983 3.20357 3.1062
4.5115 0.781069 34.105
5.74523 6.30481 1.56568
3.97551 1.53451 7.07458
3.86351 15.326 27.9871
11.5288 0.499921 12.488
1.71201 11.5674 36.29
9.01087 14.5225 9.22191
7.21563 24.0325 120.543
23.7814 1.09193 27.2406
13.6935 0.355227 7.09749
10.9884 0.937443 9.97431
7.94217 2.78847 47.8783
19.5 4.90964 26.711
14.3079 7.39091 136.195
27.0519 32.5807 38.7817
3.8207 4.67066 7.05797
8.02611 10.8011 14.7786
3.37866 11.7978 16.2915
2.11053 17.2172 57.9889
15.9519 2.06732 3.62834
4.0136 4.76775 26.3038
15.1481 4.70877 6.73792
11.298 8.31596 26.7974
5.43975 0.0191127 6.10912
8.42575 1.16306 20.6147
6.20485 6.71096 10.7212
11.6635 8.02579 42.5434
2.59632 2.66635 1.22515
4.02168 4.50197 20.1763
14.0073 10.1026 61.9012
4.53959 25.5191 94.0594
17.194 6.01189 4.73546
10.764 7.18319 7.17174
3.52327 9.78916 24.7652
11.9812 2.79886 12.3977
7.92975 0.285293 1.47032
7.67281 16.6329 162.212
28.7714 13.7782 6.25799
12.2195 12.571 27.5411
5.80598 6.42851 0.828332
7.82758 15.7132 94.784
2.44368 15.4447 51.4971
11.1434 4.13323 13.6086
3.50362 1.99302 2.29888
4.84572 0.290691 3.29341
9.15383 6.14542 75.0606
8.02032 16.0332 44.0794
0.719172 5.34026 14.4103
7.0711 16.4071 16.7602
9.10813 5.76173 55.7594
4.81894 14.6095 66.5893
10.0387 12.5672 0.331426
5.66491 11.9756 32.9274
12.0184 0.482749 7.44982
9.64724 15.9853 32.0766
6.74402 2.28541 25.5205
3.49276 0.730776 1.24071
6.7327 2.54798 21.7171
1.97502 10.2248 71.8946
13.6942 6.25497 2.48542
5.49289 0.817367 12.3646
9.23123 9.26348 57.8819
1.48398 5.40532 42.6797
0.900459 9.65139 30.5324
4.80908 11.3165 4.65011
6.86358 4.90258 13.3826
8.55114 0.974471 12.1848
6.70948 1.97825 16.1807
9.09525 0.416785 15.4637
8.1315 6.0213 8.83994
7.53681 6.07105 45.5147
16.0424 3.73758 45.1842
9.35735 3.88639 11.1214
7.19372 4.47923 27.2052
4.28996 38.9197 124.612
22.733 21.2186 86.4871
2.50156 11.2828 0.582895
5.8713 4.17559 13.0778
2.77977 5.52155 9.36268
5.72443 4.72675 9.10816
7.67741 1.63259 5.47077
3.83833 20.9636 45.0629
15.3153 9.59949 41.3377
14.6423 6.30526 60.796
14.7558 4.7471 37.4363
3.47423 5.98078 14.5637
9.60497 1.88654 19.7122
11.9284 3.36981 17.0024
13.446 4.78429 26.057
3.3595 11.7778 40.1327
16.4347 2.15379 20.3902
8.39208 8.06458 25.939
15.6563 18.3186 20.649
9.02346 6.96596 43.7236
12.0073 3.9938 17.3176
8.35115 8.13113 48.4783
0.752154 5.25906 26.1765
9.43051 2.27031 14.4903
12.8625 16.2414 61.1877
1.43792 6.48175 14.2396
9.97038 4.56315 9.8216
11.1026 7.16672 22.783
6.53502 0.852679 12.3036
5.7624 0.567335 7.42199
5.32756 3.10527 62.0233
2.46981 2.97946 37.1329
6.55333 9.0326 1.82591
6.5205 3.10706 10.2175
9.86722 6.91949 11.4275
2.66199 9.1865 3.1693
6.47048 6.67825 22.0397
10.153 0.504617 16.4351
8.24854 1.71475 1.57727
8.09564 7.72435 50.3463
6.94141 2.21968 12.5199
5.24292 13.3435 36.3199
15.8516 5.76727 1.88535
6.68722 3.90032 16.3014
2.91788 2.12244 22.465
1.68159 2.54987 8.76105
2.90244 1.8882 4.00214
3.52338 3.76264 27.502
2.71232 6.34055 2.1336
3.27385 10.3509 10.165
8.00449 7.64753 6.58759
4.44986 21.9409 91.7347
22.2846 0.966959 4.38858
8.17006 4.60221 28.776
14.6676 3.71255 5.88896
3.89698 7.17149 14.7124
9.46145 0.965421 6.13273
6.56953 1.3053 4.79264
8.83052 2.7697 10.936
10.9741 11.1717 48.5712
10.9339 1.7141 37.1872
7.80949 0.303082 59.1746
6.03752 10.577 37.8071
13.6727 3.71052 10.9817
11.1298 1.28899 79.811
12.4862 23.9218 5.85171
6.59132 3.4786 18.5285
12.8686 5.08166 11.7359
2.56669 21.5031 90.8231
23.3678 18.6359 81.1507
19.3209 12.4094 25.148
6.29015 1.57511 3.84541
4.89905 0.570315 21.0047
9.19129 2.34587 1.85074
7.90849 3.7307 12.0723
7.9607 3.93303 9.89356
6.53962 1.94838 13.8502
2.52109 2.20876 18.2424
10.049 6.21925 5.40697
4.83841 1.15814 10.4813
10.6113 5.57724 28.9524
1.44223 3.22814 3.04325
6.04967 3.97373 38.9969
17.2529 18.9829 85.7675
3.18341 16.2336 44.2101
9.13499 2.86627 3.13055
7.6439 5.25354 4.98031
5.41512 2.26244 27.2434
4.62989 6.09289 38.3135
13.2364 26.5205 131.934
2.0715 11.0131 6.62009
5.47867 2.67471 8.64422
5.37975 5.19765 4.91129
7.72479 4.97478 41.1572
4.41056 16.0914 46.2791
16.0228 2.02962 3.64453
3.95363 3.33841 45.4363
9.24655 12.7829 6.95293
2.67957 24.3188 14.3212
8.8658 33.6531 244.587
39.9904 19.0639 83.7292
16.0083 9.0864 3.22212
7.10868 1.38014 12.5314
10.2916 4.81918 95.0921
24.249 12.0601 73.61
18.0669 16.1989 15.068
4.15133 9.37654 14.4636
6.52621 2.8586 58.4911
20.1411 15.9081 17.03
2.82697 1.82738 37.8736
9.99407 18.0695 38.3129
2.56829 10.9374 48.0994
13.0133 6.77175 18.5502
10.5009 4.96452 81.5326
22.8916 8.89709 13.0122
9.52496 1.48312 15.3097
12.7097 10.5771 15.0608
2.76921 2.02969 0.803471
5.10425 9.58867 72.6918
15.4446 4.29641 23.2406
13.8983 1.85073 53.6534
19.5413 24.1103 13.2335
3.09701 5.04042 23.0531
4.35064 0.129169 17.2578
8.98273 16.8061 86.5403
6.44965 16.1579 37.0137
14.607 4.14996 25.7441
6.87713 11.6087 26.7936
14.5551 27.5447 125.124
11.6426 2.59908 19.5843
4.53401 6.30758 89.9186
22.8542 12.6322 44.7282
9.84223 17.3934 2.49158
8.93601 27.8709 51.9127
2.30572 1.6448 26.8819
1.52193 4.82731 91.1858
1.91478 19.5985 7.73998
9.64601 3.75261 36.9419
11.8764 13.2586 66.613
18.9477 7.22636 4.12456
5.09228 0.210986 22.9516
13.6887 9.13131 18.5797
3.55658 9.95598 68.2224
16.2221 13.7953 21.413
10.4574 22.4948 67.7652
0.390471 1.6242 4.14968
6.92113 0.637889 4.23178
7.48519 9.99552 54.0444
0.677758 0.360728 87.3682
3.88052 24.7452 10.3009
10.7015 11.8524 19.8309
3.54715 8.78469 55.2021
8.55838 7.56612 18.143
12.4843 2.77248 68.9259
17.2879 5.15973 54.587
19.2801 29.5153 16.6653
3.03866 18.7599 88.0238
5.31181 6.33629 84.7427
0.634263 17.2519 4.69762
8.63789 3.54774 1.40165
5.29525 14.2238 106.78
12.9517 7.14993 55.1915
1.27714 7.35601 0.662237
5.26562 3.57507 16.6191
9.50289 0.188446 48.7564
11.5522 9.51468 3.79374
4.27532 4.10589 37.5277
15.1226 21.6275 14.526
2.39773 23.9686 139.496
8.17012 5.46903 10.4335
5.84866 4.70684 7.93381
9.10954 5.74185 72.2225
10.1036 13.4321 4.75096
9.22893 0 0