# pn-170911/RbIIA-34-RbIIR-1280-1959.psd
# Power spectrum* (dif=0,1,2) (really just |FT|^2)
# NOTE: only the first half! (symmetric)
# weeks: 1280-1959
# 3367 clock-days, 748 excluded
# PSD: 1441
6031.23 0.22899 0.0263055
235400 3.56227 0.0129634
1.45034e+06 29.6306 0.0134259
182103 6.61601 0.0131213
123257 8.09976 0.0135889
64036.6 6.34372 0.0135047
45584.2 6.34939 0.0138856
32531.4 6.28886 0.0144578
26316.5 6.61151 0.0147703
20310.3 6.53537 0.0154967
16489 6.2565 0.015739
13619 6.42417 0.016484
11270.3 6.30561 0.0173222
9906.17 6.39778 0.01821
8505.12 6.42367 0.0185586
7393.67 6.36179 0.0199389
6488.88 6.32068 0.020919
5790.23 6.45553 0.0221021
5030.81 6.29002 0.0229465
4607.23 6.49449 0.0239433
4206.49 6.48215 0.0252125
3842.15 6.44991 0.0263587
3468.28 6.46236 0.0281254
3101.43 6.26203 0.0284506
2932.03 6.44357 0.0304765
2657.97 6.43014 0.0324858
2501.88 6.4595 0.0338153
2319.35 6.56971 0.036027
2147.72 6.55665 0.0377512
2049.57 6.58649 0.0394247
1850.83 6.42578 0.0407043
1801.86 6.69789 0.0434441
1637.11 6.51507 0.0445851
1616.13 6.85822 0.0481966
1513.93 6.84298 0.050849
1369.69 6.54555 0.0511656
1333.79 6.82154 0.0541939
1312.1 7.01153 0.058495
1178.49 6.70009 0.0580785
1173.33 6.9233 0.0627513
1099.01 6.97515 0.0653726
1043 6.92076 0.0687741
1011.6 7.128 0.0732667
980.828 7.01449 0.0752275
923.055 7.00014 0.0770826
907.964 7.14062 0.0822293
859.241 7.16689 0.0847895
860.014 7.42809 0.0902739
781.377 7.11208 0.0889712
795.352 7.56177 0.0999883
739.679 7.30535 0.100033
747.984 7.70328 0.107631
710.237 7.63337 0.111304
677.319 7.49131 0.114349
674.794 7.84733 0.122001
647.177 7.66249 0.123453
629.721 7.95879 0.133448
606.946 7.80193 0.134871
579.904 7.77148 0.139063
575.236 8.02169 0.14543
543.536 7.89948 0.1487
535.556 8.07285 0.155934
538.693 8.39797 0.167927
525.898 8.45103 0.172779
519.301 8.56403 0.179876
482.224 8.32675 0.18105
484.817 8.46889 0.187158
480.555 8.76294 0.200618
459.939 8.68579 0.202808
461.75 9.0846 0.219241
433.125 8.64696 0.214481
420.879 8.58819 0.221123
422.582 9.0103 0.23552
404.053 8.85499 0.238565
398.272 8.90401 0.243116
398.259 9.08304 0.256873
387.424 9.17032 0.267235
386.203 9.35705 0.277075
373.444 9.35713 0.283329
362.695 9.30936 0.288702
357.28 9.37979 0.299195
356.45 9.79306 0.320258
345.733 9.64878 0.320625
335.79 9.50894 0.326935
334.525 9.5986 0.337369
333.626 9.82057 0.352028
321.609 9.75437 0.357861
322.111 10.0634 0.375169
310.8 10.0367 0.380824
315.697 10.296 0.399546
309.027 10.1642 0.403591
298.087 10.22 0.415195
295.436 10.3502 0.432044
290.045 10.4942 0.441095
287.721 10.5973 0.458611
288.143 10.9048 0.476649
286.345 11.037 0.497993
277.279 10.7665 0.496758
278.86 11.0603 0.51731
264.209 11.0278 0.527979
269.263 11.3286 0.55178
268.552 11.214 0.556316
264.277 11.4644 0.576581
255.762 11.3533 0.590784
251.817 11.5696 0.610557
243.162 11.2307 0.601961
252.615 11.8541 0.646782
247.534 11.7855 0.649712
237.69 11.6863 0.662446
236.988 11.826 0.680922
237.712 12.0669 0.707429
227.897 11.8238 0.703078
232.344 12.3241 0.750809
227.407 12.1516 0.749687
230.131 12.6284 0.791692
226.368 12.6348 0.806924
217.772 12.4695 0.811203
217.168 12.8063 0.84693
220.247 12.8638 0.859258
216.962 12.9681 0.886472
210.508 12.9163 0.897964
215.73 13.3824 0.947178
208.152 13.1659 0.940995
207.194 13.1093 0.949792
200.662 13.3023 0.98974
201.953 13.3952 1.01337
196.722 13.2382 1.0125
198.026 13.5715 1.04938
198.125 13.7764 1.07618
195.487 13.7775 1.09875
186.979 13.4762 1.08905
193.111 14.0935 1.15824
187.444 14.0647 1.16844
188.325 14.172 1.20417
182.001 13.9576 1.19892
182.217 14.0555 1.2209
183.004 14.6006 1.29447
183.479 14.6022 1.31483
177.024 14.4254 1.3134
172.08 14.2642 1.32032
173.796 14.7363 1.38088
173.943 14.6637 1.38784
170.067 14.8467 1.42554
166.319 14.7199 1.44447
170.187 14.9646 1.46831
163.183 14.8561 1.49634
163.398 14.8061 1.50744
165.31 15.1761 1.56056
159.492 15.1342 1.58313
160.302 15.1748 1.60862
169.191 16.2499 1.73907
163.092 15.8702 1.7235
152.682 15.3793 1.68783
156.559 15.6508 1.75398
157.512 15.9599 1.80161
159.138 16.5169 1.88312
148.772 15.65 1.81988
151.676 15.8527 1.84415
149.885 16.2021 1.91994
155.069 17.0001 2.04546
151.224 16.8918 2.05616
143.391 15.9941 1.97624
145.402 16.4349 2.04725
145.434 16.5108 2.08021
143.849 16.7963 2.14621
139.316 16.435 2.13188
141.567 16.9234 2.21052
139.365 16.9402 2.23785
142.425 17.3633 2.32117
132.022 16.3315 2.22204
135.408 16.7105 2.27581
137.566 17.5982 2.45022
136.988 17.5246 2.45139
133.283 17.1158 2.44101
134.467 17.4519 2.50646
131.725 17.6903 2.55357
136.115 18.2571 2.66596
130.397 17.5572 2.59712
125.408 17.3825 2.61186
130.673 18.0738 2.7297
127.688 17.757 2.72929
126.53 17.7057 2.73669
123.431 17.6611 2.77142
126.491 18.2651 2.88625
121.767 17.7665 2.83848
120.046 17.7834 2.87522
120.531 18.1494 2.96576
123.882 18.8139 3.10222
123.857 19.0477 3.18459
123.068 18.9568 3.19814
122.592 19.042 3.23186
121.095 19.1134 3.29255
118.888 19.0886 3.32566
116.482 18.5881 3.23316
116.076 19.0464 3.37241
114.943 19.0314 3.40287
116.293 19.0601 3.44394
114.079 19.0518 3.46062
112.432 19.3407 3.57469
109.35 18.733 3.50609
115.417 20.0399 3.76059
108.806 19.0858 3.65205
109.249 19.4487 3.75992
108.298 19.1008 3.67665
109.85 19.8769 3.87788
106.653 19.4148 3.81639
106.931 19.9829 4.01408
105.5 19.7074 3.96903
107.496 20.0433 4.03761
102.493 19.5501 4.04074
100.637 19.1628 3.96379
101.405 19.4426 4.06456
103.369 20.4497 4.31335
105.928 20.7982 4.44711
101.367 20.0474 4.29609
101.868 20.4842 4.43071
99.2888 20.0441 4.37954
99.3461 20.2575 4.49252
99.2637 20.4861 4.55043
96.1345 20.0154 4.48903
96.9088 20.2552 4.60696
93.3906 19.8488 4.53998
95.1825 20.0649 4.63123
93.618 20.3098 4.74899
94.7443 20.3818 4.76527
92.3294 20.314 4.8309
90.0638 20.0387 4.81496
92.381 20.4969 4.9261
87.7235 19.9752 4.85891
89.5558 20.2835 4.95931
88.4968 20.3982 5.03551
89.2299 20.8113 5.20331
88.385 20.5224 5.17117
90.7453 21.2485 5.40113
83.925 19.9466 5.10605
89.529 21.5699 5.55527
85.9719 20.6129 5.33988
84.4942 20.8429 5.5029
83.2682 20.4049 5.4156
88.2166 21.7795 5.75057
84.3957 21.0686 5.68604
86.5067 21.9382 5.92002
81.3088 21.1047 5.80185
80.5893 20.571 5.65666
84.1257 21.787 6.01464
85.1419 22.1641 6.21171
82.2827 21.8118 6.15847
81.423 21.4776 6.10697
83.5298 22.5753 6.4798
81.9088 21.9073 6.32595
79.6058 21.6035 6.33371
82.2457 22.5994 6.64429
79.8989 21.7137 6.42329
80.2038 22.3701 6.66217
81.2601 22.6133 6.78648
79.7206 22.3807 6.73898
76.9031 21.8682 6.69094
78.9913 22.9623 7.0723
79.7502 22.8807 7.02441
77.1747 22.7902 7.14446
77.6176 22.3531 7.05724
78.7601 23.3797 7.40288
76.7493 22.7226 7.19649
74.2909 22.3274 7.18576
75.9975 22.8758 7.36645
74.1607 22.5162 7.33656
73.8499 22.8631 7.49791
73.7761 22.8411 7.53395
73.5952 23.0069 7.71538
72.9549 22.8817 7.64853
71.2019 22.6669 7.69441
73.3773 23.3488 7.92841
72.0277 22.9945 7.87513
71.0378 23.1082 7.98029
72.0089 23.3564 8.14616
70.7396 22.9311 8.05102
68.7389 22.8535 8.07484
70.3426 23.0504 8.10332
66.3806 22.4568 8.09625
70.6449 23.7365 8.54492
69.0077 23.355 8.46789
67.4929 22.9859 8.39009
70.1067 24.0381 8.82714
67.7254 23.5246 8.70724
64.7093 22.5776 8.45678
67.0646 23.3579 8.7427
65.7353 23.2358 8.76601
65.7204 23.4751 8.90216
64.6235 23.2048 8.9032
65.3104 23.6984 9.18396
64.5584 23.1662 8.95429
65.1189 24.0233 9.34587
64.677 23.8794 9.40513
63.6541 23.6477 9.31902
63.9563 24.37 9.81723
62.4992 23.3338 9.33086
63.9619 23.9506 9.62516
62.6177 23.906 9.66403
60.4361 23.3322 9.63157
62.8262 24.1221 9.88539
60.5578 23.586 9.77781
61.0636 24.0283 9.97143
61.0422 24.1031 10.1031
61.1102 24.2324 10.2603
61.0575 24.2311 10.2348
59.9062 24.1733 10.325
58.6209 23.7013 10.1698
59.9541 24.2642 10.6209
58.7404 23.7629 10.274
58.7476 24.2998 10.705
58.659 24.1568 10.5894
57.6729 24.1529 10.6962
58.826 24.5956 10.9501
57.9587 24.6409 11.0986
56.4831 23.6946 10.7056
54.698 23.241 10.5394
56.863 24.5001 11.2101
55.5747 24.275 11.1704
56.0193 24.2408 11.2507
55.5966 24.2489 11.2361
52.6847 23.3431 11.0329
55.2968 24.4165 11.3904
53.3044 24.0032 11.4598
53.6595 24.1772 11.5801
52.7978 23.8183 11.3988
53.2698 24.3827 11.7973
54.5626 24.8821 12.0784
52.8548 24.7036 12.1517
54.9206 25.0566 12.1899
51.6923 24.1413 12.0151
53.1826 24.4741 12.1415
51.1663 24.0877 12.1178
52.5928 24.4614 12.201
51.0543 24.5774 12.4692
50.9029 24.2081 12.2818
51.1405 24.4874 12.5136
51.2365 24.8954 12.8129
50.8372 24.5358 12.6649
50.4251 24.5428 12.6737
48.8558 24.2138 12.7823
50.7122 25.3825 13.4456
49.6635 24.5628 12.9839
49.0278 24.5844 13.0902
49.3722 24.6819 13.1082
47.2173 24.0257 12.9875
47.8234 24.132 13.0207
49.5373 25.2046 13.6861
47.0701 24.1053 13.2002
48.4229 25.0641 13.8686
48.416 25.2302 13.9587
47.1841 24.7895 13.8365
48.5916 25.7506 14.2879
47.7832 25.6065 14.5447
48.3073 25.8351 14.5554
46.6756 24.7274 13.8489
45.5112 24.4351 14.1837
46.4046 24.8219 14.0887
44.7624 24.835 14.4864
44.7982 24.2611 14.0313
44.0232 24.2787 14.2425
45.2099 24.8048 14.5514
45.4532 25.0363 14.7477
45.6533 25.6428 15.1486
44.866 24.8826 14.6857
44.9795 25.449 15.4008
44.9498 25.1952 15.0048
42.8867 24.7242 15.0822
44.1245 25.0544 15.2043
42.7272 24.5446 15.0574
44.2084 25.4118 15.5363
42.1422 24.7487 15.4313
43.7926 25.4747 15.7934
42.5018 24.9141 15.5557
43.4086 25.6741 16.0801
42.9027 25.468 16.0304
42.7448 25.7261 16.464
42.9604 25.4671 16.1895
41.1181 24.9059 15.9848
40.2563 24.2485 15.5583
40.3842 24.7846 16.0363
39.4747 24.3467 15.7778
40.1048 24.7118 16.1641
38.827 23.6582 15.3882
40.1424 25.2278 16.5974
39.6481 24.5704 16.2912
38.6232 23.9651 15.9303
37.8032 23.7524 16.0008
39.575 24.7722 16.5255
39.955 25.4028 17.0703
37.8954 24.4471 16.6492
38.9267 25.237 17.165
38.7778 24.9557 17.1291
37.3305 24.3121 16.8596
37.0856 23.9672 16.4912
36.8936 24.4344 17.1726
37.9158 24.7281 17.2078
38.1111 25.1702 17.53
37.8337 24.8511 17.3803
37.1928 24.6904 17.4451
36.8053 24.6399 17.4317
35.5182 24.0803 17.3926
37.0617 25.5383 18.4234
36.7019 24.8076 17.9206
36.3558 24.9664 18.2334
36.4692 24.827 18.1744
36.2735 24.9068 18.2621
35.1407 24.3499 17.9322
36.5603 25.3835 18.6836
37.1509 26.0314 19.3477
36.3834 25.5735 19.1184
35.7768 24.9271 18.4965
35.0233 25.0806 18.6576
33.3246 24.2159 18.6681
34.5429 24.3541 18.2223
34.1062 24.7474 19.0339
34.5389 25.0658 19.2043
34.9896 25.286 19.2906
34.0942 24.7388 19.2355
33.9098 24.9131 19.2741
34.3727 25.0104 19.3134
33.943 25.3695 19.9258
33.4071 25.1277 19.8831
34.6117 25.6013 20.1121
33.5843 25.0787 20.0865
33.4516 25.1441 19.9451
33.1343 25.2111 20.2326
33.5089 25.0554 19.9917
32.5819 24.9788 20.2614
32.9442 25.1284 20.5233
32.7472 24.8601 20.0543
32.8238 25.238 20.5422
32.5196 25.1928 20.6762
32.8009 25.7269 21.2555
31.428 24.5231 20.4266
31.1363 23.8672 19.7202
31.5121 25.1113 21.1682
32.4685 25.6993 21.4768
32.098 25.2911 21.3093
31.2602 24.6463 20.7149
30.3979 24.3323 20.6669
31.3218 25.6573 22.0713
31.853 25.4038 21.424
30.6354 25.0118 21.57
30.0585 24.4736 21.5076
30.8588 25.5408 22.1806
30.0244 24.5383 21.3819
30.9394 25.5357 22.2221
29.8484 25.064 22.2348
30.8185 25.5605 22.4343
30.2461 25.2361 22.2237
30.0081 25.001 22.0955
29.681 25.3063 22.6755
29.5071 24.718 21.9863
28.2371 24.3912 22.158
28.3276 24.0867 21.9343
29.5218 24.8667 22.4089
28.3435 24.1104 22.1106
28.9217 24.7358 22.4878
28.8209 24.8963 22.9114
27.8289 24.1779 22.4198
28.3225 24.6835 22.9975
29.354 25.6737 23.7875
28.7332 25.3355 23.6258
28.4255 25.1341 23.378
28.6004 25.5651 24.1572
28.2332 25.0339 23.4825
27.237 24.5868 23.6114
28.9243 25.7886 24.3627
27.4357 25.0072 24.1467
28.7849 25.7065 24.526
28.0863 25.2318 24.2924
27.3641 24.9007 24.0815
27.0982 24.528 23.6319
26.0078 24.2794 24.0155
27.3456 24.9494 24.1777
26.71 24.7404 24.3945
27.1289 25.0875 24.4982
26.2489 24.618 24.641
26.8593 24.9187 24.4992
25.988 24.2822 24.2477
26.2162 24.8784 25.1267
26.4304 24.7545 24.8054
26.3285 24.7547 24.8817
25.8662 24.9354 25.2195
26.2125 25.1335 25.7649
25.7161 24.539 24.9419
25.9848 25.067 25.6464
25.6011 24.477 25.0167
25.681 25.0625 25.9809
26.3568 25.3867 25.9326
25.6341 25.2996 26.3731
24.7088 24.1781 25.2787
25.3964 25.3323 26.7525
24.9239 24.3606 25.2963
24.3312 24.1713 25.4464
24.5459 24.703 26.2877
24.8239 24.9927 26.5688
23.9062 24.3873 26.2807
24.3474 24.4274 26.0031
23.9178 24.1333 25.8071
24.4244 24.9835 26.8168
24.5963 25.041 26.8909
23.3553 23.8257 25.7571
23.3446 24.2835 26.6081
23.4132 23.9378 26.1325
23.8984 25.0074 27.8125
24.4281 24.9582 27.0871
23.3562 24.3194 26.8399
23.616 24.3399 26.8669
23.3644 24.9472 27.712
23.8285 25.3042 28.102
23.3036 24.8842 28.2345
23.2138 24.655 28.0222
23.4163 24.4365 27.5928
23.3725 24.6272 27.678
23.2516 24.8109 28.256
22.6485 24.1325 27.5091
23.1904 24.9287 28.5929
23.0164 24.6135 28.1733
22.2103 23.766 27.0937
22.4807 24.8976 28.8447
22.5416 24.5218 28.6785
21.9255 23.9441 27.897
22.4052 24.4753 28.4658
22.2291 24.546 28.8027
22.074 24.1741 28.2615
22.1484 24.3577 28.5325
21.5585 23.7926 28.1592
21.5399 24.5738 29.5662
21.3052 23.847 28.3227
20.3295 22.6596 27.0379
20.7967 23.9392 28.955
21.4192 24.6406 30.0404
21.7691 24.6169 29.5736
21.2105 23.9619 28.9117
21.1909 24.4269 29.9488
20.977 23.8301 28.8802
20.5424 23.6834 28.8425
20.4585 23.574 29.0048
20.7905 24.1113 29.8154
20.6802 24.1473 30.2317
20.4366 23.7297 29.421
20.3506 23.3358 28.9772
20.1732 23.396 29.0114
19.8708 23.0216 28.6641
19.5187 23.0095 28.8884
19.8863 23.6754 29.6226
19.5781 23.2132 29.3242
19.3425 22.7239 28.7788
19.4326 23.5646 29.7409
19.7929 23.5658 29.9378
19.6939 23.6168 30.0299
19.0854 22.9734 29.2836
18.9938 23.1365 30.1277
19.8266 24.1287 31.0811
19.4959 23.656 30.7135
18.4609 22.3854 29.5382
19.4674 23.6011 30.6656
19.1898 23.9675 31.5198
19.558 23.9877 31.266
18.9228 23.3223 30.813
19.7184 24.5086 32.313
18.9992 23.5431 31.0783
19.0917 24.0485 32.0771
18.9316 23.6589 31.6643
18.7198 23.5318 31.6578
18.9779 23.7104 31.353
18.4874 23.5116 32.2867
18.8668 23.8673 32.1534
18.2546 23.018 31.3828
18.9269 23.957 32.1718
18.4931 23.3729 32.1246
18.524 23.8095 32.1831
18.2743 23.5619 32.21
18.3258 23.9385 33.3466
18.1791 23.489 32.7456
18.4377 23.5339 32.1522
18.4949 24.1462 33.3404
18.2428 23.8463 33.3045
18.1737 23.6038 32.6162
17.9972 23.8354 33.756
18.3509 24.1108 33.5657
17.293 22.3142 31.3127
17.5131 22.9958 32.2408
17.4568 23.3091 32.7154
17.4837 23.4553 33.5195
17.6548 23.6856 33.8022
17.3341 23.4423 33.3694
17.7275 23.7149 33.7105
17.907 24.5878 35.6005
17.4327 23.5997 34.523
17.1604 23.0886 32.9866
17.1737 23.4915 34.0886
17.0071 23.0574 33.2356
16.8643 23.1446 33.7456
16.4185 22.4418 33.0576
17.1133 23.3084 33.8677
16.569 22.9168 33.815
16.987 23.7096 34.9182
16.4716 22.9758 34.2744
16.8454 23.2155 34.135
16.0424 22.3571 33.7256
16.6516 23.482 34.7556
16.4262 23.2531 35.3291
16.437 22.8218 34.2574
16.4774 22.971 34.2339
16.1918 23.0891 35.1956
16.7228 23.4064 35.0252
16.584 23.5687 35.7035
15.9782 22.7223 34.7083
16.0207 22.5984 34.5233
16.5033 23.6068 35.8713
15.8654 22.7784 35.1182
15.8366 22.7853 35.1897
15.8449 22.4117 34.1689
15.4901 22.1668 34.2768
15.8404 22.8412 35.1632
15.5402 22.7344 34.7716
14.9168 22.2345 35.2108
15.4493 22.5626 35.2367
15.3892 22.7835 36.3052
15.7399 22.8479 35.9482
15.606 22.8679 36.0349
15.6838 23.0358 36.1923
15.0283 22.4686 35.8244
15.7632 23.4688 36.6959
15.2095 22.8625 36.3048
14.7789 21.9975 35.312
14.7514 22.2036 36.0734
15.0572 22.1562 35.6693
15.3564 22.6024 35.8829
14.9321 23.0034 37.5893
14.6962 22.4211 36.3824
15.0156 22.79 37.1621
14.9864 22.7212 36.5784
14.6508 22.3087 36.5053
14.9416 23.1059 37.7898
14.7817 22.4613 36.3599
14.4987 22.2985 36.5326
14.4291 22.3495 37.3985
14.726 22.3433 36.2752
14.3533 22.8092 38.5702
14.8547 23.0878 38.654
14.5527 22.4274 36.6013
14.0349 22.5106 37.9229
14.7487 23.2981 39.2342
14.2639 22.2425 37.0609
14.3843 22.4582 37.6587
14.0285 22.171 37.266
14.096 22.5401 37.6942
13.6869 21.8073 37.5089
14.0964 22.6553 38.553
14.224 22.862 38.8441
13.9698 22.7851 38.8284
13.9933 22.7162 39.0247
14.1149 22.4485 38.6596
13.3277 21.2302 36.8406
13.5411 21.502 37.291
14.1222 22.9911 39.3366
13.4629 21.9285 38.2758
13.5312 21.6833 37.5577
13.5698 22.1104 38.0226
13.4302 22.1088 38.7636
13.4514 22.0049 38.7089
13.4377 21.8857 38.2702
13.1612 21.7495 38.3757
13.3487 22.16 39.2673
13.3603 21.9097 38.5416
13.1098 21.9243 38.9915
13.4712 22.8941 41.0227
13.3673 21.6875 38.8623
13.4014 22.6063 40.3256
13.4406 22.4393 40.032
13.5734 22.5846 39.8817
13.2695 22.8071 41.3569
13.0017 21.4894 38.8058
13.2803 22.5108 40.7581
12.5744 21.1437 38.5914
12.5875 21.6844 39.6314
12.5794 21.5573 39.3467
12.6591 21.5265 39.3931
12.6189 21.7936 40.045
12.9318 21.9629 40.0016
12.7551 22.4977 41.067
12.4832 21.419 39.6956
12.7451 21.9113 39.5958
12.0193 21.3154 39.9705
12.4197 21.9372 41.2598
12.2677 20.8374 38.371
12.1684 21.4245 40.0979
12.0337 20.5814 39.092
12.0685 21.0431 39.3392
11.7912 20.6671 38.6941
11.66 20.4839 38.9879
12.0143 20.9516 39.4008
11.8712 20.6831 38.45
11.901 21.2018 40.1868
11.8457 20.9175 40.0756
11.9119 21.3409 40.1047
11.9614 21.7305 41.6434
11.622 20.3267 39.5007
11.9579 20.9501 39.6099
11.7262 21.0982 40.6547
11.9178 21.5877 41.2202
11.9436 21.512 41.3757
11.6961 21.1755 40.8055
11.7849 21.3229 41.1563
11.7469 21.4059 41.7298
11.5428 20.9396 40.8609
11.5874 20.7574 40.1859
11.267 20.4417 40.224
11.5973 21.8218 42.8004
11.5083 21.0305 41.2204
11.5248 21.4459 42.2908
11.4772 21.0285 41.5568
11.4124 21.3403 42.4615
11.361 20.7491 41.4985
11.6773 21.7021 43
11.5019 21.4557 42.8103
11.5481 21.4537 43.0257
11.6214 21.6855 43.0283
11.0783 20.4549 41.3754
11.2888 21.336 43.199
11.438 21.1358 42.1151
11.5796 21.7747 42.4963
10.6872 19.885 40.8996
11.1423 21.394 42.7555
10.9595 21.044 43.0971
11.3115 21.4562 43.3237
10.9536 20.7468 42.5424
10.9842 21.1308 43.2507
10.879 20.6099 42.39
11.0416 21.169 43.5785
10.8301 20.2991 41.1242
10.5885 20.6248 43.0849
10.6953 20.2465 42.3635
11.0326 21.1805 43.5518
10.6947 21.0643 44.5585
10.9184 21.0442 43.7252
11.0112 21.3303 43.8423
10.4478 20.1059 42.3243
10.6105 20.5807 42.7184
10.2966 19.8931 42.0969
10.4268 20.6249 43.2069
10.3892 20.0928 42.1496
9.96896 19.5371 41.7857
10.4911 20.827 44.7458
10.9878 21.1216 43.4046
10.2217 20.294 43.3597
10.2344 20.1286 43.5578
10.8053 21.1523 44.2267
10.197 19.932 42.3405
10.0773 20.6638 44.3921
10.1933 20.0336 43.1937
10.3605 20.5959 43.7827
10.3393 20.7466 44.4437
10.1565 20.1426 44.0268
10.2753 20.7791 44.3135
10.0154 20.0594 43.4066
9.93628 20.052 44.3751
10.1901 20.4273 44.4658
10.3032 20.5973 44.6552
10.1461 20.4293 44.2149
9.75395 19.6687 42.584
9.57009 19.8757 43.8449
9.79618 20.195 44.7544
9.88528 19.9565 43.6498
9.8988 20.5975 45.1685
10.0482 20.8974 45.7996
9.90925 20.2893 44.4517
9.78381 20.7073 46.6331
9.88262 20.1423 44.9637
10.0322 20.7405 46.0348
9.93047 20.2433 44.9354
9.70083 20.1893 44.6884
9.42532 19.6454 43.988
9.44371 19.5782 44.5193
9.52852 19.6414 44.4698
9.89862 20.6964 46.0987
9.35248 19.6964 44.9671
9.51501 20.0586 45.7229
9.77196 20.822 46.0833
9.47868 20.2869 47.1401
9.73802 19.9506 44.3536
8.93806 19.2655 44.716
9.42631 19.7645 45.5582
9.61658 20.2738 46.0792
9.42983 19.9154 45.4471
9.29676 19.7846 45.3941
9.20113 19.7718 45.2758
9.10662 19.7404 45.7637
9.36522 19.7217 45.0922
9.1608 19.4281 45.0665
9.35067 20.538 46.8284
9.1483 20.1365 47.158
9.3554 20.0927 46.0984
8.9836 19.4892 45.4511
8.94948 19.4581 45.6452
9.01266 19.6483 46.3584
9.07254 19.8346 46.5538
9.07961 19.5666 45.4932
8.71713 18.9113 44.8247
8.98814 19.7941 46.6108
8.91185 19.4105 45.5221
8.66992 19.0788 45.0808
8.78105 19.4316 46.4812
8.95331 19.3179 45.0143
8.61201 19.7921 47.1679
8.68922 18.7567 45.6639
8.99824 19.6905 46.499
8.38173 18.3755 44.1922
8.63947 19.3806 47.0075
8.93471 19.6926 46.8012
8.9123 20.0874 47.3498
8.42853 18.9669 46.5231
8.8384 19.547 46.9544
8.63874 19.2596 46.6024
8.80749 19.8968 48.2652
8.73026 19.4766 47.4038
8.73897 19.8343 47.6856
8.70989 19.2189 46.502
8.4981 19.6105 47.9681
8.60405 19.1182 47.0531
8.60307 19.5199 47.667
8.4446 18.9917 46.7583
8.34794 18.7883 45.8932
8.32461 19.237 47.2071
8.41584 19.1672 46.3906
8.14729 18.6592 46.1157
8.1353 18.6233 45.7623
8.19109 19.2802 48.5782
8.37907 19.0636 47.0227
8.32762 19.4835 48.2579
8.43627 19.6122 49.1361
8.51292 19.9092 49.6393
8.54711 19.3835 48.7853
8.40381 19.6311 48.9855
8.43628 19.5377 49.1594
8.35002 18.9896 47.4331
8.37838 19.6945 49.1111
8.37981 19.9945 50.0146
8.23654 19.0944 48.2476
8.20772 19.3087 48.5315
8.14788 19.0748 48.393
8.18025 19.0518 48.3281
8.05787 18.9064 48.6264
8.33479 19.781 49.653
8.01033 19.0245 48.766
8.1053 18.9332 48.0105
7.74802 18.6244 48.9633
8.15061 19.2827 49.2517
8.0479 18.9384 48.7577
8.17429 19.3446 49.7142
8.13499 19.3585 49.9709
8.19796 19.1011 47.6294
7.76526 18.6977 48.2921
7.82694 18.7891 48.5301
7.66171 18.5214 47.8787
7.71006 18.2171 46.6755
7.62067 18.298 47.1898
7.68974 18.9093 48.9825
7.63222 18.5957 49.1486
7.92977 19.2751 50.3469
7.90431 19.0393 50.1111
7.88645 19.1919 51.0851
7.95267 18.9071 48.7011
7.76312 19.1299 50.3513
7.68015 18.6877 49.9296
7.84453 18.5901 48.3052
7.56035 18.5808 49.27
7.61875 18.5843 49.347
7.43635 17.941 47.8611
7.61989 18.7569 49.1742
7.49632 18.1595 47.9001
7.31918 17.9819 48.1978
7.526 18.5848 49.1042
7.45582 18.2729 49.1575
7.49289 18.5136 49.0639
7.52324 18.3333 47.7148
7.23426 18.3717 49.5924
7.31701 18.244 50.2756
7.68846 19.0394 49.688
7.42055 18.7367 51.4406
7.52382 18.4288 50.3466
7.58876 18.3154 49.603
7.53846 18.9549 51.3214
7.59023 18.8237 49.3187
7.12167 17.9673 49.94
7.25898 17.7032 47.7144
7.27983 18.5579 49.9075
7.17732 18.0763 49.5328
7.28636 17.882 48.6484
7.22141 18.0442 48.319
6.95077 17.3568 48.4951
7.11002 17.9842 48.9421
7.10274 18.3512 50.7307
7.22148 17.8971 48.6827
7.09594 18.0957 48.4221
6.7652 17.4446 49.194
7.13399 18.1011 49.0078
6.83751 17.6971 49.4494
6.98363 17.7706 49.525
6.86789 17.4459 48.688
6.86302 17.4716 48.8728
6.87162 17.355 48.1141
6.87004 17.9265 50.4089
6.97929 17.8866 50.1111
6.99643 17.9056 49.9599
6.90624 17.7043 49.0859
6.80362 17.6371 50.1266
6.9516 17.4029 48.8468
6.78159 17.2864 48.3315
6.76559 17.5607 49.2357
6.85083 17.9189 49.3326
6.67825 17.6878 50.7225
6.80933 17.3886 49.792
6.87729 17.5271 48.2855
6.53819 17.4924 51.1879
6.90225 17.6191 49.3713
6.73617 17.6755 50.8677
6.78023 17.32 49.2695
6.78846 17.8954 50.2962
6.59809 17.6539 50.5861
6.68068 18.0132 51.1264
6.63703 17.5083 50.4998
6.65435 17.2146 49.5209
6.72934 17.8331 50.8926
6.64657 17.6237 50.7854
6.47462 16.9333 49.2267
6.65038 17.9494 51.7874
6.63765 17.3698 50.8305
6.69634 17.7975 50.9636
6.51778 17.3722 50.5988
6.65732 17.4619 50.8848
6.61528 17.1647 49.1319
6.43647 17.6155 51.4808
6.63081 17.9574 51.5162
6.50373 17.5167 51.0723
6.51152 17.5125 51.6334
6.6155 17.7227 51.4832
6.46678 17.4593 52.0355
6.71887 17.9968 52.1945
6.60737 17.4153 51.1537
6.4353 17.1034 49.3774
6.26022 17.0473 50.4886
6.35532 17.1928 51.6363
6.45974 17.1392 49.654
6.28035 16.9949 50.1086
6.28474 16.9842 50.1027
6.28326 17.4614 51.5424
6.28786 16.9916 50.2159
6.34178 17.7498 52.5204
6.385 17.5216 52.1166
6.38891 17.3239 51.1483
6.37144 17.4805 51.8616
6.28135 16.8611 50.6908
6.45497 17.6788 51.9838
6.33275 17.2603 50.9663
6.18199 17.0233 50.6912
6.20367 16.9463 50.5492
6.17422 17.3744 51.6389
6.14556 17.1738 53.3306
6.43611 17.4502 51.8421
6.04694 16.8132 51.4715
6.26594 16.9886 50.9886
6.21755 17.1188 50.9697
6.08022 16.9574 52.3511
6.31255 17.6248 51.8468
6.10924 16.9282 51.3557
6.26478 18.0347 54.2381
6.12518 16.6913 52.0443
6.23281 17.4748 52.3093
6.01947 17.1168 52.1485
6.06251 17.0581 52.3994
6.22573 17.6789 52.9025
6.02643 16.8274 51.7829
6.05482 16.9809 51.972
5.98077 16.4662 50.6166
5.98073 16.5807 51.3649
5.95344 16.9632 52.6614
6.10917 17.0508 52.263
6.09884 17.209 52.8312
5.98291 16.8826 51.2226
5.95268 17.0142 51.6187
5.71946 16.5651 52.341
6.00627 16.8293 51.9794
5.82529 16.4221 50.644
5.83187 16.5417 52.5987
5.98558 16.5989 51.1211
5.79278 16.604 51.2519
5.81688 16.6195 51.8935
5.88724 16.7221 52.0958
5.85567 16.5529 51.4577
5.83117 16.8169 53.0899
5.89153 16.5713 51.281
5.83946 16.8307 52.7228
5.79545 16.7509 51.8086
5.70361 16.8048 54.3513
5.9503 17.0511 53.5868
5.92139 16.5147 51.6263
5.78629 16.4108 51.3498
5.73869 16.717 51.7354
5.62258 16.0497 50.5657
5.50301 15.878 51.5141
5.67336 16.2863 51.4272
5.72451 16.7043 52.9685
5.72074 16.4698 52.1138
5.79302 16.94 53.7978
5.81339 16.4097 51.9206
5.71351 16.5552 52.0207
5.6585 16.4926 51.8808
5.67941 16.8537 54.3161
5.69694 16.2788 53.394
5.84083 16.772 52.3169
5.61932 16.591 53.3116
5.63841 16.4785 52.9788
5.69853 16.5176 51.3058
5.39308 15.9265 52.3297
5.63594 16.4012 51.8696
5.54781 16.534 53.7837
5.71333 16.7374 53.9227
5.63261 16.0905 52.4614
5.59847 16.439 53.1246
5.68771 16.8765 52.4448
5.43659 16.4681 53.1131
5.52178 16.3596 52.9982
5.58692 16.6899 52.9142
5.47233 16.548 54.0406
5.49179 15.6295 51.7255
5.53124 16.4013 51.5985
5.28975 15.8025 51.9429
5.44165 16.3495 53.115
5.453 16.2797 52.9359
5.43781 16.3315 53.5824
5.47747 16.3983 53.2249
5.38255 15.825 51.9416
5.3761 16.3725 53.7637
5.36174 16.0053 52.9275
5.54564 16.3062 52.3862
5.29375 16.0098 53.1218
5.36792 15.8496 52.5466
5.31361 15.8883 52.2763
5.35028 16.2751 52.7403
5.32559 16.1275 53.4625
5.43696 16.0393 52.5848
5.28689 16.1715 54.4543
5.3603 15.9898 53.277
5.33298 16.1069 52.024
5.22963 15.977 53.6359
5.33263 16.1604 53.6786
5.36012 16.0102 53.3054
5.38446 16.4052 53.1885
5.19947 16.3684 54.6993
5.34662 16.1841 54.2652
5.28945 16.0657 53.3245
5.2344 15.6857 53.6682
5.42215 16.494 54.3405
5.31709 15.9664 52.1669
5.13018 15.9922 54.5942
5.29004 16.0472 52.2278
5.09256 15.8008 53.0535
5.10158 15.4551 52.1193
5.12132 15.7397 53.3311
5.20166 15.7867 52.2388
5.09498 15.8267 53.1308
5.11846 15.8172 53.5316
5.18869 15.8294 52.6385
5.06544 15.9881 53.9365
5.1661 16.0383 54.2233
5.14923 15.7746 53.1787
5.10754 16.1716 54.1006
5.10051 15.8479 55.9031
5.23643 15.8037 53.033
5.11727 16.3958 55.9149
5.19161 15.3767 52.8074
5.08463 15.7452 54.2039
5.083 15.8318 54.0064
5.11714 16.1572 55.494
5.27543 16.2407 52.7184
4.87627 15.1985 53.0748
5.07364 15.7735 52.9099
4.95019 15.3752 53.171
5.02424 15.795 52.8581
4.95482 15.5301 52.3851
4.91914 14.8934 51.8267
4.9556 15.674 53.502
4.97094 15.4703 52.8786
4.89022 15.47 54.3891
5.05182 15.579 52.001
4.85103 15.7087 54.8372
5.04287 15.454 53.5728
4.97568 15.4623 52.5402
4.80792 15.2691 53.7557
4.97797 15.4983 52.3565
4.87183 15.3427 54.3981
5.11029 15.7711 53.1844
4.82005 15.3295 53.1284
4.75196 14.9591 53.0065
4.90485 15.127 52.5953
4.85877 15.3189 52.559
4.81155 14.679 52.1175
4.91635 15.9159 55.4416
5.05436 16.0078 54.4435
4.8099 15.5484 54.0473
4.82937 15.3253 54.0123
4.91589 15.3434 53.502
4.87285 15.5018 55.2536
5.01253 15.5997 53.611
4.83182 15.9371 55.1067
4.92435 15.771 54.7325
4.82242 15.4998 54.3281
4.86572 15.3931 54.4821
4.85654 15.3693 54.118
4.80296 15.1569 53.6275
4.9204 16.0294 55.6159
4.92335 15.4255 54.4206
4.8417 15.7835 55.5654
4.86038 15.5614 54.2054
4.76861 15.1577 53.9305
4.88098 15.5703 53.4377
4.68451 14.8714 53.2759
4.75833 15.3489 55.2006
4.8361 15.4927 55.1225
4.89149 15.5962 54.9873
4.80172 15.2478 53.9182
4.6977 15.5532 54.4978
4.77258 14.9378 54.5461
4.83016 15.7465 54.5851
4.7717 15.3785 53.9493
4.74062 15.6453 56.2908
4.96546 15.9416 55.6191
4.7774 15.2513 53.5092
4.65445 15.2488 54.4182
4.68091 15.1542 55.2738
4.7532 15.5078 54.6416
4.60386 15.096 53.7501
4.72317 15.418 54.4261
4.61377 15.3247 56.3726
4.74838 15.6761 55.9516
4.74879 15.3395 54.7617
4.69595 15.0343 54.4641
4.67056 15.5023 56.3111
4.83516 15.3549 55.4914
4.66746 15.2961 54.4012
4.63823 15.6597 57.4653
4.90056 15.7223 56.9504
4.79663 15.1632 54.2867
4.68099 15.472 55.1143
4.67472 15.4135 55.8708
4.77432 16.2927 59.3851
4.96708 16.3483 58.2763
4.85259 15.9117 56.8837
4.73342 15.5401 56.7363
4.79385 16.2782 57.4492
4.75892 15.347 56.2114
4.75877 15.6163 57.5751
4.86629 16.0255 56.7627
4.73214 15.7289 56.3255
4.57091 15.378 56.8178
4.68953 15.3077 55.8227
4.68378 15.2508 55.2714
4.57226 14.9142 53.8618
4.52636 15.2422 54.6087
4.52031 15.0199 56.0921
4.60392 15.1811 55.0662
4.5555 15.2361 55.9094
4.57647 14.743 54.4588
4.55912 15.5394 55.7956
4.60395 15.2403 54.6603
4.47677 15.1651 56.521
4.5645 14.7585 53.8236
4.4941 15.3025 55.986
4.58554 15.0929 56.6705
4.69261 15.1465 53.7092
4.39077 14.9263 56.759
4.67992 15.4996 55.4355
4.48036 14.8254 55.0969
4.48794 15.2723 55.9547
4.51526 15.4208 56.8389
4.59619 15.0723 55.1609
4.47641 15.092 54.9117
4.41891 14.89 55.9828
4.52849 14.8999 55.7647
4.51882 15.1695 54.7332
4.43236 15.1878 56.5589
4.59208 14.8114 54.2581
4.45425 15.0387 55.206
4.50491 15.0589 54.8133
4.39268 14.9228 56.0255
4.49419 14.8702 55.2221
4.45736 15.2944 56.0085
4.41056 14.8841 56.5801
4.50812 14.9161 54.9571
4.45307 14.9722 55.1566
4.34119 14.6842 55.2506
4.40269 14.8162 54.9186
4.42475 15.1323 55.9139
4.41565 14.8598 55.8905
4.41348 14.7019 54.8866
4.4044 14.7082 54.5
4.34893 14.6451 53.8898
4.24386 14.5704 55.1212
4.35725 14.593 54.6624
4.37191 14.886 55.4212
4.36948 14.7545 55.4283
4.40704 15.0817 56.5671
4.44704 14.5304 54.2007
4.30787 14.736 54.2008
4.30679 14.4931 53.2877
4.25207 14.7413 54.9267
4.26086 14.8035 56.0137
4.30426 14.4714 56.5654
4.45087 14.9068 55.4243
4.36974 14.9694 55.5799
4.31591 14.6609 53.8393
4.19802 14.8066 56.7684
4.3844 15.001 56.0284
4.31893 14.4099 54.8297
4.21704 14.7366 55.6256
4.28032 14.3118 53.7625
4.21226 14.6917 55.2703
4.28647 14.7488 56.0671
4.36369 14.7212 54.8583
4.21416 14.6981 57.1115
4.39044 14.3974 53.2841
4.1598 14.7101 56.4675
4.40148 14.7134 55.6977
4.31099 14.6463 54.6177
4.23663 14.6541 55.0072
4.23475 14.974 57.6413
4.38153 14.8008 56.8595
4.41482 14.8073 55.4094
4.31881 14.8574 55.5653
4.21823 14.6865 55.5836
4.27197 14.8246 56.4068
4.27317 14.1317 54.7723
4.22676 14.2836 52.2094
4.05564 14.7913 56.3273
4.21674 14.282 55.0774
4.19341 14.2029 55.0659
4.1882 14.7187 56.8227
4.3179 14.5323 56.5716
4.32723 15.0527 56.8252
4.29927 14.613 55.7791
4.23168 14.8925 56.5601
4.27803 14.9446 55.7279
4.19586 14.4182 54.68
4.12523 14.1352 54.1433
4.1805 14.436 56.8301
4.28193 14.5457 55.4713
4.1949 14.4242 55.1795
4.18062 14.7854 56.2031
4.18993 14.7591 56.8149
4.23899 14.6611 55.1342
4.12433 14.4606 55.373
4.15305 14.6423 57.1355
4.28261 14.5271 56.3414
4.31321 14.4143 54.7534
4.16009 14.3448 55.732
4.17788 14.1786 55.0527
4.13067 14.3061 54.5642
4.13924 14.461 57.4473
4.26451 14.9448 56.6615
4.23308 15.0395 56.4487
4.18007 14.375 55.7828
4.15118 14.4972 54.9327
4.08452 14.2851 56.0078
4.17655 14.5055 54.9305
4.02305 14.2489 55.8447
4.09432 14.0784 54.7067
4.05962 14.4643 56.316
4.20942 14.7292 55.0876
4.09889 14.3718 55.1692
4.01778 14.1264 55.4105
4.10532 14.3134 54.5511
4.05671 14.0842 55.3839
4.06068 14.2863 55.2434
4.01587 13.9681 55.0156
4.06141 14.6774 55.5372
4.14505 14.3093 55.5755
4.05684 14.3925 55.3381
4.11467 14.2138 54.9873
4.04061 14.3443 55.94
4.10028 14.4041 57.3508
4.25276 14.6519 55.5146
4.07261 14.1082 55.734
4.08466 14.4616 56.8433
4.12623 14.5825 57.0254
4.14817 14.3835 54.554
4.02369 14.5603 55.7659
4.01853 14.0308 56.9479
4.15053 14.5804 55.7981
4.02945 14.0036 55.0743
4.01719 14.2943 54.5552
4.01136 14.4869 55.9952
4.06604 14.0242 55.0456
4.07372 14.9116 56.6962
4.03437 14.1864 55.6103
4.0526 14.2089 57.2623
4.16819 14.4763 55.1281
3.99983 14.1734 57.1536
4.21729 15.0025 58.3462
4.21489 14.6733 56.1717
4.07955 14.6503 57.2729
4.05243 14.3457 55.8487
4.03182 14.2849 56.852
4.09742 14.1503 54.8868
4.03468 14.3933 56.5618
4.04034 14.2078 54.7392
3.98506 14.1345 57.8081
4.17348 14.5449 56.2146
4.02256 14.1265 56.0532
4.04729 14.3269 56.2418
4.02404 14.4607 55.6998
3.96567 14.4648 55.5627
3.91626 13.528 55.4132
3.96423 14.145 53.728
3.89238 13.8956 55.1228
3.97445 14.1173 55.5361
3.9554 14.1239 53.4669
3.84807 14.1861 58.5166
4.18014 14.3328 55.8231
4.06131 14.0292 55.3449
3.97337 14.5582 55.9567
3.9698 14.3757 57.6892
4.1806 14.4269 55.6052
3.97958 14.2861 56.7134
4.05014 14.5619 56.0704
3.97632 14.3458 55.6102
3.93125 13.9207 57.7181
4.14144 14.4941 56.9055
4.07869 14.3202 55.9468
3.9892 14.2807 56.7485
4.05459 14.6548 57.6175
4.04907 14.3877 55.8307
3.98998 13.7914 55.0857
3.97211 14.3285 56.2269
3.98191 14.1885 55.382
3.96081 13.9696 55.1164
3.96423 14.1265 55.7986
3.94481 13.9514 56.0708
3.96065 14.251 56.688
4.0238 14.1283 54.6432
3.91113 14.4161 56.0162
3.96924 13.9659 55.6901
3.9286 13.8297 54.8547
3.91757 14.0294 54.6695
3.83248 13.9968 55.4734
3.9058 13.8519 57.0332
4.04953 14.7364 56.154
3.95214 14.1995 56.143
3.91075 14.056 56.5864
3.96476 13.9247 54.6631
3.92107 14.2556 56.8137
3.96767 14.1003 55.9899
3.9305 14.3625 56.3444
3.94849 14.1391 56.4809
3.96174 14.2124 55.9291
3.93813 14.167 55.2335
3.90689 13.9008 56.7726
3.96349 14.0448 54.2211
3.81959 13.7822 57.29
3.96604 14.0506 55.0308
3.89203 14.31 55.6234
3.87282 13.834 56.2631
3.94891 14.086 54.6269
3.81155 14.1305 56.5784
3.94923 14.1843 56.6251
4.00896 14.4728 57.269
3.95478 14.1826 57.2739
3.99402 13.8932 54.5304
3.82701 14.0668 56.136
4.01085 13.844 54.2713
3.80981 14.0469 56.8675
3.95476 14.2281 56.4128
3.93016 14.1765 56.6362
3.94126 14.0347 54.4927
3.91011 13.7481 54.1768
3.77219 13.9756 57.7327
4.01183 14.1804 55.4218
3.83274 14.1122 54.741
3.80941 13.9002 57.0981
3.97372 14.2603 56.5701
3.9283 14.1663 56.2084
3.9298 14.1729 56.3796
3.95502 14.061 56.7428
3.95111 14.0619 55.8545
3.87019 14.122 57.2723
4.00466 14.2898 57.1364
3.95278 14.2551 55.9176
3.86197 14.4187 56.7818
3.99244 14.4355 56.5391
3.93697 14.0636 57.5423
4.01523 14.6124 57.6625
4.03807 14.3543 58.6848
4.15099 14.3097 56.0613
3.84612 14.0534 55.2822
3.85748 13.9692 56.4871
3.92988 14.1736 56.2528
3.9388 13.9353 56.2825
3.9143 14.063 54.6977
3.76414 14.2538 56.0126
3.9147 13.9461 56.8911
3.97446 14.0768 55.9493
3.90856 13.998 56.5249
3.91927 14.2244 55.5886
3.82115 13.8249 55.9035
3.90239 14.2633 57.4788
4.01975 14.3816 57.402
4.02054 14.4768 55.2378
3.84006 13.7151 56.4983
3.92553 13.9661 56.8124
3.97058 14.3653 56.9332
3.98177 14.449 57.0378
3.98922 13.4209 55.1294
3.89184 14.1731 57.5015
3.97265 14.2224 54.6765
3.80486 14.1714 56.081
3.91689 13.8873 56.7382
3.94602 14.4491 56.9076
3.9947 13.9964 55.7887
3.87759 14.4605 57.5143
3.95849 13.9615 55.7327
3.90078 14.1509 55.6747
3.88015 14.0844 57.9497
3.98196 13.9598 55.9704
3.90828 14.4821 56.5108
3.94631 14.1335 55.7004
3.89099 14.2667 57.2647
3.95109 14.1103 57.0216
3.93773 14.1721 58.4412
4.01295 14.4144 55.6544
3.87949 14.1489 57.5325
3.99834 13.8635 57.558
3.95303 14.2506 55.7304
3.85675 14.4186 56.5023
3.86803 14.1158 57.5915
4.00275 14.8826 60.3419
4.20218 15.3653 59.6169
4.09664 14.5666 59.6193
4.13023 0 0