# pn-170911/RbIIR-58-USN3-1280-1959.psd
# Power spectrum* (dif=0,1,2) (really just |FT|^2)
# NOTE: only the first half! (symmetric)
# weeks: 1280-1959
# 2706 clock-days, 62 excluded
# PSD: 1441
707.855 0.074853 0.0299005
26288.5 0.225525 0.0172528
215186 4.74944 0.0172205
11791.7 0.408463 0.0167767
69047.4 5.36891 0.0173278
4450.58 0.408865 0.0172141
4129.81 0.631536 0.0166323
2224.6 0.419866 0.017186
2619.75 0.679718 0.0166073
1413.07 0.455265 0.0175224
1285.74 0.529045 0.0167026
992.449 0.471752 0.0169497
903.129 0.539483 0.0164779
767.881 0.512629 0.0170155
705.035 0.565419 0.0176126
640.198 0.576137 0.0175295
589.864 0.60827 0.0173306
530.406 0.624477 0.0175215
479.116 0.640623 0.0176698
443.94 0.648521 0.0180807
422.504 0.715116 0.0180519
398.425 0.729559 0.0182582
382.053 0.778805 0.0177628
375.613 0.828659 0.0192978
351.529 0.861593 0.0179424
319.163 0.864317 0.0199075
328.444 0.95442 0.0198494
300.306 0.945931 0.0204366
303.286 1.03515 0.0198809
301.244 1.0956 0.0217784
289.802 1.14381 0.02099
278.974 1.16926 0.0226319
266.684 1.17202 0.0233715
267.979 1.27246 0.0246482
257.902 1.30726 0.0249489
251.061 1.36898 0.0244909
249.4 1.41688 0.025769
249.854 1.51882 0.0277553
237.037 1.51388 0.0279742
235.929 1.59009 0.0303457
231.031 1.67819 0.029595
225.888 1.68651 0.0301172
219.695 1.70498 0.031884
217.676 1.79355 0.0337344
225.74 1.97891 0.0354688
213.867 1.9637 0.0366063
201.744 1.92066 0.0373125
209.988 2.07036 0.0382277
211.505 2.21477 0.0420092
198.505 2.15061 0.0422223
197.023 2.21642 0.0436795
199.939 2.3429 0.0468179
199.846 2.45717 0.0492568
186.475 2.43307 0.0490559
187.428 2.52368 0.0523336
188.934 2.58479 0.0542513
191.483 2.73526 0.0585022
181.081 2.67572 0.0589177
188.793 2.91697 0.0646358
176.96 2.83289 0.0653078
178.668 2.9527 0.0687015
174.774 2.99017 0.0705184
188.969 3.33942 0.0794111
170.124 3.11081 0.0747865
172.442 3.26208 0.0809753
170.974 3.35746 0.0850265
168.1 3.39579 0.0885899
170.187 3.52685 0.0914265
165.76 3.55296 0.0963615
166.538 3.65613 0.099846
166.228 3.78198 0.10612
163.442 3.79935 0.109999
163.122 3.88812 0.111746
155.784 3.87093 0.114468
159.957 4.08447 0.122899
154.667 4.03783 0.125209
155.455 4.16181 0.132509
157.706 4.31558 0.138942
157.763 4.45611 0.148625
158.131 4.56096 0.154317
153.167 4.55854 0.156039
151.4 4.62987 0.158696
152.204 4.7558 0.169088
149.296 4.75879 0.174287
142.789 4.6894 0.1766
159.874 5.3563 0.201022
147.484 5.09271 0.196549
146.051 5.14788 0.201948
150.666 5.41595 0.21476
148.253 5.43545 0.222213
145.193 5.47775 0.230939
141.957 5.4197 0.229739
143.685 5.671 0.245473
140.446 5.64451 0.248453
142.963 5.82113 0.26218
143.604 6.08969 0.279914
161.896 6.97295 0.323753
138.25 6.01031 0.285118
135.145 6.04494 0.292295
136.257 6.20049 0.309645
137.528 6.36281 0.319837
141.422 6.71756 0.341692
136.678 6.65667 0.350129
131.972 6.52748 0.349878
132.859 6.74306 0.36549
138.243 7.10652 0.388136
134.72 7.09305 0.39907
127.435 6.78824 0.384434
124.946 6.74661 0.389425
132.932 7.42238 0.435738
133.745 7.55031 0.452798
128.067 7.40387 0.447632
128.772 7.51796 0.465074
126.444 7.52053 0.477545
129.332 7.81791 0.503029
130.831 8.03509 0.516419
126.908 8.03436 0.531275
118.744 7.5709 0.509889
126.838 8.28468 0.558048
121.107 8.03605 0.557487
123.232 8.30046 0.586011
119.902 8.21191 0.586007
120.498 8.38798 0.615827
126.858 8.99665 0.667061
124.403 8.8999 0.662977
125.622 9.18889 0.699365
122.113 9.03457 0.698163
119.499 8.9213 0.694803
115.738 8.84992 0.700929
118.189 9.16344 0.739655
118.261 9.32897 0.758575
120.053 9.63703 0.803317
123.127 10.0041 0.849267
112.799 9.27838 0.793921
119.451 10.0059 0.870182
115.016 9.79848 0.866195
118.384 10.291 0.925358
113.253 9.84322 0.885951
111.387 9.86275 0.909065
114.657 10.3493 0.959065
114.615 10.5495 1.00211
113.115 10.4955 1.00914
106.115 9.90488 0.96386
115.125 10.9606 1.07595
111.263 10.7919 1.07476
109.681 10.7419 1.07918
108.957 10.8359 1.1185
111.519 11.2288 1.16917
107.78 10.9783 1.15197
108.434 11.2812 1.20308
107.522 11.2843 1.20911
110.339 11.8546 1.30045
107.655 11.6014 1.28586
104.911 11.4805 1.28191
106.027 11.6543 1.32577
109.057 12.2361 1.39864
107.396 12.2062 1.41984
104.016 12.0385 1.42811
109.265 12.762 1.52531
107.361 12.7079 1.53563
102.118 12.173 1.47649
103.413 12.591 1.56886
106.105 12.9901 1.61429
106.166 13.1774 1.66635
102.443 12.8218 1.64015
103.393 13.1869 1.70822
99.4055 12.8485 1.70302
105.689 13.7174 1.81608
102.273 13.3953 1.7984
99.8483 13.2488 1.80414
99.541 13.4537 1.85137
97.7324 13.343 1.85315
100.766 13.9534 1.9684
100.786 13.9959 2.00078
98.0587 13.7592 1.99142
99.6764 14.1866 2.06617
98.7832 14.2061 2.09448
100.576 14.6426 2.17194
98.5182 14.5073 2.17732
98.5183 14.6603 2.22867
96.926 14.6633 2.24681
93.5469 14.3947 2.24095
95.7308 14.7779 2.3269
97.8652 15.3286 2.44259
96.089 15.0983 2.41119
95.8271 15.3715 2.49946
95.8486 15.3832 2.50856
91.5623 14.9182 2.47595
96.4378 15.8847 2.65325
93.2023 15.642 2.65737
91.7757 15.3862 2.63135
95.3229 16.218 2.80623
104.985 17.8026 3.07561
92.6419 16.0239 2.81822
91.2294 15.9994 2.85225
94.526 16.7514 3.02673
95.3707 17.0247 3.07144
94.996 17.0454 3.09954
85.0075 15.564 2.901
91.1205 16.8124 3.1397
91.7368 16.9688 3.20003
89.2061 16.712 3.19377
89.3353 16.8705 3.23957
92.5749 17.7504 3.43528
87.3233 16.8484 3.31559
90.5724 17.7197 3.53152
86.4661 16.9502 3.37232
87.5371 17.4546 3.51921
86.4953 17.3914 3.55316
88.7713 18.0583 3.76038
87.1637 17.7683 3.66384
86.919 18.1113 3.79559
86.0242 17.9373 3.77724
83.6334 17.6037 3.74201
82.3791 17.6014 3.83159
85.3519 18.2206 3.94656
83.4799 18.0218 3.97934
86.8182 18.8789 4.14765
85.9659 18.902 4.1923
84.1034 18.7955 4.25249
84.3845 18.9539 4.31789
82.9906 18.7643 4.30837
83.2764 18.9946 4.41242
83.1045 19.0054 4.40682
82.761 19.3489 4.57108
81.322 19.2501 4.6337
80.2342 18.8812 4.53229
80.9278 19.1983 4.61644
82.3984 19.8087 4.81542
81.9908 19.9955 4.93824
79.3482 19.3767 4.77658
80.5408 19.8138 4.91835
79.4824 19.9086 5.01525
81.6799 20.6583 5.28433
76.8134 19.3231 4.9411
79.2406 20.2476 5.22366
78.9654 20.3225 5.28539
77.8465 20.2165 5.29314
77.1061 20.2055 5.35017
77.623 20.6587 5.54976
79.0494 20.985 5.6398
77.3488 20.9092 5.71682
76.355 20.395 5.54112
77.3888 21.1106 5.79943
76.2904 21.2132 5.9164
78.7559 21.7081 6.06846
75.2358 20.8812 5.82961
75.2871 21.29 6.07829
73.9012 21.0544 6.03451
75.1735 21.6176 6.27981
76.4868 21.9733 6.36579
72.7402 21.2867 6.31459
73.4266 21.5519 6.37828
71.6591 21.0262 6.27784
74.4207 22.0125 6.57665
74.3694 22.3588 6.78873
74.9751 22.6541 6.86769
71.1666 21.8321 6.77326
71.1962 21.7364 6.7153
72.0199 22.3403 6.98869
74.0227 22.889 7.14481
70.1298 22.0861 7.01585
72.728 22.9388 7.31003
69.9296 22.2305 7.1493
70.8496 22.8393 7.42246
70.7801 22.9995 7.54803
70.8408 22.9061 7.4681
70.4625 22.9609 7.56811
68.9094 22.8705 7.65506
68.1596 22.6034 7.57825
70.926 23.541 7.89225
68.1465 23.0204 7.82843
67.8195 23.2476 8.04412
67.9924 23.3541 8.11165
69.1412 23.8546 8.25621
67.6543 23.5244 8.25204
68.8526 24.1768 8.56104
67.6933 23.8509 8.48502
67.81 24.0472 8.58004
63.9238 22.8867 8.29973
67.8036 24.3144 8.7786
66.0329 23.8886 8.69784
65.1582 23.7339 8.74663
66.7729 24.5399 9.04804
63.197 23.3992 8.77625
64.8324 23.9125 8.90943
64.5585 24.4164 9.30274
64.1054 24.196 9.28416
76.4388 28.8578 10.7893
65.0791 25.2883 9.88244
63.4636 24.3894 9.48336
64.6174 24.9789 9.71519
60.9809 23.9048 9.48073
63.9051 24.92 9.7879
60.917 24.1847 9.69541
60.7631 24.2845 9.84595
62.3363 24.7369 9.92412
62.0074 25.1574 10.2639
62.8702 25.4469 10.3651
60.6835 24.5099 10.0086
60.9848 25.1089 10.4073
59.3102 24.3382 10.071
60.9768 25.4828 10.6802
58.7864 24.8606 10.5927
60.7913 25.5731 10.8811
61.0729 25.9877 11.0993
59.6261 25.4374 10.923
56.3745 24.4539 10.7419
59.8365 25.8466 11.2315
58.6421 25.6208 11.2342
56.313 24.754 10.9658
56.1671 24.8036 11.1573
60.2569 26.6443 11.8474
57.3788 25.6437 11.5442
57.2043 25.8278 11.8216
55.5356 24.88 11.3437
56.064 24.9847 11.2721
58.8455 26.9646 12.3911
56.5485 25.9592 12.0565
58.2412 26.9583 12.568
55.9959 26.1835 12.3531
55.6204 26.0394 12.2832
56.6632 26.5968 12.61
55.9944 26.5617 12.6692
54.0723 25.6076 12.3075
56.5731 26.93 12.9264
54.9219 26.3475 12.7605
56.0068 27.493 13.5685
55.7619 27.0616 13.2744
54.917 26.731 13.1167
54.0345 26.7343 13.2844
56.7852 28.2007 14.0121
53.1722 26.7222 13.504
55.0345 27.7681 14.1297
53.549 26.9075 13.6412
52.488 26.8077 13.877
55.0816 27.9136 14.2109
54.9071 28.1055 14.5142
52.8264 27.4933 14.393
53.3752 27.7659 14.5433
54.2612 28.1883 14.725
51.8431 27.3665 14.5224
52.3914 27.5938 14.6805
53.3637 28.6487 15.3857
52.6257 28.0174 14.9944
51.66 27.7133 14.9501
51.7761 28.2463 15.5357
51.9562 28.3784 15.6107
51.8593 28.1819 15.4105
51.0909 28.0133 15.5168
49.5471 27.1872 15.1326
52.0045 29.2443 16.4694
51.154 28.6285 16.2704
52.688 29.3326 16.5067
50.1794 28.1838 15.9524
49.5702 27.9268 15.8232
49.6174 28.3977 16.2761
49.6116 28.3413 16.2822
48.1751 27.9073 16.2518
48.6616 28.1857 16.6105
50.3432 29.0227 16.8214
48.0812 28.1468 16.6139
49.2882 29.1384 17.2393
48.1195 28.7053 17.305
49.9453 29.3044 17.3096
48.2035 28.9946 17.4615
48.7381 29.2808 17.6427
45.8355 27.7909 16.9377
45.9804 27.843 17.0953
46.3721 28.3055 17.3742
47.0887 28.7512 17.636
47.3704 29.5399 18.4521
45.9847 28.4138 17.8762
47.2593 29.132 18.0923
45.1374 28.248 17.8745
47.3119 29.8506 18.8477
45.8413 29.2236 18.7607
44.7903 28.1779 17.9811
44.8006 28.6084 18.3921
45.118 29.1935 19.0213
44.7688 28.5169 18.3606
45.1072 29.1632 18.917
43.585 28.5139 18.8664
45.115 30.0427 20.427
52.9605 34.0332 21.6248
42.3975 28.5088 19.305
44.1315 29.0297 19.3074
43.4107 29.053 19.5101
44.2594 30.0655 20.3886
42.0927 28.3032 19.3233
43.9367 29.7244 20.1466
43.1143 29.5033 20.3562
43.5684 29.8254 20.5853
42.767 29.0363 19.9398
42.0064 28.783 19.8374
42.6548 29.9456 21.0054
42.545 29.8596 21.07
41.8607 29.2724 20.6491
41.0052 28.8474 20.5198
42.0615 29.8942 21.4276
42.5943 30.0537 21.3302
40.3129 28.7692 20.7997
41.5803 30.0221 21.8729
41.5881 29.4732 21.0495
40.8197 29.5966 21.4141
40.719 29.9925 22.2624
42.5975 30.9091 22.5776
40.8844 30.211 22.4427
40.4791 29.7502 22.1913
40.9777 30.4194 22.6819
40.453 30.0733 22.5707
39.8102 29.5019 22.1978
41.7101 31.495 23.8309
40.8493 30.6751 23.303
40.7655 30.7269 23.2523
39.5443 30.15 23.1472
40.5373 30.8464 23.5872
38.2613 29.2228 22.5966
39.9556 31.0149 24.0604
39.0769 30.3694 23.7597
40.3215 31.2276 24.2322
37.8296 29.9604 24.0631
40.1704 31.0026 24.0676
40.3452 31.7226 24.8404
38.3731 30.791 24.8012
38.3283 30.714 24.7638
38.3362 30.3507 24.2546
37.5972 30.2229 24.377
37.3034 29.9616 24.2294
37.6878 30.3855 24.6384
37.7892 30.807 25.3109
38.3459 30.8027 24.811
37.7398 31.4206 26.0635
38.3483 31.4345 25.911
36.6545 30.5728 25.7791
37.8115 31.1238 25.7177
37.0701 30.9714 25.8113
36.4092 31.2329 26.8265
36.7402 30.6678 25.8983
37.9958 32.2842 27.411
36.8777 31.1393 26.3332
35.338 30.2139 26.105
36.0014 30.6341 26.2146
35.6059 30.5797 26.5579
37.2159 32.1472 27.7113
35.14 30.5445 26.7535
35.2622 30.5159 26.5208
35.5522 31.3713 27.6776
34.1806 30.0458 26.7909
35.9633 31.4475 27.6252
35.3881 31.3964 27.7922
34.2827 30.7378 27.7717
34.4866 30.6487 27.5013
34.3397 30.6704 27.6577
33.6456 30.0008 27.1406
34.3386 30.9808 28.0797
34.3252 30.9222 27.8536
34.176 31.6148 29.2495
35.1767 32.2241 29.8202
34.1636 31.1105 28.7045
34.567 31.2964 28.3671
33.374 31.6219 29.9536
35.4712 32.9115 30.596
33.877 31.6995 29.8712
33.7988 31.5683 29.7423
34.149 32.113 30.4281
33.7926 31.9007 30.3048
32.9137 31.1484 29.8796
33.1347 31.3735 30.1969
34.111 32.1419 30.244
32.4485 31.2935 30.3647
32.178 31.0348 30.2451
32.5099 31.4733 30.8899
32.9357 31.4457 30.3082
32.4179 31.7574 31.3339
32.7382 31.5491 30.7916
33.1952 32.457 31.9857
33.3131 32.441 31.4744
31.6259 31.6321 31.7955
31.4449 31.3104 32.0628
37.6993 37.075 35.9561
32.6888 32.2667 32.0518
32.2544 32.6786 32.9415
32.2026 32.6096 33.1154
31.1138 31.5677 32.3505
31.6169 31.9539 32.3954
30.5729 31.3301 32.5194
31.5353 31.7984 32.4658
31.4031 32.1218 33.0075
31.5583 32.2948 33.0961
29.8007 30.7975 32.2258
30.3818 31.5744 33.1444
31.5586 32.4372 33.23
30.434 32.0547 33.8336
30.917 32.7894 34.8286
30.4772 31.6494 33.2696
30.0556 31.7898 33.6017
29.9543 31.8639 34.0174
30.1153 32.2368 34.5898
29.1621 31.0468 33.3437
28.7194 31.0431 33.7998
29.6161 31.5689 33.8985
29.3205 31.9114 34.6365
28.1117 30.7377 33.9821
28.2426 30.306 32.8732
27.2778 30.2434 34.1139
29.6765 31.9874 34.9224
28.4886 31.1826 34.5037
29.1206 31.7565 34.8545
28.3238 31.0296 34.1133
27.3002 30.5821 34.5275
28.84 32.2079 35.9473
28.3946 31.7377 36.0538
29.2361 32.1335 35.6951
27.7063 31.2449 35.6959
27.8081 31.1272 35.2572
27.94 31.1806 34.714
27.569 31.6545 36.4231
27.815 32.0042 36.9234
28.3982 32.2358 36.7842
28.3771 32.6989 37.4662
27.2116 31.3512 36.1917
26.505 31.0245 36.2809
26.3095 31.1408 37.2774
27.5796 31.5872 36.653
26.9404 31.0029 35.7974
26.4814 31.4913 37.3868
26.4382 30.8731 36.3374
26.2922 31.1602 36.8778
25.9592 31.0564 37.2428
27.1048 32.6983 39.3547
26.3041 31.1761 37.3537
25.3763 30.5847 37.4121
26.2472 31.1528 37.5063
25.5088 30.415 36.5991
25.6053 31.0772 37.6439
24.9526 30.3402 37.3985
25.6871 30.9762 37.6234
25.8198 31.7603 38.9608
25.1322 30.8174 38.051
25.2182 30.9318 38.1215
25.4516 31.5318 39.1946
24.942 30.9916 38.7512
24.8277 30.5168 37.6932
24.9125 31.5866 40.2282
24.6496 30.384 38.3251
25.2653 31.7069 40.2266
25.8958 32.1769 40.2918
24.8144 31.3349 39.9107
24.7721 31.0142 39.0052
23.5752 29.6912 37.989
23.8293 30.2353 38.5555
24.2151 31.0432 39.7151
24.4771 31.8375 41.3301
23.8657 30.3772 39.6424
24.5295 31.0444 39.6507
23.9547 31.2788 40.9984
24.0987 30.9025 40.2501
25.2398 33.0522 42.6468
23.5233 30.7907 40.7168
23.6903 31.0351 40.8155
23.3913 30.8318 41.0046
24.3016 32.0048 42.0747
23.3222 30.984 41.5087
23.5844 30.9465 40.6158
22.7802 30.7344 41.6956
23.1028 30.8728 42.0089
23.6497 30.9694 41.106
23.1576 31.1164 41.6637
22.7932 30.8928 42.0066
22.6778 30.5991 41.6306
21.9994 29.5809 40.4909
22.2511 30.3963 42.0558
22.9881 31.1198 42.8328
23.5031 31.9371 43.7089
22.2163 30.4983 43.817
26.8996 35.7252 46.0994
22.7346 32.0956 44.1953
21.8902 30.7795 43.6179
21.5769 29.5256 41.449
21.6812 29.605 40.9596
21.8448 30.7009 42.7904
21.6366 30.442 42.8345
21.1728 29.8771 42.64
22.0859 31.0871 43.711
21.5185 30.3047 42.9816
21.7032 31.1446 44.9749
21.7391 30.2695 42.6981
21.625 31.1395 44.5701
21.5202 30.7495 43.7549
21.0807 30.7241 44.7333
21.756 31.3305 45.1628
20.9229 30.476 44.8943
21.0819 30.113 43.9487
20.7984 29.7835 43.4613
21.1509 30.5689 44.2114
21.0766 31.1934 45.6883
20.1582 29.5884 44.3564
21.3467 31.1536 45.6277
20.325 29.8832 44.8157
20.9779 30.8474 45.8224
20.9664 31.0089 46.6623
21.0962 30.503 44.802
20.7669 30.7654 45.3561
20.6167 30.906 46.0561
19.8992 29.7371 44.9972
19.8224 29.5989 44.8852
20.2311 30.3754 46.0932
20.2275 29.8395 44.2159
19.4261 29.5758 44.8517
19.229 29.3902 45.1402
19.7937 30.2225 46.2092
19.3737 29.5411 45.4496
19.5317 29.9485 46.2231
19.4559 29.702 45.3173
18.4769 28.3118 44.0851
18.769 28.891 44.9123
19.4254 30.1961 46.7737
18.8985 29.3258 46.0529
18.9354 29.4961 46.7423
19.0975 29.3271 46.1223
19.1347 29.4003 45.5882
19.2779 30.5389 48.0912
19.0571 29.9749 47.7957
19.3592 29.8752 46.2781
18.5624 29.7543 47.8978
19.1808 30.062 47.7169
19.2445 30.6805 48.116
18.0817 29.0073 47.2808
18.4307 29.0829 46.4582
18.2708 29.2894 47.056
18.237 29.4455 47.8092
18.2479 28.9316 46.285
17.492 28.3076 46.4316
17.8421 28.7185 46.9873
18.3124 29.467 47.6784
18.4087 29.951 48.7109
18.3939 30.1256 48.5491
17.1894 28.5439 47.6999
17.1366 27.7504 46.1435
17.8732 29.4974 48.9413
18.1916 29.9065 48.8087
17.8822 30.1236 50.8122
17.7301 28.9632 48.867
18.5816 30.4103 49.2768
17.3383 29.1465 49.1906
17.4418 29.3514 49.6529
17.4491 28.9874 49.1217
17.3356 28.5105 47.5095
17.311 29.1464 48.7029
17.1295 29.2529 49.5732
17.1449 29.2482 49.9637
16.6663 28.1149 48.3249
17.1529 28.874 48.3565
16.5982 28.9585 50.3332
16.7161 28.2346 48.5812
17.0208 29.3315 50.4438
16.7396 28.94 50.668
16.9738 28.9335 49.8368
16.5629 28.0381 47.8383
16.3192 28.3823 48.9081
15.9319 28.1599 50.0716
16.817 29.0259 50.5539
16.8816 29.4598 51.2094
16.7967 29.5795 51.7415
16.3734 28.5946 49.9186
15.4759 27.5377 50.0792
16.2181 28.1557 50.0736
16.4017 28.9501 51.5385
16.2674 28.6664 50.844
15.8174 28.2006 51.4856
16.3335 28.6696 52.8511
18.7798 32.7592 54.5135
15.4061 27.6905 49.6412
15.1893 27.6518 50.3727
15.8481 28.5059 51.5413
15.3266 27.3153 50.1085
15.9794 28.489 50.4852
15.1506 27.6414 50.5126
15.0019 26.942 49.0392
14.6294 26.4584 48.4339
14.9869 27.5572 51.0573
15.2063 26.9766 48.6822
15.1129 27.9993 51.7206
15.5178 27.9748 50.4318
14.984 28.098 52.4015
15.2948 27.9701 51.0858
15.0454 27.9395 51.5696
14.6768 27.6565 51.7271
14.1838 26.2611 50.7826
15.0298 27.3032 50.6261
15.1512 28.0498 51.31
14.597 27.8219 52.5287
14.431 26.8093 50.6498
14.5055 27.5066 52.499
15.0602 28.218 52.827
14.5023 27.4432 52.4729
14.6411 27.4194 51.876
14.2672 27.3914 53.2928
14.4153 26.3482 49.8105
14.1216 26.7369 50.4082
13.7547 26.0588 49.6122
13.9065 27.1457 52.6765
14.2375 27.0069 51.5877
14.0536 27.1551 52.7013
14.1308 27.318 52.7325
13.9457 27.1572 53.4683
14.3567 27.7874 54.5074
14.1169 26.646 51.4729
14.1431 27.5561 53.0625
13.994 27.5573 53.8046
13.9104 27.4003 54.5764
13.8549 26.2402 50.948
13.4832 25.9987 50.1712
12.902 25.6231 51.6515
13.7518 27.0097 52.9354
13.2175 26.2617 52.9525
13.5402 26.3007 51.6943
13.103 25.8973 51.4425
13.1443 26.3954 53.9901
14.0857 27.3339 52.961
13.3301 27.1414 54.4036
13.4227 26.8061 53.3501
12.7758 25.7606 52.6979
13.1329 26.1022 52.1005
12.539 25.1277 51.1358
12.7358 25.8034 52.7143
12.8479 25.9561 53.3192
13.1383 26.2837 53.2325
13.206 26.9712 54.8912
13.2107 26.6641 53.8538
12.6332 25.6389 52.4685
12.5724 25.7715 53.3666
12.6635 25.6679 52.6907
12.5051 25.6857 53.6476
12.4261 24.6156 50.4898
12.7594 26.8253 54.6835
12.4445 25.5971 53.2965
12.5124 26.0604 54.559
12.5953 26.149 54.6766
12.5142 25.5962 52.8328
12.0334 25.1412 53.2803
12.6302 26.2341 54.1777
11.9774 24.924 52.8824
12.3477 25.9444 54.2598
12.1682 25.6023 54.1461
12.1977 25.5415 53.9415
12.1985 25.474 52.966
11.717 25.0358 53.5533
11.8815 25.0506 53.2973
11.7919 24.9743 53.6571
12.0943 25.8199 55.1489
12.0338 25.4863 54.7913
12.0951 25.3426 53.5546
11.9285 25.3379 53.6287
11.8598 25.7781 55.0544
11.6312 25.3946 56.3069
12.0844 25.4637 54.7768
11.868 25.2533 53.9771
11.658 25.3741 55.5735
11.8782 25.4281 54.5668
11.5536 25.0273 54.8286
12.1091 26.2706 55.7599
11.408 25.2167 55.3004
11.4406 24.9062 54.3283
10.992 24.2004 54.3482
11.304 24.4604 53.6499
11.1335 25.2627 60.382
13.8342 29.2771 59.4016
11.4566 25.3644 55.5554
11.1323 24.9879 56.2004
11.513 25.2242 55.8491
11.2624 24.9075 55.5948
11.3148 24.9419 55.0052
10.9015 24.2635 54.6317
11.01 24.7774 56.0847
11.1477 24.3761 54.2563
11.2242 25.3319 56.449
10.8148 24.4363 55.4644
10.7917 24.0824 54.7614
10.7612 24.3187 55.655
10.8222 23.8701 54.1814
10.6463 23.7294 53.7879
10.8314 24.5718 55.2727
10.5728 23.8777 54.986
10.8275 24.726 56.2525
10.6806 24.0991 55.6727
10.9424 24.7424 56.3655
10.6916 24.5429 56.7444
10.7231 23.9486 54.625
10.6344 24.7308 56.3674
10.3044 23.6094 54.9739
10.4632 24.151 55.7496
10.2177 23.2429 53.6574
10.2084 23.9925 56.7677
10.5365 24.199 56.2358
10.2272 23.6064 56.0211
10.6116 24.394 56.717
10.4608 24.0276 54.9087
10.0758 23.4977 55.2079
10.1304 23.6127 56.0942
10.392 23.9657 55.672
10.1294 23.8756 56.5298
9.96272 22.9921 54.7324
10.2155 23.6236 54.2626
9.79074 23.5308 55.9693
10.1214 24.111 56.9516
9.86806 23.2919 56.183
9.99935 23.2569 55.228
10.0273 23.8163 55.77
9.83772 23.6895 57.1136
9.824 23.2533 56.2518
9.83775 23.0942 55.6221
9.88339 23.1754 54.7117
9.73968 23.6087 56.2376
9.70868 23.6878 57.0566
9.58643 23.4529 58.6801
9.9177 23.0088 55.27
9.74093 23.3175 55.6056
9.69892 23.8419 57.4499
9.58168 23.6497 58.8172
9.65943 22.8136 56.1723
9.70385 23.2103 56.0685
9.51051 23.0069 56.1334
9.4907 23.132 57.0543
9.63438 23.2334 56.9696
9.41979 22.4531 54.9241
9.62637 23.9955 58.1821
9.67755 23.9014 57.4999
9.2391 23.4731 59.3424
9.35639 22.7427 58.3048
9.6261 22.7882 56.0046
9.56912 23.4092 56.9765
9.70634 24.6159 59.318
9.10939 23.3565 60.1783
9.37081 23.1276 59.659
9.5627 22.5828 55.861
9.29128 22.8232 56.2454
9.16899 23.2303 57.6629
9.02636 22.9843 58.9508
9.20957 22.5046 57.9452
9.37154 22.5676 55.2637
9.01643 22.9049 56.8776
8.85448 22.7822 58.2684
9.0301 22.733 58.1633
9.1941 23.0006 57.9977
9.06948 22.6971 56.8001
8.92814 23.2675 59.7902
8.98663 22.9573 59.6583
8.90839 21.987 57.5294
8.94022 21.8393 55.5691
8.90752 22.3658 55.6096
8.4929 21.8966 56.6469
8.7292 22.5677 57.6954
8.49365 21.5942 57.3335
9.0245 22.8162 57.0352
8.5983 22.4693 57.4806
8.48922 22.215 58.5254
8.61429 21.7878 56.3146
8.38389 21.4597 56.681
8.72419 22.6637 58.8562
8.75538 22.7779 59.3485
8.73529 22.4096 57.8467
8.4855 22.9287 65.2986
10.0688 24.6402 59.495
8.49745 22.2865 57.4513
8.36537 22.0255 57.5398
8.24416 21.7778 58.6117
8.4646 21.4154 55.6989
8.30407 22.0279 57.646
8.26828 21.8995 58.2849
8.31518 21.7218 57.109
8.27541 22.2133 60.0474
8.46153 21.7122 57.0926
8.2465 21.6928 57.2049
8.14198 21.5219 57.2707
8.10443 21.2683 56.9236
8.24872 21.7122 57.2174
8.17286 21.6498 56.5252
7.84973 21.1093 56.0469
7.81322 21.2019 58.0655
7.98217 20.8435 56.0792
7.88652 21.2684 57.5257
7.99445 21.3367 57.3549
7.94361 21.3649 57.7149
7.84188 20.7822 57.182
8.17346 21.6193 56.8521
7.82881 21.2511 57.5111
7.88773 21.1724 56.1863
7.65103 21.367 58.7596
7.76822 20.3934 54.7398
7.49437 21.025 59.1485
7.95055 21.1239 56.08
7.47052 20.725 57.3523
7.52941 20.2407 56.0796
7.4868 20.14 55.412
7.64904 21.028 57.5868
7.67726 20.797 55.7961
7.42902 20.8521 56.9688
7.27562 20.1054 56.6802
7.48525 20.717 58.2202
7.54026 20.1992 55.3944
7.33996 20.5184 58.0204
7.61544 20.977 58.1837
7.39854 20.0322 55.8365
7.35859 20.3191 55.6537
7.13239 19.8877 56.3692
7.29915 20.2432 57.0324
7.27996 19.9677 56.8949
7.4902 20.6966 56.7478
7.15749 20.0532 57.7746
7.5103 20.3568 56.2881
7.22574 20.117 56.7034
7.32831 20.4146 57.3442
7.35195 20.3881 56.8148
7.22276 20.6532 59.0443
7.34372 20.1704 57.2064
7.27151 20.4807 57.7988
7.24973 20.1925 56.0874
7.01147 19.7155 55.1434
6.87333 19.9507 58.2618
7.26607 20.3026 56.6205
6.84491 19.2175 55.4796
7.05007 20.2186 57.565
7.0007 19.6886 55.5982
6.94723 20.227 57.9708
6.89855 19.5048 56.5864
6.94697 19.3744 55.6547
6.80733 19.402 56.7113
7.08814 20.4121 58.0276
6.93472 19.9273 57.1882
6.8954 19.9981 58.8024
6.89374 19.2731 57.4812
7.16756 19.9942 55.6586
6.83099 20.0843 56.3917
6.49609 18.864 55.4428
6.62814 19.3115 56.931
6.66033 18.96 55.1417
6.69708 19.6887 57.2467
6.70719 19.2984 56.1623
6.59439 19.4414 58.0681
6.73874 19.0637 55.2911
6.52754 18.9443 55.4382
6.53393 19.2395 57.3566
6.67092 19.0848 55.7791
6.5517 19.2904 57.7679
6.70604 19.1031 55.5983
6.44124 18.7406 55.5666
6.51372 19.0378 54.9602
6.28815 18.8514 57.9788
6.73387 19.1642 56.0214
6.55002 18.8127 53.5693
6.29834 19.2815 56.5272
6.42754 19.4822 57.8068
6.47896 19.2603 57.7842
6.41237 18.7424 55.8699
6.3321 18.776 56.7561
6.38667 18.3514 53.5019
6.11771 18.6665 56.4597
6.31531 19.5775 64.8405
7.58089 21.1952 58.2405
6.34828 18.8179 56.0765
6.27289 19.1137 57.2859
6.27245 18.362 55.4551
6.19065 18.9521 58.3655
6.37677 18.4824 55.252
6.13285 18.1142 54.9379
6.28497 19.2561 56.4437
6.00227 18.0477 55.5829
6.01189 17.6412 55.3773
6.26977 18.6182 55.5229
6.13174 18.278 54.3842
5.92368 18.4761 57.2705
6.24066 18.9542 57.7447
6.10728 17.9286 55.1814
6.09246 18.4032 55.9994
6.19013 18.7877 55.0722
5.78151 17.8768 56.1355
5.94384 17.8091 54.5263
5.82018 17.5379 54.3801
5.94045 18.0041 53.8866
5.73621 18.0713 56.5095
5.89719 17.7427 55.8403
6.05592 18.3401 55.8996
5.95203 18.4437 56.1196
5.8386 17.9375 55.6979
5.91415 18.238 56.1373
5.82243 18.0367 56.867
5.99288 18.4183 58.0892
6.14184 18.2871 54.9929
5.73045 17.8414 54.7205
5.66942 17.6775 56.2145
5.93436 18.4093 57.2202
5.85199 17.7301 55.2324
5.81256 18.4791 57.3842
5.87126 18.3682 57.838
5.87531 18.0999 56.9658
5.82448 17.7954 55.9281
5.77664 17.9346 55.8985
5.69538 17.7491 55.4802
5.66833 17.8422 56.4323
5.72971 17.7078 54.5827
5.49316 17.2414 54.683
5.56798 17.4768 54.7566
5.41441 16.9013 55.5435
5.79888 18.3972 56.5614
5.57354 17.7224 57.1549
5.68074 17.4924 55.9328
5.69172 17.7653 56.0235
5.5886 17.243 53.404
5.23892 16.4721 54.0819
5.5622 17.7736 56.1978
5.53536 17.5103 55.9082
5.52086 17.2046 54.7024
5.50802 17.5845 55.9174
5.5329 17.5412 54.7846
5.30455 16.9764 56.6978
5.66923 17.5487 54.6016
5.38364 17.3614 56.0072
5.46243 17.2434 55.1375
5.40767 17.535 56.7613
5.44493 16.9982 54.4895
5.30487 16.991 55.7578
5.51985 17.7672 56.7997
5.43555 17.2942 55.2424
5.29471 16.996 57.1552
5.57477 17.678 56.4808
5.45033 17.1729 54.761
5.21993 16.8425 56.038
5.46241 17.4073 54.8382
5.20464 16.802 54.2326
5.22171 17.0169 56.0243
5.41582 17.6016 55.4275
5.20139 17.0536 55.8748
5.179 16.5273 54.2512
5.09977 16.3889 54.6362
5.27777 17.1499 55.7682
5.24498 17.0998 55.6241
5.20888 17.0333 56.9754
5.36622 17.3766 56.5454
5.27774 17.1127 56.5805
5.32506 16.9102 53.3491
4.94754 16.7478 55.9523
5.10047 16.3863 54.9823
5.12633 16.5799 54.5741
5.06285 16.5932 54.8519
5.145 17.0527 56.1245
5.12919 16.73 55.4545
5.08188 16.5933 54.8848
5.04929 16.7742 56.5133
5.2456 17.0536 55.104
5.00797 16.6795 56.2949
5.22655 17.002 54.4239
4.93589 16.9067 57.5098
5.1892 16.8189 54.3111
4.85273 17.2345 65.7935
6.14641 18.8676 57.105
5.01748 16.4008 53.9335
4.92514 16.817 56.9207
5.06889 16.3929 55.1223
5.07812 17.3948 57.8743
5.11132 16.7147 56.2996
5.16929 17.9972 60.3035
5.21229 16.4866 54.6985
4.95988 16.6536 56.016
5.01166 16.7406 55.6607
5.03803 17.8994 60.39
5.18228 16.7511 57.4474
5.10298 16.6879 56.2761
4.9746 16.4409 53.8345
4.75035 16.5559 57.7735
5.0556 16.8375 58.5162
5.10594 16.4679 54.8238
4.88598 16.6038 55.4045
4.80107 16.1062 55.0071
4.77277 15.9515 54.82
4.84573 16.1188 54.8488
4.84767 16.1006 53.7807
4.70354 16.339 55.1464
4.70233 16.021 56.2866
4.9541 16.4951 54.7863
4.72168 16.0179 55.4957
4.8424 16.4997 55.4555
4.79399 16.5665 56.914
4.78907 16.0956 55.8267
4.70549 15.2138 53.6189
4.77754 16.331 55.108
4.74373 16.1476 54.8647
4.6961 15.899 54.5944
4.64062 15.724 54.4877
4.68972 15.8011 54.0054
4.67296 16.0724 54.3579
4.58246 15.9366 54.8459
4.66399 16.604 58.0269
4.82416 16.0477 55.1886
4.67967 15.8853 54.5017
4.6564 16.2595 55.7669
4.64921 16.2072 56.6289
4.73056 16.0914 55.9768
4.65127 15.5477 54.4033
4.61751 15.9015 54.0497
4.4969 15.8282 55.9889
4.64726 15.9421 54.8621
4.5441 15.7341 55.5299
4.64024 15.9094 55.1836
4.53253 15.4586 54.7275
4.55729 15.6106 54.983
4.56661 15.5925 54.4748
4.47519 15.1066 54.0078
4.59326 16.1501 55.144
4.52751 15.8609 55.5815
4.57573 15.8936 55.0558
4.43488 15.1475 53.895
4.46448 15.5678 55.002
4.52366 15.4563 53.0512
4.33533 15.229 53.4266
4.35951 15.1725 55.0459
4.5388 15.8561 55.3404
4.43799 15.0945 53.951
4.40626 15.1667 52.1734
4.30664 15.6576 54.4561
4.34961 15.33 55.4338
4.47026 15.2059 53.5676
4.39251 15.592 55.8081
4.55211 16.1088 53.6232
4.19005 14.7183 53.4233
4.33416 15.3608 55.4509
4.48338 15.5457 55.3931
4.44276 15.3476 54.8252
4.44116 15.5442 54.7761
4.40852 15.8112 55.2379
4.30812 14.8501 53.8781
4.29425 15.2823 56.0564
4.49178 15.2299 52.8976
4.27662 15.5075 54.3531
4.27211 14.8631 53.4304
4.28308 15.2903 54.8719
4.34866 15.1385 54.8613
4.39538 15.4088 53.5238
4.24751 15.2511 52.267
4.05837 15.0037 54.8885
4.26799 15.0652 55.9949
4.47021 15.8609 54.9267
4.2543 15.4797 55.5351
4.28287 15.1523 55.3837
4.32977 14.9318 54.0276
4.21368 14.9288 53.1623
4.1991 15.3503 54.8163
4.24669 15.3046 56.3586
4.37672 15.4038 55.821
4.3991 15.6439 56.0114
4.3466 16.4822 66.664
5.28544 17.879 58.2166
4.35374 15.5045 55.5061
4.28924 15.3534 56.1071
4.32824 15.3117 53.9165
4.11991 14.9406 56.0625
4.34508 15.4176 53.9098
4.11929 15.2832 55.7729
4.24295 15.1022 54.7051
4.14747 14.8911 54.8174
4.19988 15.2525 55.1507
4.18677 14.9639 54.652
4.1653 14.8927 54.0421
4.07875 14.8765 55.1858
4.20063 15.049 56.2561
4.31176 15.1812 53.2672
4.01195 14.6606 54.4435
4.12104 14.6217 53.0196
4.02879 14.8115 54.9803
4.16439 15.1592 54.7909
4.10753 14.3333 51.6304
3.91355 14.49 52.7213
3.97579 14.8367 54.7036
4.05395 14.3826 52.9698
3.97704 14.4521 52.959
3.95056 14.465 54.7257
4.15825 15.1646 53.2778
3.94687 14.3765 53.4377
3.98989 14.3453 53.3408
4.02316 15.0127 54.8822
4.01075 14.3707 52.6722
3.90706 14.5482 53.8567
4.01667 14.6908 54.3839
4.02238 14.6314 53.762
3.96136 13.958 51.8579
3.89886 14.4885 53.2117
3.94787 14.5276 53.1094
3.90201 14.2219 52.1993
3.81633 13.6159 50.1019
3.71071 13.7415 51.8116
3.85956 14.577 54.0211
3.95564 14.6857 53.4728
3.89339 14.2983 53.3254
3.89544 14.4941 53.8526
3.86712 13.8596 52.8674
3.90125 14.0891 52.5806
3.87734 14.7737 53.8743
3.87492 13.7761 51.9657
3.80173 14.0685 54.3214
4.0153 14.8648 53.5169
3.83096 14.1085 52.8579
3.84893 14.3254 54.2827
3.95047 14.336 51.6566
3.72959 14.0672 52.4965
3.81037 14.4643 54.1297
3.83357 14.0865 54.217
3.91719 14.3557 54.1261
3.91941 14.4358 53.6606
3.85537 14.2453 53.7569
3.84807 13.9588 52.5346
3.80529 13.9941 53.3286
3.8513 14.0843 52.0993
3.76221 14.1196 51.567
3.68336 14.2799 53.3435
3.77097 13.7941 52.7735
3.78864 14.1331 52.8313
3.75047 13.8584 52.29
3.75203 13.8018 51.7293
3.73187 14.4172 52.5574
3.68204 13.6411 52.1681
3.66165 13.484 51.9352
3.71433 13.6925 51.5059
3.66852 13.8433 52.4803
3.74954 14.3097 52.6916
3.67277 13.8478 53.708
3.77614 13.5954 50.5482
3.57958 13.7285 54.1742
3.84314 13.9951 51.1613
3.60794 13.9755 53.4395
3.76444 13.9389 51.7603
3.59943 13.3552 51.2267
3.62196 13.9355 51.9489
3.61505 13.7101 52.4427
3.66255 13.4602 52.2124
3.67588 13.9222 52.9501
3.69616 13.5692 51.0397
3.60765 14.1471 53.2571
3.65883 13.5291 51.6372
3.60118 13.4009 51.7613
3.58298 13.2899 52.1077
3.68975 13.6972 51.0135
3.59926 14.0612 51.953
3.58417 13.5656 51.9316
3.55396 13.1081 49.9661
3.47589 13.5051 52.0979
3.59699 13.6914 52.7003
3.65884 15.2021 66.1966
4.60478 15.4247 52.8862
3.60746 13.6404 52.5485
3.61768 13.7313 54.0195
3.76615 14.0215 52.4377
3.60165 13.6632 53.8003
3.72102 14.0038 53.4128
3.68623 13.5609 50.3279
3.46863 13.3681 51.5869
3.55729 13.8613 52.2789
3.55356 13.1197 52.399
3.63435 13.7878 52.1443
3.57574 13.7614 53.0746
3.63652 13.7133 51.1878
3.49603 13.48 51.7051
3.52599 13.4988 51.9728
3.52647 13.0856 51.5741
3.54747 13.2862 49.9932
3.45285 13.3857 50.6005
3.4257 13.2106 51.4107
3.4902 13.0666 50.3036
3.40366 13.2715 52.1047
3.5064 13.085 50.6139
3.44199 13.2695 51.6461
3.48618 13.0432 50.3921
3.42865 13.2258 50.9364
3.43846 13.2533 51.3955
3.48418 13.3077 51.9035
3.54998 14.0694 53.516
3.58775 13.6949 52.7285
3.50675 13.2505 53.3974
3.59008 13.2233 52.7719
3.58176 13.5311 52.2526
3.56028 13.6258 51.9143
3.52178 13.8584 53.0421
3.54031 13.2887 52.4359
3.50966 13.2441 51.7893
3.49993 13.5688 51.0919
3.44086 13.7185 53.2566
3.56568 13.7412 53.8016
3.59258 13.2272 51.1627
3.46477 13.5189 51.4435
3.42508 13.4403 50.6768
3.38392 13.6501 52.2649
3.41147 12.8667 52.491
3.51502 13.626 53.2773
3.5418 13.3946 51.5373
3.4585 13.8464 53.5904
3.54071 13.2007 50.5505
3.36086 13.1829 51.7365
3.43564 13.0629 50.1425
3.33452 13.1843 51.9858
3.46351 13.4146 51.7626
3.43883 13.6793 54.1346
3.57569 13.3318 53.4964
3.56359 13.2559 49.5077
3.27588 12.899 50.0936
3.3083 13.1749 52.1095
3.43264 13.2854 52.4333
3.45792 13.3808 52.6923
3.46555 13.3544 51.6045
3.38171 13.2042 52.1563
3.43787 12.9322 51.1554
3.37112 13.061 51.3206
3.40282 13.3778 51.5613
3.38165 13.073 52.4321
3.4713 13.2421 51.318
3.36616 12.7686 51.8549
3.43544 13.433 52.1592
3.42378 13.3504 52.2718
3.4317 13.3809 51.9732
3.3984 12.823 50.105
3.30722 12.9713 51.1879
3.37243 13.268 51.3681
3.33891 12.7047 51.4269
3.39065 13.3721 51.62
3.38821 12.9773 50.3466
3.28717 12.7242 51.9615
3.40544 13.1296 50.2448
3.271 13.1624 52.6128
3.42633 12.9325 51.1034
3.34209 12.9543 50.9684
3.32043 12.9328 50.6256
3.31081 13.1887 51.3973
3.34589 13.256 52.0224
3.38544 13.0765 52.8653
3.43277 12.8819 51.7216
3.38685 13.212 49.43
3.21459 13.0236 51.684
3.3718 13.4618 53.1347
3.44132 12.9717 51.0641
3.33727 12.9439 50.7734
3.30896 12.7856 48.8344
3.1802 12.9185 52.2593
3.38575 13.1683 51.6914
3.33427 13.1164 51.2349
3.3119 13.9638 64.4258
4.20546 14.6757 50.9985
3.2979 13.1945 51.5715
3.31498 13.1594 53.3752
3.44306 12.8053 50.4135
3.29489 13.0582 51.4816
3.3408 12.9172 50.5631
3.27436 13.0725 49.7989
3.20813 12.187 50.1212
3.27102 12.8707 51.7806
3.33332 12.9413 50.0075
3.21336 12.5662 51.0969
3.33677 13.3562 51.7862
3.33651 12.6867 50.7869
3.27907 13.0889 51.6342
3.32112 12.821 52.6266
3.39834 13.0458 50.8577
3.27636 13.1688 51.1139
3.29328 13.0122 51.8622
3.30916 12.6751 50.0404
3.22756 12.6916 49.4977
3.18447 12.3446 49.3926
3.18271 13.1155 52.1866
3.36231 13.0558 51.8095
3.33218 12.8501 52.0647
3.35053 12.9153 50.1441
3.22856 12.9677 51.7341
3.29322 12.6212 49.4832
3.19639 12.7199 49.9566
3.19635 12.407 50.0247
3.22653 13.3169 51.1068
3.25717 12.6267 51.2057
3.26334 12.6934 50.4984
3.2396 12.8656 51.4226
3.28366 12.7835 51.7163
3.3041 12.9947 51.2984
3.28022 12.682 51.7876
3.30591 12.9048 49.5664
3.18019 12.6496 51.0351
3.26182 12.7125 51.2458
3.27387 12.9933 52.8998
3.38586 12.7641 49.7855
3.18147 12.7705 50.6367
3.2261 12.5318 49.458
3.16042 12.6558 51.3576
3.29066 13.0813 51.7154
3.31293 12.8684 49.7007
3.16057 12.4762 49.9176
3.19146 12.8975 51.495
3.26242 12.5759 50.3336
3.21396 12.7701 49.5833
3.15285 12.3935 52.0393
3.32563 13.0064 50.3168
3.19878 12.4118 48.9607
3.09055 12.5447 51.9782
3.31803 12.903 51.4946
3.28182 13.1429 51.2436
3.24131 12.5005 50.0707
3.18994 12.5791 52.6638
3.36118 12.5596 51.2207
3.26077 13.3955 51.6549
3.29862 12.993 50.0659
3.18187 12.5713 50.5715
3.22823 12.6183 52.5746
3.35694 12.88 51.1211
3.26925 12.9331 50.9657
3.22207 12.7936 50.3928
3.19345 12.6521 51.6948
3.27053 12.7083 49.7192
3.15821 12.5356 51.5807
3.27112 13.1927 50.1379
3.20048 13.0643 50.5571
3.22622 12.4777 50.1766
3.19018 12.6761 50.5995
3.21109 12.7745 52.4683
3.32444 12.9373 50.9
3.22496 12.6537 50.3085
3.1975 12.5792 51.3224
3.26086 13.0565 53.2566
3.36485 12.9016 51.1137
3.23691 12.8684 50.0467
3.17666 12.9824 52.3391
3.32881 13.0786 51.674
3.2758 12.7754 50.5158
3.2101 12.8561 50.6706
3.2263 12.4772 50.8455
3.21198 12.9603 51.304
3.24107 13.0221 53.3305
3.37536 13.1093 51.4319
3.25393 12.8299 52.6435
3.33581 13.1202 51.7638
3.28271 13.4568 53.6829
3.41055 13.0641 53.0055
3.36934 13.2193 53.6169
3.40964 13.4257 52.2582
3.31352 13.8203 55.3739
3.50526 14.534 64.7787
4.07509 0 0