# pn-170911/RbIIR-46-RbII-1280-1959.psd
# Power spectrum* (dif=0,1,2) (really just |FT|^2)
# NOTE: only the first half! (symmetric)
# weeks: 1280-1959
# 334 clock-days, 3 excluded
# PSD: 1441
68367.3 1.20965 0.0330911
2.25542e+06 53.9358 0.0605862
4.01611e+06 74.0724 0.060964
828856 16.2558 0.0581483
499941 13.2151 0.0562536
337229 9.31447 0.0574315
229707 9.16583 0.0545529
160449 7.98108 0.0579723
129721 7.34227 0.0581794
106979 7.57214 0.0585837
73349.1 6.55433 0.0625276
75588 7.27042 0.0609441
51253 6.64436 0.0635649
51196.5 6.39224 0.0658869
42939.4 6.22973 0.0683898
39492.3 6.52451 0.0603162
31587.4 6.09757 0.0683569
30681.6 6.18843 0.0680253
29433.5 5.55561 0.070851
24563.7 5.65116 0.0650653
16526.8 5.603 0.0681285
25531.8 6.37338 0.0691302
21209.1 6.00161 0.0775369
15002.6 5.91671 0.0727666
13754.3 5.50797 0.0701722
12322.2 5.91258 0.0702952
10918.4 6.74742 0.0869763
11557.8 6.19221 0.0718626
10519.6 6.80214 0.084118
9396.72 7.03658 0.0856343
7697.56 5.7662 0.0811364
8846.93 6.8348 0.0809888
8405.03 7.2615 0.086795
6832.41 6.79976 0.0882877
7900.09 6.79395 0.0893437
6962.41 7.15945 0.0922235
6415.48 7.19178 0.100754
6060.09 7.06658 0.0965753
5474.93 7.80535 0.101252
5494.67 7.55553 0.117
5002.88 8.02988 0.11664
4161.42 8.28506 0.105803
4876.42 8.7657 0.119553
4229.76 7.91833 0.131088
3889.09 8.68674 0.132574
4036.35 8.5901 0.133402
4176.12 8.23663 0.129161
4367.81 8.84414 0.158991
3434.99 10.1718 0.175807
3440.38 7.78266 0.142247
3630.98 8.26337 0.154987
3792.05 8.97964 0.156858
3119.53 9.9057 0.182125
3106.17 9.85032 0.191822
3104.44 9.77069 0.192156
3143.14 9.19119 0.178705
3027.21 10.1873 0.209922
3185.43 10.0163 0.217069
3071.21 11.1404 0.240079
2651.69 10.0194 0.227206
2828.96 10.1356 0.226988
2738.08 10.8692 0.263927
2690.58 10.2434 0.253078
2917.62 13.3064 0.310164
2785.95 11.3851 0.303665
2627.69 11.8428 0.297542
2409.88 12.9978 0.367842
2746.46 14.2522 0.396807
2259.14 11.9209 0.357005
2065.24 11.609 0.338034
2107.88 13.8247 0.409123
1946.87 12.291 0.364784
2049.94 14.7318 0.453109
1637.24 12.2422 0.388324
1885.12 12.316 0.393746
1902.2 14.3899 0.461857
1902.31 14.5731 0.465123
1745.1 13.6442 0.458302
1681.74 12.4262 0.422394
1697.79 14.9707 0.523656
1551.44 13.7303 0.520107
1496.79 13.7947 0.491578
1567.6 15.33 0.57317
1378.67 14.5176 0.585601
1498.22 15.4007 0.577613
1539.49 15.2062 0.586719
1192.01 16.0709 0.642619
1298.56 15.4899 0.631298
1338.53 17.2292 0.698942
1197.9 14.8857 0.631904
1054.36 14.0815 0.626164
1317.06 14.8553 0.658053
1275.12 16.3454 0.715385
1143.89 14.5271 0.664481
1270.21 16.4484 0.785867
1252.57 17.0333 0.83772
1257.33 21.7492 0.987109
1206.63 16.0609 0.785532
1185.1 17.0729 0.872674
905.904 15.6484 0.828611
1075.2 15.9113 0.840424
1265.24 16.1045 0.902202
1063.08 19.5606 1.04252
1019.22 16.1646 0.843808
1044.59 16.7602 0.911643
1068.91 15.7062 0.859368
836.083 18.2163 1.01155
1102.54 17.0509 0.97629
935.522 17.9942 1.04544
969.902 19.249 1.17488
876.488 17.6731 1.11354
1035.24 17.6769 1.05475
924.676 17.6719 1.13602
780.608 19.1514 1.25311
854.523 18.4066 1.2133
952.323 17.1361 1.13063
675.847 18.2851 1.20481
715.544 19.2459 1.32196
805.043 18.6529 1.29163
766.414 18.6687 1.33132
762.32 17.5221 1.24648
713.776 20.3715 1.47437
676.425 17.4333 1.28378
868.456 18.0909 1.32284
764.094 18.6438 1.40911
798.745 21.4229 1.5997
714.622 17.851 1.36433
654.225 21.3115 1.66298
685.926 18.3308 1.53272
639.773 20.7876 1.67544
678.539 19.5531 1.65042
664.183 20.0457 1.71717
630.27 19.8182 1.72621
671.35 19.7487 1.71343
635.623 19.1979 1.71537
673.628 19.9695 1.7695
684.431 20.6249 1.91514
588.89 19.9358 1.82675
613.575 26.1092 2.36962
648.84 20.3909 1.93129
618.19 22.3928 2.12017
617.488 19.7138 1.86419
570.747 21.4444 2.14687
584.449 22.7424 2.24075
596.778 21.9985 2.23171
591.008 21.7778 2.25344
520.786 19.9513 2.08661
601.638 21.1183 2.24743
523.638 17.8366 1.91904
524.856 19.6876 2.13864
519.628 24.5623 2.67073
507.73 20.9176 2.31987
566.407 22.9118 2.51952
578.521 20.248 2.25046
491.904 19.2346 2.21106
488.762 21.3678 2.4678
417.203 18.5742 2.23107
550.525 21.9053 2.51466
474.942 20.9808 2.53701
419.683 21.4687 2.68102
458.457 19.9124 2.46157
428.844 21.1566 2.64548
453.518 23.2803 2.90909
445.937 22.3011 2.87629
478.697 18.1698 2.32515
498.526 20.0839 2.66243
401.423 21.8137 2.88987
394.402 23.5219 3.12208
477.383 20.3133 2.75772
402.106 21.3386 2.85357
395.326 18.6518 2.554
336.008 20.2165 2.88807
355.224 23.7586 3.24432
434.01 21.2783 3.04813
368.143 20.5574 3.02875
370.368 26.2172 3.80584
404.066 22.9134 3.31012
411.326 22.3864 3.3884
393.112 24.113 3.71146
401.49 23.0625 3.51921
399.258 23.7467 3.65172
434.208 23.6069 3.85863
342.911 23.3429 3.64417
385.886 22.695 3.6935
381.087 22.1261 3.50386
385.141 24.5977 4.12982
400.517 23.1284 3.69663
413.845 23.3649 3.86733
346.079 21.9877 3.679
307.502 21.6459 3.66922
342.462 23.8225 4.20839
378.323 23.9093 4.16675
377.472 30.1657 5.10346
399.179 22.8904 3.94894
343.278 23.3167 4.21311
311.251 20.9382 3.82624
313.32 20.3105 3.74182
375.722 24.3592 4.50314
310.676 24.0045 4.45895
279.671 22.2196 4.14275
330.866 23.3072 4.42182
281.045 21.2932 4.14265
266.057 23.1784 4.43312
318.992 21.2545 4.25854
310.198 25.3906 5.04069
274.279 21.6156 4.27898
322.682 23.6714 4.8829
328.089 22.3521 4.43441
274.68 22.7049 4.76612
304.123 25.0831 5.04342
283.026 21.8533 4.56128
293.681 22.8079 4.70227
274.402 22.5184 4.76228
303.522 25.5392 5.37961
264.857 21.7765 4.63492
252.545 21.8479 4.82773
280.765 24.0717 5.40377
279.77 25.2871 5.57759
273.164 24.299 5.46105
261.465 23.3589 5.34596
280.312 23.1022 5.25426
266.054 24.0178 5.4634
297.134 25.5906 5.85966
282.17 25.5231 6.11799
294.616 21.0739 4.96751
267.353 24.257 5.83421
287.412 27.2278 6.61399
239.462 23.5707 5.72549
236.999 22.2254 5.62201
245.561 25.4538 6.42171
258.719 23.1644 5.68769
235.513 25.0767 6.17703
251.517 23.428 5.92293
236.132 25.2613 6.43845
240.097 24.6726 6.31988
227.504 24.3601 6.27706
218.463 26.2487 6.70625
225.258 21.2209 5.71786
255.635 27.7633 7.40029
253.109 27.1235 7.26357
218.83 22.7945 6.29718
256.435 25.9903 7.1011
226.195 26.4955 7.19463
207.469 24.6086 6.70684
201.396 25.0266 7.09154
221.081 26.8787 7.74341
237.837 28.3555 7.96942
204.991 25.4447 7.41157
201.23 26.0659 7.47788
225.881 25.8245 7.39642
194.723 23.7211 7.01332
223.988 25.139 7.43485
184.684 24.232 7.40332
198.296 27.1475 8.19839
224.539 27.6329 8.16018
193.625 24.0552 7.41623
217.186 25.2293 7.62487
196.336 26.1736 8.17943
208.786 27.2552 8.53335
193.386 27.4288 8.56165
206.125 26.6246 8.37306
193.717 27.6782 8.71924
176.979 23.9001 7.77845
195.53 29.5619 9.57402
203.06 27.0378 8.75448
191.704 27.2154 9.10168
218.864 25.83 8.32927
212.488 26.1895 8.69261
167.215 25.2601 8.41674
213.851 26.6252 9.02752
208.349 24.5526 8.41296
200.612 30.2327 10.3097
192.069 24.5678 8.50283
170.394 25.2754 8.85148
191.925 27.4259 9.33035
184.09 25.9979 9.09844
166.748 24.2357 8.72686
190.869 25.9041 8.93243
168.019 26.6297 9.25351
185.217 26.0223 9.64195
178.93 28.9702 10.6253
178.103 29.5328 10.8766
171.052 27.6269 10.1215
157.576 27.434 10.2869
150.673 27.864 10.4639
126.394 24.7056 9.49611
128.887 27.6572 10.4181
191.054 28.5621 11.3111
172.57 40.2558 14.9083
116.473 26.5724 10.1022
140.491 26.2459 10.043
130.537 25.3342 10.0791
135.886 24.3656 9.39785
149.43 24.2666 9.55952
149.813 24.7579 10.0316
136.635 23.0956 9.16056
164.493 26.3187 10.8325
143.169 24.3798 9.72931
139.129 23.7711 9.50436
158.766 24.156 10.2247
140.589 25.7952 10.4814
148.745 25.4945 10.7528
145.793 23.9204 10.0505
151.887 24.9744 10.1617
139.888 25.3688 11.0445
136.855 25.4229 10.9421
147.507 26.1052 11.4694
121.209 22.6915 9.80861
132.338 27.6984 11.7878
166.663 25.7957 11.2442
157.385 26.2523 11.8123
119.853 22.7107 10.2795
122.874 23.4973 10.6545
132.833 26.145 11.7193
133.37 24.754 10.919
135.889 25.0337 11.5099
133.363 23.5392 10.9954
124.001 24.1998 11.1934
116.035 23.0769 10.8815
134.549 22.2909 10.2458
128.279 24.8956 11.4086
127.044 25.9046 12.5221
148.359 25.8479 12.216
122.941 26.2988 12.8064
128.129 25.6506 12.1683
118 25.3237 12.5896
114.809 24.7848 12.5691
129.815 26.6221 12.5075
119.16 24.9405 12.5175
101.004 24.8163 12.5774
123.068 25.345 12.666
106.89 24.9393 12.397
105.919 24.3198 11.8037
110.756 25.5102 13.023
118.403 24.7227 12.2702
122.141 24.6804 13.383
105.375 27.312 13.9515
99.3071 23.9195 12.5002
125.36 26.5495 13.93
120.857 24.7967 12.7025
106.304 25.2424 13.1872
113.41 27.3352 14.278
102.591 25.1004 13.5353
114.303 24.2639 13.044
109.245 25.3925 13.8382
117.115 24.253 13.2702
111.418 22.9898 12.334
117.707 25.6379 13.9255
109.186 24.4472 13.5309
117.991 24.3372 13.2901
115.988 25.1299 14.0111
110.344 26.0596 14.5349
107.315 25.7587 14.2555
113.518 24.4778 13.8566
110.623 24.9041 14.5219
121.099 25.5812 14.6115
118.513 24.0797 13.8288
107.64 24.3409 14.0782
113.791 23.5952 13.8834
114.53 24.9251 14.0353
108.239 25.6024 14.9102
89.5112 22.4794 13.2712
114.233 24.7977 14.7177
113.018 26.3968 16.0928
97.6859 23.6729 14.3319
95.8053 27.6676 16.4769
109.581 26.7298 16.1162
106.339 26.7369 16.2626
96.9764 25.2814 15.3975
91.6376 25.4792 15.7044
86.5163 24.7025 15.4898
96.5804 26.7847 16.4474
99.1776 25.3087 15.9604
101.389 25.1428 16.0244
81.7683 23.9644 14.8463
101.091 27.5814 17.4851
96.5021 25.3897 15.9321
91.0685 25.7598 16.9656
82.6903 25.0768 16.3104
90.5584 25.257 16.2653
96.2682 27.5218 17.3453
88.6248 25.7507 16.978
100.232 28.3273 18.4855
96.1837 25.0521 16.8778
103.921 36.6676 23.9554
96.0268 25.8948 17.8444
98.4117 26.8378 17.1221
74.2592 23.621 16.3872
101.57 27.0458 17.9473
103.097 22.3004 14.7788
87.4167 24.735 16.9885
98.6064 26.7387 17.886
80.1741 24.4658 16.9574
97.8767 25.5127 17.2534
83.2162 28.032 19.4295
90.003 25.7333 18.4778
79.7633 22.884 16.3932
92.4956 24.8415 17.5788
79.9882 24.7739 17.7192
90.7484 22.4687 15.9379
92.6946 24.2246 17.473
80.349 25.738 18.9807
84.3389 24.8898 17.9925
92.1414 26.0727 19.1861
77.498 23.6423 17.2163
77.7541 22.8406 17.3776
87.0964 24.6713 18.0256
76.9779 23.0714 17.3283
86.2717 26.8261 20.1431
79.3506 24.8524 18.6597
82.8478 27.023 20.5916
85.6821 24.4916 18.7427
87.4589 26.9171 19.1179
79.5866 23.7119 18.0442
77.6643 25.1529 19.402
77.7932 25.3343 19.7152
79.4593 23.0347 18.1978
81.2151 26.7281 21.0041
73.4974 23.1075 18.0288
72.4581 23.8315 17.8532
69.5843 23.7712 18.4186
75.8594 24.9237 20.3603
75.1554 26.0011 20.5274
77.5276 25.742 20.3296
73.5877 23.164 18.7808
68.1782 25.0852 19.2836
66.2181 24.9787 20.5534
69.0855 23.8372 19.0352
77.6929 25.664 21.4281
80.9369 26.0923 20.4489
61.9761 22.5576 18.5278
79.7 23.2663 19.266
80.7163 27.5682 22.5824
72.3443 27.35 22.4563
78.0653 24.9832 20.8301
74.0019 23.4355 18.9624
71.4395 24.5143 20.4955
68.9169 23.8108 20.3227
76.4089 26.5112 23.1587
79.5387 25.5678 22.0766
77.2523 24.1896 20.5774
87.023 25.6661 22.1511
75.8311 27.5342 23.6126
78.1385 24.867 21.3852
72.7578 24.387 20.9476
78.638 26.6917 23.6239
66.0127 24.5534 20.9138
67.479 24.0481 21.9731
63.2989 24.456 21.1937
61.8061 24.2619 22.4141
63.3601 22.9698 21.0858
63.4985 25.7913 22.1495
81.8985 26.2482 24.0163
77.2644 26.4437 23.6864
60.3209 26.2836 23.6378
59.1211 27.2437 24.9723
85.4498 24.7776 22.8553
58.2576 24.0124 21.432
66.6116 25.5457 23.8028
54.7766 23.4422 20.8127
60.4633 24.3235 23.0238
74.5607 23.7649 21.8856
62.1944 23.4388 21.594
54.8067 24.4359 22.8374
55.8028 23.5428 22.8067
62.7959 24.1986 22.6355
59.8332 25.2389 24.5055
65.8513 26.0755 24.9248
65.039 24.4921 22.2894
67.1523 23.232 22.7964
54.234 24.9498 24.4064
64.1001 27.1191 27.237
65.2047 25.6548 24.9705
71.106 27.5257 25.825
64.2866 26.1999 25.2838
60.0088 23.3936 23.8633
62.7415 26.2557 24.9257
53.9663 24.7978 24.5059
64.7255 25.2338 25.6911
66.988 24.4651 26.3418
65.6502 36.8383 34.153
62.7706 25.1075 24.8705
66.3896 26.4619 27.8061
59.0352 24.3762 23.4944
59.0673 23.8414 24.78
71.1375 28.4905 28.5605
55.9765 27.9744 28.4095
59.8132 24.4024 25.1012
60.9051 25.6151 26.4939
51.6063 22.5401 22.9001
53.4262 24.632 26.2441
62.5839 27.7655 29.0884
59.601 23.614 24.6585
59.4001 27.0443 28.1866
57.6202 24.0659 26.1253
60.0052 25.5941 26.6221
56.368 24.3333 25.6616
64.486 27.6219 29.0868
58.6526 23.6591 24.6923
59.0799 25.6515 27.2515
56.9948 25.5525 29.1236
59.0023 29.8914 31.9405
56.1178 25.2362 26.8675
50.426 26.1172 29.5608
55.7702 24.6445 27.6304
54.9223 26.2508 28.5862
55.0547 24.0392 26.1331
51.1489 24.8983 27.4482
55.7206 25.012 27.9941
56.8539 25.92 28.7582
49.5254 21.8454 24.8365
59.4525 25.0973 28.9007
56.2569 27.3332 28.8135
57.8917 24.4594 26.5953
58.1992 25.0017 29.5001
52.2429 25.5524 28.9471
53.8638 24.9848 28.1486
55.5695 25.1205 28.4911
56.0688 27.125 30.6732
49.373 24.6436 29.3199
52.1379 24.3322 28.6091
63.0292 27.6466 31.4397
50.2067 23.4719 27.4027
48.8903 24.3649 28.0374
49.7352 23.2708 27.998
57.7494 25.8531 31.0517
50.7428 26.0346 30.7319
57.248 25.6566 30.3855
50.5705 25.5338 30.3611
55.3091 25.613 29.6001
53.5886 24.4026 29.5433
52.6958 26.657 30.5122
51.2139 23.4538 28.218
50.6772 25.2653 31.5496
50.5847 22.2854 26.6744
48.8656 24.6389 30.2123
49.4655 24.6306 30.8368
54.5558 25.1319 31.569
51.9118 26.5501 32.5645
50.4673 22.5264 27.4435
50.0195 24.46 29.684
49.9562 25.6016 31.743
50.7001 27.8862 34.0228
48.7801 25.5134 33.8037
49.98 26.7072 31.6233
49.8442 25.6741 33.1142
52.5817 24.3454 31.1705
45.8273 28.4195 35.0807
54.7371 26.0416 32.1924
47.371 23.6516 30.6202
44.6559 24.3456 31.4054
52.306 25.0516 31.9586
44.3876 26.6534 34.0416
41.5125 27.5174 35.6784
55.1834 26.2046 33.8609
49.3955 23.8443 31.3669
40.8176 24.2947 31.1788
52.5329 24.3282 32.5008
53.7413 26.964 33.6386
46.7629 25.2458 32.8076
46.6057 28.1104 36.887
53.2 29.2915 38.4252
51.052 24.8847 32.2207
53.9808 28.4451 37.9925
48.6143 26.1957 35.4357
49.9461 26.0048 34.1271
45.1856 26.8577 36.8119
49.9266 25.916 35.1433
46.1706 26.6028 36.6665
46.136 27.8574 37.6957
47.2012 26.7039 36.8638
43.062 23.5841 33.1505
44.6325 26.5108 36.0823
35.3808 26.4031 36.1073
37.6611 23.1143 32.4469
56.3026 23.4289 35.5866
44.3331 37.3561 46.6518
39.4447 23.6846 30.7217
44.7037 24.2294 34.6771
39.4122 22.7375 33.8311
46.7963 25.1108 34.5221
45.1908 23.3683 31.5871
40.4754 24.4151 34.3595
40.9349 24.7706 34.5158
41.9792 24.2012 34.8161
38.8173 24.9527 34.7909
39.7693 24.1829 35.1612
38.3112 21.9467 31.7611
37.0146 22.1671 31.9188
40.4077 21.6504 31.9408
41.0764 23.7307 34.0029
39.1547 23.7702 33.918
38.0258 22.283 32.0536
41.7779 21.5003 30.2562
33.9359 22.2297 33.638
37.9631 24.3517 34.9202
39.0746 24.2467 33.8511
43.5788 23.5457 35.7293
40.685 23.4426 34.8272
41.4932 25.6617 37.6498
35.4775 20.1039 31.465
39.7997 25.9083 37.2951
41.387 24.3898 36.542
39.1279 22.1676 34.1909
42.2517 25.7645 37.4865
38.0785 22.1889 32.7524
29.8451 24.0988 37.0086
40.9245 22.5235 34.2062
39.4005 24.5281 37.4447
39.9272 22.3798 34.8873
36.8648 22.7962 34.3484
39.5126 24.7387 38.0101
40.6835 25.249 37.8273
37.1637 23.2185 35.0652
36.661 24.3295 37.9379
36.4225 24.0882 38.7851
36.3466 23.6904 34.7562
33.5449 22.5733 37.6419
39.0215 22.3792 34.1095
33.5531 23.8368 36.3851
36.7552 23.6177 37.4581
39.9541 22.3924 34.2552
36.3018 23.3027 36.555
36.9006 24.8189 38.8924
31.1971 23.022 36.5519
35.1157 23.4945 38.4511
38.0113 24.1805 37.7688
40.4237 21.6866 36.6657
36.5195 23.5195 35.6018
36.3708 23.7028 37.4973
34.9252 23.381 39.3946
36.2559 21.7208 32.5236
34.5821 23.744 37.7629
37.1168 23.6486 38.4619
39.3101 23.3247 38.8964
36.482 26.0106 42.4837
37.36 24.7126 42.3017
38.5023 25.0354 41.5279
36.7822 24.3535 40.4706
35.9759 22.6108 37.4284
34.9536 22.9676 37.0219
33.6972 21.7855 35.2794
34.6904 22.3182 36.9632
37.4649 20.9883 35.0916
35.6082 20.7709 33.8434
36.6425 22.3483 37.4439
34.4453 23.0672 37.6543
32.938 20.1327 34.8097
37.4011 23.0611 40.2256
30.0663 21.3376 35.2255
37.8857 24.9761 42.2769
39.4483 22.7474 40.3269
33.917 21.0693 36.4283
30.8338 22.6046 38.3162
36.1787 20.0397 36.0029
35.8045 22.8759 37.5173
35.6252 20.4734 35.5292
30.8707 22.4059 39.1181
34.8005 21.7701 38.172
37.065 22.8358 38.1389
35.9752 25.2321 44.0052
34.6939 22.3681 37.6889
29.1723 22.4198 39.4177
36.8619 21.6261 38.7095
33.8953 23.8514 41.4145
31.3813 22.2143 38.0182
29.5984 21.397 39.8567
34.6902 22.4101 39.3758
29.894 20.3725 36.3122
29.974 24.2304 43.6222
34.4102 21.647 39.01
35.4862 23.6069 48.0622
35.8104 32.0995 49.9017
31.2091 20.7383 36.2736
35.5696 23.9701 44.4423
29.8049 19.4411 36.9358
36.8903 25.3758 43.4265
32.8465 22.0139 39.6152
31.0557 22.1373 39.0233
29.2491 20.3052 37.0715
33.3283 20.2685 37.4398
31.2076 23.9073 44.4669
29.8707 21.1062 37.7468
30.3839 21.944 40.7135
33.006 22.3808 39.9551
33.4252 23.3042 44.3648
29.6061 22.0578 40.1189
36.3891 21.0409 39.9517
36.4781 23.1687 44.2609
33.0064 21.0736 38.826
33.6211 22.2654 41.918
31.4873 21.8305 41.4445
28.9245 21.8991 40.3123
29.8701 21.7766 40.2787
29.8963 23.1795 45.0109
32.441 22.781 41.2209
28.5438 18.7507 36.193
29.4783 22.8486 40.075
29.9996 22.2954 42.5893
32.8823 19.6269 38.7077
27.5269 19.8937 37.5798
32.8261 21.7897 44.0877
30.7744 23.4748 41.646
28.7498 21.0814 40.4769
30.3539 23.584 45.0251
33.0306 23.2098 43.5135
30.9302 21.7351 42.4901
29.0791 21.314 44.0167
28.8674 22.8578 41.9949
29.8425 20.6906 41.2549
27.4452 20.4049 38.3467
29.8054 21.5066 42.1052
26.6116 18.4512 36.6081
23.3578 19.9149 41.3075
29.1729 21.8006 42.3759
27.8919 19.8781 39.1405
31.6884 20.8448 41.626
30.9295 21.2106 42.8254
25.323 20.6504 41.4304
33.5936 22.6919 43.939
30.7872 23.5578 48.882
29.6259 21.7522 41.2075
30.3941 19.3247 40.2084
25.2564 21.2712 40.78
28.654 22.5225 44.8558
27.6627 21.13 42.9358
29.0718 20.653 42.158
30.206 21.1142 42.6802
27.5678 19.4582 39.341
31.3802 19.7221 40.234
29.7901 21.5885 44.4409
27.5693 20.7258 41.2042
29.0626 20.9221 40.7749
33.3047 20.4916 44.756
29.4671 20.2504 40.9135
27.2965 19.4661 41.1378
27.5082 21.3638 43.4538
25.3374 20.2746 43.4288
28.5892 21.6225 46.1594
28.1283 22.2184 45.0072
31.4691 20.2942 43.9027
30.077 21.9908 43.9498
25.3891 20.494 39.3856
25.7394 19.15 43.5046
33.4001 21.8148 42.9772
25.9599 18.8691 40.9026
26.5658 21.7965 44.0371
25.4485 21.0924 44.7343
25.2002 20.7365 45.7138
24.3448 21.0298 43.3558
26.0275 19.9214 42.5282
24.5595 21.7989 48.7864
21.8772 20.4387 43.5803
25.4598 19.0825 38.653
26.4365 22.7894 49.1119
23.9766 18.5244 41.1613
27.0882 19.4404 43.1139
27.6422 20.9844 48.0558
25.6035 22.3591 44.47
24.9876 21.3069 46.0848
26.3731 22.9531 49.3723
29.3372 20.5546 44.5026
22.7307 19.7194 42.0325
23.9025 19.4125 42.8797
25.1878 18.7342 43.428
25.0935 20.5049 42.3092
26.8665 19.844 45.6063
28.5602 21.5009 55.0725
31.0062 29.1719 51.0237
29.3703 21.4096 47.8363
26.3635 19.1964 46.2119
24.3361 20.6666 44.3758
27.0635 21.7298 47.3347
31.2604 19.7177 43.5496
29.0582 20.85 47.1158
27.317 20.5448 44.1621
25.6853 19.1268 43.7837
25.5977 20.29 46.4864
23.3382 19.9421 43.5744
28.7992 18.5449 42.8564
23.8561 21.02 46.9029
23.1685 19.0166 42.6256
29.5912 20.1203 45.9371
28.5512 19.9173 41.6272
23.6392 19.2503 45.1211
28.9988 19.2975 45.3562
26.2803 19.9345 47.6417
30.6775 20.8988 47.1937
24.324 20.6716 47.8515
23.9227 19.8276 45.8295
24.8164 17.4098 39.2083
23.0015 18.6812 41.5921
24.5381 19.0423 45.1632
23.6864 20.4421 48.1203
21.6983 16.8624 38.3518
22.0936 17.7819 41.4751
22.1708 19.0792 46.7425
22.2919 20.3576 46.571
25.0091 19.7139 43.8609
23.3848 18.5219 44.8881
23.1301 18.4488 43.9574
23.0787 18.264 43.9459
27.168 18.4125 40.4872
20.5216 18.4853 43.1347
22.089 20.188 46.6744
26.1845 20.8895 47.6569
21.896 19.5632 49.6432
20.7246 19.4068 47.0423
24.1415 19.0706 44.6498
27.866 18.5584 44.4488
22.0362 18.5477 42.7811
24.5629 16.021 40.151
23.1129 17.4991 43.0811
25.9341 17.8424 42.521
22.3583 18.9117 44.8794
22.6979 18.3232 44.3114
26.2964 20.7059 48.0798
24.5119 16.4139 39.1078
21.8892 19.2658 47.4077
24.2197 16.8974 43.7447
22.9278 18.4387 42.2363
23.0086 17.6845 42.6277
25.7717 18.9234 47.7985
24.6331 19.9132 46.9839
22.0772 17.3394 43.8409
25.8249 21.9033 50.6805
22.3475 17.5495 45.4357
26.3818 19.8295 46.2734
24.2132 18.9125 48.1016
22.5617 19.1962 46.0849
21.639 19.7354 49.6262
22.6557 19.3845 47.0733
25.5437 19.6942 49.6366
23.6557 20.4464 52.0418
24.1732 18.1091 44.2779
22.4427 18.7135 47.2433
25.9334 18.6717 46.9628
21.7684 19.2149 47.3613
19.8767 20.0516 48.1271
21.2308 17.3952 45.8211
23.0377 18.3805 46.3913
20.1995 19.6714 51.2008
24.4034 19.6457 49.839
23.0786 19.444 45.3529
19.5593 16.9378 46.2647
28.3838 20.3268 49.5297
24.7107 17.6627 44.2884
19.9583 17.8028 47.5808
24.153 17.0997 44.3075
20.4376 19.5636 46.7775
23.8691 17.9723 48.8429
24.673 17.8735 46.4498
22.8371 18.5491 47.4052
23.7786 18.7581 47.6002
25.0614 18.9302 49.851
23.5114 19.8041 51.4768
22.7906 18.2653 45.3497
22.0684 18.2679 48.9044
22.6056 18.1548 48.7326
25.9593 20.0129 47.5973
23.0357 17.2046 48.3455
21.5151 19.985 46.977
22.5461 19.246 52.5201
35.7125 20.4624 68.6967
24.5107 24.9309 53.7908
23.9696 18.321 43.2174
27.063 18.9737 50.0515
23.2136 16.9519 46.349
23.3598 18.8634 48.0914
21.813 18.3613 49.3154
21.8622 18.1714 49.8602
21.7431 18.7624 45.9267
22.4894 16.836 45.9602
20.6653 17.5298 45.2515
19.4179 15.8073 42.0793
19.6902 17.0253 40.5864
17.7137 16.5786 47.4883
22.5032 18.6882 49.2287
21.4128 18.2973 53.1066
20.9455 17.8386 44.2839
21.8833 18.4025 48.5992
21.6591 17.6693 44.6888
19.4299 15.8015 42.6701
16.8906 16.6923 49.0786
19.9154 16.1126 41.284
20.4122 18.9842 54.1978
19.192 16.7638 45.818
17.3144 16.7761 47.9639
17.6002 16.5405 46.3371
20.1075 17.9822 47.7218
21.0299 20.5557 55.2162
20.9015 17.1134 45.3382
20.6066 17.3157 45.8575
19.6969 19.1336 49.7361
16.4996 17.2754 46.5422
21.216 17.4002 50.0465
19.4185 17.5744 49.7838
23.898 20.232 54.3695
23.7264 18.3799 48.8234
24.3497 18.0297 50.7436
20.9073 16.8771 47.7381
21.519 19.5095 56.6384
21.5897 19.2425 53.2303
22.0889 19.158 48.6324
20.1803 18.4393 51.5482
19.3496 18.5077 51.7451
23.0905 16.3757 48.4368
19.6088 17.419 46.6907
20.3685 17.9834 49.9862
20.7524 17.2414 47.9307
19.5962 17.6092 47.0103
19.2462 17.0487 49.672
19.0042 16.6534 47.4736
17.8895 18.2444 54.2196
20.5041 17.3571 43.1168
20.4649 16.4329 45.5146
19.0417 17.3107 52.0148
18.2234 17.9499 52.6191
18.9624 17.5381 48.9846
19.3274 18.2273 48.8871
15.0947 17.1616 48.2078
19.0151 16.0788 44.5118
19.0862 19.6612 54.3772
18.0146 17.7428 50.268
17.7345 17.6744 51.3435
20.4271 17.0882 48.5652
19.9486 17.3497 49.3892
17.4105 16.8405 50.0309
16.6949 18.2375 52.0181
20.4815 17.0051 50.1718
20.4409 17.9918 48.4373
19.8202 16.3416 44.9716
20.2462 17.8074 54.3387
21.12 16.4163 43.694
19.385 17.8169 50.916
20.0888 17.2712 52.2268
20.0037 15.6841 43.5222
14.1678 15.8869 47.5253
18.2525 14.7425 46.4898
20.4592 17.7956 50.557
17.5382 16.2165 45.0378
17.7372 15.7545 48.9477
19.9019 17.0592 47.6963
20.0211 18.5727 51.1195
20.0587 18.468 50.1691
17.6307 15.2756 51.7794
19.4071 16.9697 52.9669
22.1046 16.5238 48.1833
20.0636 17.8214 49.8521
19.0794 19.1733 54.8648
17.4514 18.1167 51.7279
21.7415 16.062 47.9867
18.9783 17.2753 53.2284
18.2827 17.156 51.8189
18.9563 16.9004 51.5712
17.1436 17.0282 51.6689
16.7874 17.393 51.1711
15.4824 18.9122 54.6148
18.468 19.4399 57.7551
17.518 18.4272 74.4062
21.8749 24.7313 59.2234
17.8929 18.673 55.0646
18.34 18.0311 54.0614
18.6764 16.0241 47.8006
19.4961 17.5188 48.8847
16.0389 17.1545 56.6822
16.6444 17.179 51.6842
16.9921 16.9592 49.8178
16.5891 15.8958 48.6461
16.9537 14.5349 45.5547
15.3223 16.7881 52.8524
18.4921 18.9923 54.6093
16.9031 17.1921 49.2625
17.2449 16.9122 51.4469
16.9015 17.5637 54.6137
18.9739 19.4951 55.3186
17.2669 14.5855 46.4288
18.6477 17.4278 49.8982
17.5937 16.2064 51.5425
17.7281 15.1858 47.646
18.6893 16.0258 50.5726
20.5078 17.11 52.7773
18.865 17.723 50.6503
15.1368 15.7422 50.7798
17.7812 17.4597 55.6704
19.2318 16.3453 47.3219
16.7351 15.5425 50.9083
19.4709 16.4624 50.9718
17.1139 16.667 50.1333
18.1735 15.4486 49.8578
17.0663 16.787 57.538
17.8568 19.8318 55.1726
16.4313 14.6689 45.9226
17.5323 17.8563 56.3709
17.1526 18.0879 57.1133
16.7437 16.5049 50.2327
15.5534 17.2517 53.8195
16.0325 16.2993 53.0817
16.4106 16.6179 50.5874
15.554 16.6235 50.3726
16.336 15.7913 46.6992
13.8911 18.7144 58.7119
17.3213 17.9956 57.6917
15.7346 15.1077 48.3923
17.6705 16.7945 53.3817
16.9198 16.5778 48.9801
13.9639 16.2274 56.6603
17.8455 15.249 49.1024
16.6163 15.4218 48.1157
16.9264 17.3763 51.5272
16.6067 16.1897 53.3573
15.0749 15.9583 53.0998
17.273 16.9093 50.4139
16.853 17.477 58.0973
19.0595 15.7194 47.5651
18.6153 16.182 54.5741
18.0322 17.9539 53.7538
19.2104 15.5658 52.3014
18.2199 15.4514 50.3678
20.732 16.4658 54.1497
17.0837 17.5982 54.4476
19.7647 15.9412 52.6603
18.99 17.2497 53.8389
17.1536 16.7522 53.8363
16.0352 15.3083 54.3868
17.373 16.8449 54.252
16.4151 17.6427 55.7637
16.0913 14.9278 48.1618
18.1855 14.4816 49.4021
17.0136 16.4268 51.7642
14.4158 16.4701 51.7545
16.7021 15.3758 47.4545
20.656 17.6103 59.0369
15.8878 15.8417 49.4313
17.9551 16.4822 51.9563
17.3479 17.4598 55.1982
15.1814 15.6654 51.5864
16.2019 16.3994 56.2719
19.9719 18.6211 55.9429
15.1924 14.7572 52.6893
14.7938 17.509 58.1839
16.4884 17.2892 58.5478
17.409 16.1242 47.4182
14.4753 13.5888 49.762
16.9539 15.4667 48.8218
17.2608 18.4725 59.0473
13.1964 16.3398 56.474
14.8891 16.1764 57.9194
17.8103 15.8494 49.0522
15.8228 14.7726 50.7078
14.0319 16.5544 50.3232
13.4766 15.3716 51.3182
15.8339 13.9918 50.5471
16.3605 16.1989 49.8995
14.3303 15.3859 52.2028
15.8632 17.2261 72.7435
18.8775 24.1999 62.7462
17.8231 16.8175 53.7316
15.9241 15.2904 53.4099
14.6433 15.6578 48.0743
15.1914 15.256 51.7904
18.3434 15.9342 55.8694
15.9237 15.8259 52.0092
16.5238 13.8958 48.4477
15.9576 14.6774 51.0872
17.7768 16.67 56.8629
16.3729 16.3423 52.0354
18.2958 15.9884 52.1934
17.3499 15.5629 54.6376
17.6763 15.774 49.4573
17.9057 15.46 52.3513
17.9818 14.7636 52.9037
16.6255 16.5585 56.617
17.5584 16.2433 54.5429
17.1495 15.4567 50.086
17.9612 15.2779 51.4103
13.6367 14.7255 49.5951
15.9582 14.2289 49.5297
15.0592 15.8824 57.347
13.9878 15.3014 51.5232
15.5771 15.2151 50.5693
14.5256 16.3069 58.3781
16.2175 16.4494 54.5888
15.3034 16.4778 54.0577
13.7316 15.5478 49.4953
14.9555 17.5222 62.3283
14.6363 15.8516 51.0061
15.1921 15.4607 54.023
13.094 15.0834 52.2576
13.2729 16.0926 60.9446
17.7952 15.3977 51.5413
12.9137 15.4039 53.6706
14.3096 17.9386 57.0324
15.9997 15.0566 53.1385
14.289 16.0049 58.316
13.6688 16.2551 52.2806
14.6681 15.6256 54.32
16.2146 15.2775 51.7789
14.2363 15.518 51.5689
14.8293 14.4783 51.0879
16.5285 14.1384 48.4027
16.7556 14.943 53.9763
15.3662 15.0382 53.4314
17.5219 14.1637 52.2898
17.5753 16.2331 54.979
15.6316 15.014 53.6138
15.6226 14.8211 52.931
16.3703 16.5137 55.5888
15.7362 15.9295 50.9577
14.1926 14.2034 48.0917
15.5913 13.9585 46.7191
15.5378 14.3935 52.5457
15.0291 14.701 57.1471
15.4705 16.2524 54.3638
16.163 14.6949 54.1266
16.8703 15.9715 58.1736
15.1852 14.7713 55.1338
15.6116 16.5324 56.8321
14.1053 15.0392 49.0121
17.0846 16.1336 57.479
16.5685 17.1041 59.9426
16.5627 14.3266 50.5516
18.1047 16.5633 59.5149
15.8849 16.0526 54.2942
17.7591 15.4358 52.8384
15.6003 15.306 64.4607
13.5743 18.1789 53.8985
14.44 15.8247 57.3826
14.6375 15.4249 53.5861
12.9999 15.0601 57.891
15.0743 14.0948 50.7867
12.9667 15.1756 51.1625
13.9776 14.7146 50.0955
16.4506 14.069 52.497
14.4672 16.0301 52.9861
14.1485 14.1697 55.0981
15.408 15.8139 55.7097
13.8228 17.3516 58.8712
15.5773 13.716 52.6708
16.4087 16.6696 57.0307
14.5945 15.2929 55.6469
13.8791 14.7741 59.3362
17.0628 15.7438 53.2224
14.913 15.9426 62.5039
15.3777 15.4578 56.1687
17.8442 15.0871 48.1894
14.8963 13.4453 48.5458
15.6501 14.0769 52.5184
16.7682 13.9991 53.2448
13.7681 15.4758 53.2754
18.6185 15.4067 56.8338
28.0631 17.7358 80.6865
15.3983 20.235 57.6758
22.5486 15.2879 57.427
22.3122 15.2815 53.3943
17.7268 15.5524 57.6056
17.8629 13.8202 52.717
18.4395 15.9422 57.305
16.6557 15.7277 56.5536
15.9197 15.4798 56.4569
14.9903 16.0508 57.6341
14.1149 15.0533 52.8955
16.5544 14.9049 52.507
12.5469 14.2564 53.67
13.5052 14.8274 55.6884
14.7528 16.1685 59.508
15.0832 14.883 56.343
13.2189 16.2523 54.7051
14.7245 16.5784 54.877
14.0398 14.9911 53.8568
12.8829 13.5347 49.8676
12.6117 14.8907 50.2647
13.5885 13.1389 52.5426
13.8023 14.7204 57.5714
13.7659 15.9257 57.9867
13.6404 14.8671 50.6158
13.4421 13.7163 56.0351
15.816 15.1842 50.0462
12.1241 15.0953 54.3769
14.3218 14.5266 54.073
16.8836 15.2264 57.3764
15.1416 15.2395 53.6169
13.336 15.4136 55.4417
16.3385 14.4574 52.3451
14.9293 15.0551 57.6104
16.0501 16.1254 55.6653
15.0177 14.3219 56.1433
15.292 14.7881 57.7459
14.5034 14.1683 55.1704
16.08 15.7781 50.725
15.1967 14.7416 55.3034
14.3395 14.4216 51.2225
13.3332 14.0348 55.6079
14.8773 14.4951 57.0948
15.5553 15.0222 54.0117
12.6945 14.3827 51.0021
13.9518 12.9021 51.1585
15.1674 15.0039 53.8682
13.3785 15.7796 55.4699
14.6604 14.38 52.5103
14.1416 15.6809 57.43
13.6917 14.6947 54.4456
14.0451 13.668 54.0011
16.3286 15.5767 62.6528
15.2998 14.6259 48.9853
12.5991 13.5049 55.4255
14.444 15.1734 51.9871
14.6337 13.67 50.7267
12.1436 15.1095 56.0793
13.4397 12.6883 50.0336
13.2559 15.0591 59.2296
14.6148 14.7899 49.952
12.8825 13.9564 48.0877
13.3382 13.2943 46.5068
13.6542 12.159 52.5802
12.5109 14.1408 57.8088
11.5522 14.6472 52.5048
13.2049 14.2449 55.0629
12.4767 14.3233 54.1936
12.5721 13.7317 49.0029
12.3756 12.913 47.5053
13.7269 13.4751 50.2082
12.5197 13.469 54.7669
15.5497 14.4063 53.9758
14.5958 13.3242 50.0848
10.9222 15.3529 58.7831
14.0986 13.5568 49.8629
14.0363 13.6066 50.7996
11.5256 13.5996 56.3534
14.3705 14.7807 54.7373
14.1469 14.2644 52.7477
15.7181 13.8899 51.7249
15.1675 13.0867 52.5854
15.0024 13.3413 51.0635
16.2384 13.959 56.2457
17.0071 14.3165 49.1227
13.7871 12.0989 46.7247
15.0627 12.197 45.6821
12.5057 13.4923 57.0901
17.137 14.973 51.2361
15.7254 14.7379 52.5037
14.2671 13.6652 57.9831
16.5239 15.2766 51.1186
15.3341 13.1076 52.5319
13.1226 14.8584 56.527
12.9318 13.8636 51.0977
12.8922 13.7295 55.1102
13.0728 15.452 80.2184
13.4461 19.5598 53.0582
11.4378 14.2481 54.1711
13.1999 13.0147 47.0127
12.2205 12.8065 50.5365
14.4062 13.9088 48.1302
11.2159 12.5735 51.2199
10.2172 13.0233 51.0134
13.0277 13.8209 54.9848
14.1813 13.0438 50.967
11.8978 14.8244 54.7716
11.6766 13.8665 54.8905
13.3338 15.2652 57.5883
14.9178 14.4154 52.0258
14.2384 13.7015 53.7893
13.4249 14.2283 57.1246
15.8481 14.5587 50.0324
13.1117 13.7649 54.7914
13.863 14.2997 55.1034
15.6804 12.7455 49.6913
13.2559 13.6639 52.6657
14.8449 14.2991 55.0207
15.1257 12.909 53.3115
13.3844 13.681 53.1627
13.9757 13.0851 54.2002
15.0553 14.2803 54.5309
14.6624 14.3488 50.4627
13.6198 15.1775 59.2884
13.8475 14.4704 51.4998
13.0269 13.7627 52.8877
15.3312 13.1856 56.7537
12.546 12.9061 52.8539
14.6744 13.695 48.3093
12.1326 14.4139 54.5374
13.0073 13.342 57.079
14.3692 14.538 53.0043
12.9907 13.5881 55.7609
12.3794 12.7476 50.2471
13.6056 13.5981 51.3679
12.0067 15.1936 60.2229
13.5811 13.0097 48.8159
11.3082 15.2729 56.7542
11.4085 15.0776 58.8368
14.4929 13.0571 52.5759
10.8216 14.1577 53.1458
14.7827 13.5312 52.3113
11.9907 12.9178 52.1977
11.3889 11.5893 50.5517
14.6023 14.5268 53.3384
13.6858 12.4513 49.6534
13.6219 13.3903 48.2478
13.001 14.4078 55.3727
11.0885 13.357 52.7322
14.109 13.3096 48.6219
12.3114 12.6484 56.4196
12.8708 14.7815 53.6199
12.6122 14.9086 57.6829
12.7425 13.8785 53.2468
14.125 12.6903 51.5906
12.5147 13.5343 51.7286
13.2994 13.4359 54.8957
13.0596 13.3008 49.957
14.0652 13.8855 57.5922
14.1299 14.3446 56.3932
15.3016 15.3291 56.335
11.9224 13.8317 57.2289
13.5856 14.6215 51.9552
13.173 12.2767 50.078
13.2667 13.5408 53.3226
14.0174 13.9472 53.0133
12.993 13.4229 51.3381
10.9204 14.0036 58.4528
15.3188 12.5662 50.9989
14.4982 12.5549 50.562
11.2025 12.8136 47.899
13.2091 13.4282 57.9398
13.6814 15.1775 56.6137
14.1103 14.5226 57.698
12.8973 14.1318 49.4208
13.4092 13.2203 55.8884
13.7873 15.0127 58.3151
10.2178 12.7738 51.304
14.1036 12.9827 57.0026
13.7143 14.0321 53.4099
11.3238 14.4699 55.2111
13.5722 13.0503 47.4848
12.4308 13.3056 53.5946
10.2641 12.7675 53.028
11.7927 14.0737 52.291
11.5636 14.0727 57.0892
12.6874 13.8297 53.2758
11.1255 13.0917 50.9735
9.37097 13.1933 56.7343
14.4383 13.6008 50.7009
11.9245 12.8848 50.7357
12.2927 15.3105 55.7051
12.7076 16.9761 91.2795
13.5254 18.3956 56.5898
13.9781 14.5401 53.7623
12.7474 15.3636 56.4199
10.8151 14.8443 58.788
14.6416 13.6274 50.7209
15.0783 12.5878 49.5328
13.236 13.4698 52.3545
13.1972 13.2531 54.5663
12.7361 12.3624 45.7334
14.093 12.7939 48.2957
13.9039 13.578 59.7189
14.3383 13.1314 51.9576
13.7462 13.3256 58.8592
15.2366 14.6968 56.5501
16.0578 13.647 53.9899
14.9126 13.3485 48.7151
13.5417 12.7509 52.7151
13.852 14.2075 55.1546
13.2585 13.0273 52.8252
14.5837 13.2691 53.8623
12.2786 12.788 51.5196
12.7314 14.2417 55.1313
13.1894 13.5928 52.7843
11.0799 14.0339 48.5085
12.1592 12.1046 50.0777
13.5849 13.4538 51.9658
13.0047 12.6819 54.7114
13.1694 13.4635 53.3765
11.1751 13.0176 51.6841
10.5286 11.675 47.9118
12.9561 12.9421 45.5598
11.7704 12.8453 47.9877
9.57747 13.1258 51.0047
12.0816 12.034 55.6321
13.5098 13.6804 55.4697
12.6559 14.3797 53.4859
13.206 13.7464 56.93
13.1454 15.2849 54.9106
12.7398 13.9239 57.0425
12.2221 13.4469 54.8567
11.2763 13.9475 56.0479
13.6365 14.8904 52.8278
12.5144 13.2965 53.7054
12.1133 12.8781 50.467
13.3344 13.8474 63.5786
14.8921 14.2537 55.8361
12.3528 13.2721 55.7611
14.2952 13.451 51.0779
13.8701 14.1619 52.6273
14.1306 11.758 52.9592
12.3976 13.829 50.9976
13.9931 13.7607 55.038
14.0639 13.6234 52.6829
12.7094 13.5502 56.6266
15.2485 14.7459 55.7655
14.6521 14.0135 50.7801
12.9109 12.6864 55.2221
14.0355 12.7493 48.7783
12.987 12.9305 52.6939
14.4285 13.2129 57.6736
12.8405 15.356 56.0698
14.0073 13.0918 55.1538
12.0508 14.1197 57.8532
14.2554 14.3075 65.1757
13.9769 15.3447 53.7027
14.4406 14.8631 57.6915
12.981 14.1804 57.873
12.6529 15.4199 60.8059
15.5931 13.4915 55.9
12.3134 13.7873 50.2727
11.5274 13.4531 54.6833
12.7382 14.3685 57.172
11.9999 14.6769 57.2023
12.4869 14.1585 53.0503
11.7034 12.8244 59.0744
10.6472 14.215 59.9041
10.9218 14.7689 54.1193
11.3908 13.0191 49.9236
11.849 12.66 49.232
10.6245 14.3392 56.6294
14.2259 14.6705 57.7579
12.2053 13.9794 56.4988
14.4781 13.1411 49.5726
14.2953 13.8899 54.2245
12.7252 12.775 55.5664
12.6278 15.0716 58.8057
15.6703 13.7733 58.9187
14.0533 13.8782 53.7318
13.6801 13.768 53.4439
15.1527 13.6876 51.5319
15.4221 13.4615 64.669
16.2165 15.5942 57.3866
16.7274 15.3851 60.3666
15.2372 15.2716 60.4724
18.9546 15.54 57.469
21.609 18.7004 102.552
14.7954 0 0