# pn-170911/RbIIR-54-RbIIF-1280-1959.psd
# Power spectrum* (dif=0,1,2) (really just |FT|^2)
# NOTE: only the first half! (symmetric)
# weeks: 1280-1959
# 2012 clock-days, 530 excluded
# PSD: 1441
1190.18 0.255325 0.0336911
40993.4 0.512724 0.0635851
285413 7.19166 0.0667739
22763 0.815431 0.0633939
78182.3 6.81424 0.0662712
7947.41 0.722407 0.0698503
7718.31 1.58394 0.0627713
4232.28 0.764778 0.0688191
4123.37 1.29286 0.0668698
2737.83 0.762074 0.0676472
2198.83 0.938392 0.0604487
1686.15 0.800571 0.0661156
1723.97 0.962753 0.0637865
1330.6 0.835267 0.0646144
1151.3 0.976906 0.0624667
1096.18 0.92214 0.0625886
976.583 1.04559 0.0663782
798.14 0.97248 0.0644882
896.05 1.10235 0.0668533
783.945 1.10422 0.062014
704.144 1.13767 0.070283
690.095 1.19947 0.0661453
621.194 1.25226 0.075076
592.544 1.302 0.0708137
568.903 1.37188 0.0702831
537.225 1.46823 0.073746
516.92 1.4939 0.0747346
507.009 1.57862 0.0706188
485.022 1.59113 0.0725363
463.645 1.70188 0.0748665
458.514 1.82964 0.0734696
514.484 2.08568 0.0758471
489.519 2.08162 0.0807408
469.101 2.22141 0.0796491
415.754 2.15488 0.0760239
459.414 2.4881 0.0814471
425.793 2.4267 0.0807506
420.968 2.57545 0.0781733
419.773 2.6611 0.0850088
413.102 2.76929 0.0861649
422.405 2.91415 0.0894549
408.15 3.07021 0.0898209
406.059 3.1974 0.0938183
384.318 3.23656 0.0936756
394.044 3.32711 0.0974402
383.726 3.50467 0.0984998
379.526 3.62786 0.0991001
379.842 3.75776 0.102671
373.322 3.84255 0.107391
352.294 3.78295 0.11031
359.372 4.14868 0.108101
360.753 4.17598 0.122556
373.619 4.50799 0.123488
357.582 4.5438 0.127054
344.762 4.59938 0.129903
353.097 4.8316 0.131569
372.702 5.20089 0.141008
341.457 5.03111 0.140845
335.868 5.07413 0.144093
336.224 5.30471 0.150061
358.976 5.7171 0.164194
341.712 5.73572 0.170753
334.91 5.86582 0.175817
327.779 5.99372 0.177333
310.327 5.88543 0.180173
308.289 6.0544 0.186805
308.888 6.19107 0.194158
316.733 6.4818 0.209234
304.25 6.37589 0.19911
306.002 6.69364 0.211576
318.77 7.16178 0.223876
306.621 7.11624 0.231155
313.744 7.43583 0.250972
302.596 7.33982 0.248028
303.751 7.66235 0.262621
291.401 7.50261 0.258525
293.619 7.75191 0.280662
299.229 8.11998 0.294547
300.373 8.39812 0.302286
295.165 8.41943 0.30733
284.918 8.36793 0.324599
275.89 8.40527 0.323797
277.297 8.72814 0.333668
271.902 8.64964 0.339575
279.984 9.21995 0.379969
265.352 8.87555 0.371388
265.134 9.00528 0.374862
264.337 9.30087 0.391974
258.801 9.16288 0.401272
248.635 9.20442 0.413704
250.317 9.50868 0.430765
259.744 10.0623 0.452927
257.116 10.0245 0.465222
250.119 10.0839 0.465811
252.536 10.2818 0.491333
247.504 10.3159 0.498234
308.631 13.1697 0.639731
246.423 10.6935 0.534143
236.613 10.5892 0.540074
240.026 10.8728 0.550417
239.605 11.1392 0.585711
234.739 11.1515 0.598006
237.396 11.4997 0.620131
229.932 11.2358 0.615811
235.858 11.5317 0.646901
233.284 11.8854 0.678165
231.787 11.9654 0.686339
224.43 11.9728 0.708336
223.463 12.0247 0.71389
214.376 11.9231 0.721887
215.173 12.0807 0.742818
226.687 12.8769 0.810878
222.547 12.996 0.82126
211.091 12.5171 0.793011
206.079 12.4049 0.799829
217.549 13.4471 0.905097
213.46 13.3121 0.899717
206.234 13.1958 0.912626
196.014 12.596 0.871021
203.673 13.4214 0.94544
204.373 13.6137 0.984414
210.385 14.2257 1.0334
199.124 13.6991 1.02351
202.864 14.2171 1.06972
208.095 14.8571 1.1348
200.397 14.43 1.11458
196.284 14.5031 1.13618
186.876 14.0121 1.12162
185.082 14.2313 1.15512
191.176 14.7785 1.20398
194.796 15.2213 1.27566
192.612 15.2357 1.27822
191.417 15.3553 1.30099
184.34 15.1095 1.30385
184.704 15.3597 1.34591
184.727 15.6994 1.39785
182.069 15.5063 1.38124
180.41 15.8237 1.45504
180.289 15.8486 1.45737
179.02 16.0614 1.52928
177.981 16.1353 1.52906
180.327 16.574 1.6011
173.368 16.0305 1.57551
168.647 15.985 1.57858
178.301 17.2342 1.73111
168.027 16.1988 1.67004
169.29 16.8053 1.73749
166.021 16.5453 1.72807
169.21 17.1848 1.82642
167.723 17.1499 1.82996
168.499 17.5667 1.93841
162.456 17.12 1.87724
164.869 17.5737 1.93492
168.189 18.1258 2.04902
161.329 17.6433 1.99359
164.299 18.2537 2.09066
158.948 17.8103 2.04567
150.139 17.4202 2.06869
156.283 18.0748 2.16825
156.884 18.3951 2.20963
153.88 18.1357 2.2243
148.567 17.8651 2.20243
152.277 18.6632 2.33705
148.578 18.4746 2.35205
150.753 18.9299 2.43495
148.844 18.4983 2.36506
148.083 19.0731 2.49849
152.364 19.7245 2.59487
150.921 19.81 2.64097
143.204 18.8835 2.56111
141.231 18.955 2.59761
147.584 19.8444 2.73575
145.094 19.9156 2.7823
143.743 19.9435 2.80961
143.01 20.1894 2.90088
143.399 20.4997 2.98569
135.68 19.1718 2.82091
139.536 20.3773 3.05136
141.203 20.7733 3.09441
129.246 19.1112 2.91198
135.716 20.185 3.07189
143.615 21.674 3.36039
129.101 19.9018 3.13598
131.953 20.2922 3.20653
132.305 20.8047 3.37898
128.276 20.0026 3.19816
128.603 20.4874 3.30543
128.643 20.8321 3.42064
130.158 20.9052 3.47184
131.332 21.3826 3.58824
125.745 20.9006 3.58336
130.302 21.8497 3.77903
179.482 30.7393 5.20356
125.098 21.3462 3.7831
119.261 20.7147 3.67568
124.562 21.9156 3.95579
116.104 20.7514 3.75821
116.879 20.9193 3.83129
117.946 21.405 3.93875
120.689 21.8514 4.05865
116.989 21.7117 4.10976
123.499 23.1013 4.37313
118.557 22.2451 4.24472
116.81 22.2954 4.3481
117.254 22.5997 4.41143
117.535 22.9266 4.52856
115.039 22.6431 4.51166
115.685 22.8871 4.58362
113.541 22.7155 4.63469
113.653 22.9679 4.73149
115.001 23.4239 4.8322
114.556 23.4633 4.92102
112.798 23.1815 4.85505
107.972 22.6003 4.78574
108.463 22.9404 4.94545
110.93 24.1396 5.27571
107.111 22.9426 4.99304
109.497 23.4342 5.13379
104.071 22.9335 5.13799
103.198 22.7753 5.12295
105.116 23.9103 5.43199
105.833 23.9023 5.46163
104.578 23.7835 5.42294
100.922 23.1658 5.38386
99.1043 22.9183 5.39901
100.029 23.3957 5.53064
101.587 23.9898 5.70485
98.6902 23.4357 5.62653
104.264 24.8398 6.05324
100.601 24.4312 5.983
97.8662 23.9199 5.84166
97.5885 24.2787 6.0819
97.8515 24.2076 6.0574
95.6811 23.7332 5.95945
96.7634 24.3871 6.2271
94.8679 24.2204 6.28333
98.7409 25.4217 6.64248
95.144 24.3231 6.36101
95.1222 24.3096 6.36092
98.6863 25.7611 6.79479
92.9705 24.803 6.66978
92.5272 24.7952 6.65923
90.0274 24.3281 6.64387
92.8038 25.4301 7.04425
93.6371 25.412 7.03995
94.6349 26.1078 7.26473
89.3036 24.609 6.92509
92.3704 25.7866 7.34204
90.2576 25.5213 7.29377
91.8999 26.1694 7.46754
87.2675 24.977 7.22611
88.6518 25.5633 7.54245
87.7388 25.5571 7.57103
92.7607 27.2014 8.04118
88.2491 25.9619 7.7412
85.5868 25.4116 7.67997
86.05 25.8819 7.93311
84.2009 25.364 7.79175
87.7861 26.7181 8.24561
84.966 25.9464 8.03009
83.7775 26.1642 8.17587
84.5581 26.1249 8.2804
82.9753 26.0169 8.29289
84.9319 26.7814 8.57451
82.1184 25.9052 8.36075
80.3515 26.0363 8.49923
79.5813 25.8931 8.48961
81.8585 26.7033 8.80115
82.194 26.9316 8.88314
81.7233 27.2183 9.11352
79.7 26.4692 8.85423
77.9331 26.3503 8.98736
80.1837 27.1792 9.2989
77.4342 26.4665 9.19168
79.3299 26.9458 9.27837
78.669 27.1388 9.47416
78.9179 27.6179 9.71523
74.6468 25.9384 9.14431
75.9718 26.6821 9.41873
76.0221 27.5156 9.9442
74.3747 26.3957 9.55756
75.9322 27.4555 10.076
75.4367 26.602 9.56168
74.9079 27.6485 10.2662
73.0003 26.6064 9.8208
71.9374 26.6474 10.0678
72.2239 26.7033 10.0816
74.2868 28.2466 10.9594
112.878 42.6572 15.7425
75.9563 28.672 10.9769
71.9456 27.2803 10.6181
74.3812 28.6747 11.1286
70.886 27.5456 10.8664
72.2077 28.2323 11.2103
71.2624 28.0004 11.1485
69.3761 27.2745 10.9142
68.7632 27.2897 10.9765
70.4426 28.5573 11.5841
67.8328 27.4258 11.3316
68.3698 27.7512 11.4285
68.0354 27.6413 11.4121
69.313 28.1621 11.5581
66.8475 27.7378 11.6014
66.705 27.8206 11.746
67.2383 28.2291 11.9301
62.7148 26.3735 11.3915
66.7443 28.4789 12.2214
63.833 27.4339 11.9329
68.8104 29.4915 12.7668
70.5126 30.7694 13.4767
64.2972 27.9759 12.3786
65.3548 28.547 12.6261
63.1549 27.5795 12.1843
64.7804 29.1386 13.1199
62.6802 27.9567 12.7303
62.2048 27.9138 12.6881
65.1382 29.4371 13.3726
63.4377 29.006 13.3681
61.5713 28.2967 13.0665
61.5757 28.305 13.1643
63.6474 29.3967 13.8007
60.7178 27.8851 13.0313
61.2213 28.5537 13.4552
61.1271 28.9791 13.8134
59.6029 28.2966 13.609
58.7146 28.2629 13.722
57.7074 27.694 13.4928
58.9514 28.4919 13.8608
59.7408 29.6085 14.709
59.8094 28.5883 13.9295
60.5558 29.53 14.5065
58.2266 28.9711 14.5204
58.0233 28.474 14.1951
57.9757 28.9808 14.65
57.7328 29.1811 14.9676
58.8554 29.5895 15.0239
56.5349 28.6963 14.6599
55.6943 28.3403 14.5603
53.3046 27.5228 14.337
54.2561 28.3391 15.0812
57.4775 29.8161 15.7131
56.7423 29.5112 15.582
54.1449 28.2316 14.9598
55.1265 29.0898 15.4239
54.8834 29.249 15.7358
54.6178 29.0177 15.5968
52.8175 28.4722 15.6089
53.9089 28.9641 15.8373
53.6655 29.2394 16.1435
54.7053 29.9137 16.5913
53.3234 29.0504 15.9867
53.4346 29.5822 16.515
54.2026 29.9967 16.7894
52.5065 29.2657 16.5299
52.1406 29.3352 16.5564
51.314 28.6667 16.236
51.3233 29.2653 16.7818
49.6213 28.2516 16.348
50.8516 29.1567 16.8675
48.5307 28.0617 16.4968
50.1962 28.8754 16.8516
48.9338 28.4866 16.8627
49.2733 28.9703 17.2475
51.5878 30.195 17.694
49.672 29.5557 17.9049
50.8547 29.7132 17.7992
48.4023 28.9527 17.6342
50.9542 30.4545 18.4695
49.3304 29.8814 18.1721
46.5794 28.3839 17.5226
47.0445 28.8819 17.8959
47.7546 29.2369 18.0938
49.0605 29.8112 18.4498
50.0495 31.0224 19.4316
46.8377 29.3317 18.6136
47.5927 29.8593 19.1261
47.3623 29.4922 18.6858
45.7505 28.7668 18.3804
45.5102 28.8049 18.5586
47.3863 30.0879 19.1827
45.8024 29.6089 19.2845
45.3158 29.3047 19.1786
44.3454 28.81 18.9971
45.4359 29.8362 20.5091
69.8385 45.2808 28.3873
44.387 28.9468 19.4644
43.8497 28.8524 19.2629
42.9687 28.6235 19.5273
45.0881 30.0053 20.1678
43.4075 28.7762 19.5189
45.1572 30.3229 20.6766
43.1731 29.0087 19.7182
44.1028 29.4696 20.0585
43.2341 30.0422 20.9984
43.6288 30.1465 21.2243
42.7954 29.2895 20.5177
44.3588 30.1349 20.8336
41.6787 29.0813 20.585
42.9923 29.6717 20.7607
40.5765 28.6664 20.5809
42.96 30.4829 21.6336
42.7148 30.239 21.7518
44.8271 31.9029 22.7635
41.5219 29.922 21.5587
41.8604 30.3631 22.1387
40.7903 29.5241 21.7836
41.2102 29.7863 21.8123
39.8521 28.8422 21.2653
39.8546 29.4259 21.7617
39.7916 29.3537 22.0119
40.6242 29.3765 21.6939
40.7905 30.4052 22.8769
41.0357 30.409 22.7742
38.4803 28.7292 21.8287
39.4278 29.8028 22.5522
38.8844 29.6936 22.845
38.4468 29.5217 23.0683
40.0008 29.884 22.7866
39.0716 29.826 22.9268
37.4378 29.0203 22.7951
39.4627 30.273 23.625
38.2555 29.5507 23.3167
36.3729 28.1017 22.1661
37.6707 29.4299 23.1028
36.6085 29.309 23.6256
37.1275 29.0447 23.2642
36.3907 28.6627 23.0149
37.5989 29.901 23.9558
38.0526 30.3707 24.4696
35.7544 28.5701 23.3545
36.4343 29.1426 23.7381
36.1906 29.4567 24.2428
36.8546 30.0234 24.5616
37.0211 30.3399 24.9679
35.3843 29.5442 25.0415
35.9246 29.2642 24.2188
34.8837 29.0791 24.5335
36.6744 30.5906 25.7379
34.9732 29.1047 24.8244
35.4241 29.1789 24.4998
35.5733 30.274 25.8882
34.792 28.9297 24.4721
34.144 29.3265 25.3809
34.4291 29.2961 25.3702
35.2566 30.1368 25.9363
32.9852 28.6385 25.2823
33.8045 29.0036 25.1755
32.9362 28.1768 24.6287
33.1724 29.1929 25.8968
34.1171 29.7826 26.0299
32.9511 28.9809 25.9509
31.9252 27.876 24.8497
33.5773 29.8282 26.6982
33.5598 29.7336 26.8505
32.0338 28.2923 25.763
33.8415 30.5341 28.0655
35.2595 30.9876 27.7361
33.4914 30.0168 27.1213
31.6105 28.2871 25.9444
31.4471 29.1247 27.0833
32.0562 28.9888 26.4885
31.8255 29.5547 27.6743
32.5959 29.8729 28.0332
32.8076 30.135 28.0128
31.9906 29.9591 28.1279
31.0682 28.6193 26.9383
32.1001 29.9922 28.2139
30.0632 28.2226 26.9517
30.836 28.6598 27.1395
32.2175 30.8175 29.5838
30.2019 28.3667 27.4885
30.7966 29.2646 28.0501
30.5865 29.7152 28.918
30.2919 29.2549 28.9798
30.2243 28.8773 28.4342
30.7397 29.2881 28.4632
29.8333 29.0186 28.6582
30.0327 29.1798 28.9303
29.5061 29.0452 29.2329
28.776 28.5542 31.1016
47.7841 45.6191 41.0602
27.8317 28.4879 29.6532
28.6672 28.3115 28.6645
28.8163 28.5333 28.5799
28.086 28.604 29.3845
27.6559 27.6489 28.0185
28.5557 28.6525 29.2272
28.688 28.8581 28.9886
27.0733 28.0003 29.4553
29.0237 29.147 30.0353
27.7942 28.7633 30.4174
28.6247 29.237 30.1113
27.6806 28.3211 29.4863
27.1741 28.4901 30.1647
28.3299 28.9842 30.3
26.5779 27.6285 29.1087
26.9577 28.3344 30.3612
27.4299 28.8032 30.7073
27.5211 28.6463 30.2033
26.8124 28.305 30.4562
27.278 28.7919 30.6696
26.7475 28.7089 30.8657
25.8486 27.7479 30.5188
26.7146 28.6491 31.4129
26.3274 27.8778 30.2626
26.5861 28.7539 31.249
25.249 27.7439 31.4786
26.7051 28.7405 31.433
26.3973 28.812 31.955
26.3113 28.0651 30.7148
25.8128 28.5604 31.9112
25.0149 26.9281 30.2898
25.8833 28.4522 31.7249
25.5272 28.3204 31.7659
25.3852 28.3845 32.001
25.339 28.131 31.5787
24.5419 27.7433 31.7962
24.895 28.125 32.5552
25.0396 28.1869 32.2885
24.5619 27.8493 32.2755
25.2174 28.4225 32.426
24.5727 28.024 32.4748
24.9042 28.6772 33.4555
25.1654 28.575 32.9416
24.0554 27.6009 32.3154
23.9572 28.0183 33.4066
23.685 27.5359 33.0667
24.4489 28.0115 33.084
25.0492 28.844 33.6744
23.1358 26.9371 32.1859
24.5269 28.5063 33.469
23.331 27.5134 33.1697
23.8754 28.4999 34.5244
24.027 28.4268 34.1337
23.86 27.7181 32.7348
23.1097 28.1443 34.106
23.266 28.3612 34.9497
22.8458 27.3262 33.5557
23.2048 28.3773 35.4826
23.4879 27.4718 32.949
22.8836 28.2829 35.0637
22.9574 27.9669 34.7257
22.6464 27.5355 34.0151
22.2875 27.4014 34.319
22.1787 27.1753 34.1886
22.5009 27.9738 35.0695
22.169 27.5661 34.7313
22.1422 27.6283 35.3235
22.3503 27.8876 35.3037
22.1589 27.0961 34.34
22.1801 28.0655 35.8371
22.0804 28.05 36.4537
22.2405 27.3017 33.9817
21.3085 26.8191 34.201
21.0008 27.1534 35.3314
20.6675 26.4742 34.3912
20.3923 25.948 33.9342
21.1716 26.6242 34.2204
20.9669 27.3595 35.3101
21.2881 28.5171 37.8963
21.4574 27.2774 36.2942
21.7847 27.9813 36.6914
21.1924 27.5829 36.5177
20.5337 26.6128 35.3906
21.0419 27.7346 36.9462
20.736 27.2382 36.4953
20.5786 26.4507 35.2949
20.3872 27.2467 36.805
20.2453 26.0799 35.0226
20.0798 26.7721 35.9097
20.2727 26.4402 35.6397
20.2089 27.6619 37.622
20.2942 26.5562 36.6003
19.9073 27.2836 37.7485
19.2912 25.7083 36.5443
19.9133 27.9284 44.3359
34.1021 43.7366 52.4116
20.6563 28.1871 39.2881
20.2601 27.2484 38.204
19.9293 26.9407 37.6216
20.3329 27.2324 37.5466
19.3938 26.6855 37.1437
18.4387 25.2075 35.7228
18.8937 26.3334 37.0709
18.9073 26.9055 38.4031
18.6819 26.1493 37.7316
19.0195 26.0962 36.822
18.7252 26.943 39.4346
19.6411 26.8917 38.4633
19.347 27.0462 38.2582
18.4394 26.045 38.0218
18.5977 26.2339 38.0811
18.8057 26.3401 37.6014
18.4318 26.6331 39.0761
18.8172 26.7309 38.6803
18.9183 27.2523 39.7026
17.6029 24.9572 36.8182
18.1005 26.1349 38.5484
18.1656 25.8634 37.7599
18.0945 26.345 38.709
18.0601 25.9807 38.0216
18.0036 26.6949 39.7428
17.9175 25.8504 38.174
17.7267 26.2031 39.4024
18.07 27.0938 41.0551
18.1977 26.6339 40.0616
17.8128 25.7858 38.6944
17.2926 25.6619 39.4241
17.7988 25.9999 38.5686
16.831 25.1191 38.7059
17.5585 25.5191 38.2694
17.3282 26.1256 40.053
17.4745 26.0271 39.3796
16.6918 25.1021 38.6584
16.6481 25.0208 38.2283
16.4684 25.0287 39.0183
16.7705 25.5651 39.6188
16.6163 25.2814 39.3523
16.8617 25.9809 39.8909
15.9582 24.8123 39.2958
16.6835 25.888 41.1768
16.3912 24.766 38.9921
16.4941 24.9398 38.6113
16.059 25.7579 41.5271
16.3869 24.9874 39.5505
16.7399 26.0424 41.1433
16.1445 25.1744 41.0379
17.3108 26.4591 40.7691
15.6779 24.8931 40.6696
16.3265 25.0739 38.9741
15.5062 24.8093 40.6567
15.7378 24.4141 39.3469
15.949 25.0752 39.6864
15.4344 24.7746 40.6679
15.8345 24.9892 40.1132
15.1716 24.7114 40.9091
15.4685 25.0224 41.4818
15.6265 24.4634 39.7309
15.1875 24.2832 40.0311
15.7453 25.338 41.7218
15.4229 24.7581 40.6313
15.2775 24.5883 40.6004
15.7456 25.4376 41.317
14.2233 23.697 40.3481
14.9039 23.7908 39.2442
14.5456 24.0211 40.2863
14.9405 24.6478 40.7013
14.2588 23.7707 41.0209
14.7988 23.8355 39.4596
14.6595 24.5299 41.1979
14.438 23.8424 40.2904
14.6328 24.8753 42.7493
15.0156 25.2467 43.4309
14.8196 24.6468 42.1342
14.6813 24.2873 41.2117
13.9454 23.3087 40.6906
14.0418 23.2343 39.6924
14.1189 23.9798 41.3506
13.7415 23.0031 39.8655
14.2621 24.1223 41.9543
14.7805 24.7509 42.4455
14.1463 24.2336 42.2261
13.9689 23.9237 41.5288
14.0118 24.0586 41.6417
13.5901 23.8301 42.8499
14.4581 23.8712 41.029
14.0286 24.6877 43.341
14.0724 24.6536 43.489
13.3838 23.1556 41.8004
13.7414 24.1982 42.88
13.27 23.6829 44.0326
13.8201 25.4598 54.5448
23.7357 39.1123 58.1428
13.4635 24.0005 44.2693
14.0218 24.5846 43.5995
13.4333 23.7535 42.9837
13.5106 23.9777 43.1518
13.0258 22.9204 41.937
13.3338 23.7408 43.3281
13.4809 23.5131 42.4987
13.2163 23.2441 41.9921
12.5018 22.6542 41.8359
13.3145 24.3375 44.7188
13.1379 23.4411 43.1654
13.1345 23.7522 43.9983
13.1203 23.2741 42.2759
12.7321 23.2102 43.5882
12.9918 23.4516 43.0472
12.3695 22.6466 42.8059
12.6605 22.5717 41.8101
12.4755 22.802 42.8216
12.7594 23.2827 42.9328
12.3908 23.2502 44.4275
13.0348 23.4224 43.2098
12.723 23.5326 44.0919
12.3108 22.9323 43.6086
12.1271 21.9479 41.4946
12.2003 22.6107 42.5769
12.2153 22.8865 43.2929
11.9013 22.5754 44.1517
12.6925 23.6659 44.9487
12.4364 22.8216 43.887
12.2365 22.3516 42.8012
12.5784 23.9875 45.0042
11.8599 22.6896 43.8434
12.2143 23.4658 45.883
11.9021 22.0207 43.3121
12.4793 22.9943 43.0812
11.4652 22.1139 43.055
11.7864 22.6739 44.9607
11.8674 22.3128 42.5741
11.65 22.8994 45.5185
11.6895 22.5823 45.1214
12.3493 23.5447 46.0716
11.9548 22.5269 44.3192
11.5384 22.1538 43.0342
11.4189 22.5416 44.7952
11.15 21.7725 44.601
11.8191 22.6831 44.8564
11.4473 22.494 45.5995
11.6899 22.5899 44.6621
11.3505 22.0365 43.9848
11.2906 22.0697 45.0227
12.0097 23.3195 46.0155
11.5102 23.3676 46.5092
11.1031 21.9391 45.0112
11.2379 21.7771 44.0664
11.5149 23.0356 46.1623
11.0192 21.7484 44.4402
11.1818 22.1123 44.5495
10.6719 21.0333 42.7631
10.7032 21.3424 44.6734
11.1256 22.2442 45.4542
11.279 22.4126 44.8081
10.9423 22.5751 46.2952
10.8177 21.5537 45.206
11.093 22.2709 45.1728
10.4452 21.2973 44.9321
10.837 22.076 47.1528
11.0667 21.9113 45.3051
10.6607 21.4769 45.3072
10.8669 21.9009 45.7826
11.077 22.6225 46.6136
10.6401 21.4079 44.308
10.3309 21.6859 45.886
10.3629 21.1694 45.0075
10.2047 20.7508 43.7961
10.6986 22.1713 45.8174
10.0084 21.0998 45.2739
10.3856 21.5135 45.5857
10.6005 22.3734 47.4247
10.2208 21.3265 46.1981
10.3448 21.4194 45.3847
10.4092 21.9194 46.6842
10.1717 21.5452 46.5462
10.3229 21.3871 46.3082
10.3331 21.7709 47.1599
10.2606 21.831 47.4165
10.1638 21.1451 45.7247
10.0692 21.3243 46.4612
10.2598 21.5662 45.4208
9.8167 21.3157 46.5766
9.67041 20.7035 46.2657
10.144 21.2999 46.0736
9.6916 20.7545 45.9891
9.74226 21.0191 47.29
9.77414 20.7315 46.9534
9.84448 22.071 60.7137
17.1223 33.7235 57.2358
9.26675 21.5709 49.5992
9.84465 20.8317 46.2578
9.97556 21.8895 47.9216
9.38196 20.5134 47.0622
9.83644 20.9803 45.9619
9.48735 20.8186 46.6054
9.37243 20.1737 45.8697
9.51786 20.7013 46.9186
9.95893 21.4778 46.8211
9.27957 20.5872 45.7525
9.32829 21.6173 49.2937
9.18382 19.8975 45.8351
9.42111 20.7431 47.3625
9.35067 19.6863 44.0212
9.38266 21.0198 48.2705
9.64076 20.5754 45.2829
9.19234 21.0737 48.7765
9.57349 20.8708 46.7089
9.06357 19.8346 45.4248
9.14476 20.6349 47.3373
9.41167 21.0666 48.3875
9.16129 20.6493 47.8424
9.10323 19.8001 46.1298
9.12924 20.4973 47.2247
9.16198 20.4595 47.7254
9.12255 20.5482 47.4299
8.94187 20.053 46.4329
8.94888 20.2641 48.0473
9.17339 20.1654 45.699
8.67495 20.0688 47.3607
9.02076 20.7451 48.4171
8.73309 19.9335 46.6454
8.59165 20.3467 49.4805
9.07964 19.4788 45.2074
8.7393 20.1529 46.9079
8.62543 19.8328 47.4236
8.84688 20.2911 47.3881
8.61206 19.9333 47.7634
8.68849 20.0052 48.2447
8.94556 20.198 47.0796
8.39194 19.5848 46.1058
8.49585 19.8838 48.1144
8.55832 19.5769 46.9177
8.73383 20.1841 48.3483
8.52929 19.6123 46.3004
8.46658 19.8379 47.3015
8.36317 19.766 47.9524
8.26912 19.2657 47.1738
8.63703 20.0819 48.1585
8.62471 20.5607 49.0276
8.21932 18.9195 46.4236
8.54317 19.9628 48.2849
8.23835 19.3338 47.6565
8.24861 19.1719 46.2044
7.96378 18.8284 47.1473
8.45425 19.9849 48.4635
8.2168 19.598 48.7413
8.44143 19.6093 46.3898
7.64866 18.8677 48.5785
8.3518 18.8735 45.6756
8.04617 19.4942 47.9882
8.1596 19.5698 47.4811
7.74184 18.8955 48.2527
8.38173 19.717 47.8072
7.93044 19.0695 47.4035
7.92 19.1306 45.8736
7.5828 19.0375 48.2977
7.95006 19.6033 50.141
7.95786 18.2962 45.9877
7.91267 19.5326 49.0646
8.07874 19.7283 48.6494
7.6901 18.6101 48.6056
7.91677 18.6233 46.236
7.67654 18.8984 48.1057
7.91328 19.7926 49.3786
7.63174 18.1374 46.5556
7.79486 19.0811 47.4949
7.73055 19.4259 48.565
7.65347 19.1219 49.2158
7.54966 18.6429 48.4197
7.61776 18.5611 47.8688
7.81079 19.3836 49.0602
7.69797 19.1581 48.3893
7.5037 18.9505 49.7893
7.96025 19.5954 50.1911
7.83406 19.2796 49.6621
7.78403 19.0849 48.5327
7.33884 18.3876 47.6793
7.49275 18.9176 49.9064
7.69087 19.084 50.1115
7.91631 19.4088 49.0706
7.52524 18.8863 48.5296
7.3964 19.0368 50.4766
7.76867 19.872 51.7524
7.51884 21.1751 70.5608
12.8798 30.3255 62.9156
7.65887 18.9406 49.5219
7.41258 19.1237 49.5091
7.30306 18.8625 50.3165
7.51576 19.4252 51.8584
7.54878 19.0424 51.0628
7.74989 19.0194 48.9658
7.291 18.7361 49.2173
7.23265 18.1974 47.2428
7.01564 18.2146 48.6456
7.172 18.7637 49.9228
7.36234 19.1083 50.0849
7.18694 18.9513 49.2435
6.63779 17.1584 47.396
6.97408 18.2661 49.4491
7.14528 18.3391 47.974
6.8374 17.9085 48.2986
7.00383 18.2762 49.1383
6.93563 17.8796 48.9671
7.115 18.4376 49.2675
6.79409 17.5671 47.4099
6.76188 17.632 48.1919
6.77606 17.4771 47.3391
6.85965 17.9239 47.5163
6.6367 17.7047 49.2462
7.01692 18.2331 49.1776
6.7802 17.5836 48.2668
7.00135 18.161 48.2793
6.70648 17.972 49.8818
6.93385 18.3451 49.7767
6.71433 17.1294 46.453
6.36235 16.9181 47.4384
6.76264 17.6886 47.2571
6.59447 17.7 48.6448
6.74394 18.0114 49.0502
6.4328 17.291 47.8455
6.45982 17.3737 47.3043
6.3518 17.2435 48.2804
6.49462 17.3526 48.4573
6.6038 18.0439 50.6929
6.61505 17.5571 49.2836
6.57477 17.3412 48.6115
6.57522 17.6189 48.6264
6.62647 17.9064 49.5565
6.50906 17.0025 46.8074
6.27745 17.0098 48.5498
6.43589 17.258 49.2334
6.67998 17.965 49.8448
6.63828 17.5042 47.8261
6.23083 17.4767 48.8966
6.28428 17.2065 48.0732
6.06363 16.9942 50.9516
6.67349 17.9066 51.6426
7.00156 18.9251 51.5317
6.39871 17.2561 49.6013
6.40759 17.3076 47.6783
6.22192 17.2787 49.2687
6.14739 16.5781 47.7941
6.23607 17.2199 48.2342
6.10941 16.7508 48.3213
5.98853 16.4488 47.9019
6.19706 17.4556 50.6756
6.23841 16.4958 46.7076
5.96263 16.4683 46.8664
5.9789 16.879 48.9201
6.10359 16.9252 49.1164
6.06126 16.3651 46.5137
5.98435 16.8308 49.2457
6.26188 17.1954 47.9638
6.04337 17.3748 49.5144
5.84798 15.9908 47.8565
6.06666 17.1026 48.6306
5.90687 16.4994 48.7043
6.1388 17.5973 49.8144
5.87177 16.2796 47.809
6.06955 17.3467 50.0495
5.90385 16.6159 48.7861
5.88367 16.6318 48.8908
5.85276 16.3513 49.0264
6.03616 16.6607 48.4897
5.95588 16.5114 47.3544
5.8037 16.8148 49.5947
5.7684 16.2584 48.6091
5.95024 16.8254 48.12
5.68862 16.2318 49.0042
5.92417 16.8062 48.8734
5.70878 16.2954 48.221
5.59071 15.9043 48.2662
5.84972 16.9761 49.4362
5.78842 16.314 48.3278
5.7856 17.2687 50.2669
5.68333 16.7046 51.2037
5.819 15.8733 47.1337
5.43574 16.0682 49.1014
5.74528 16.773 50.5564
5.7463 18.9223 77.5379
10.2072 25.5087 56.7146
5.86257 16.6922 47.5611
5.49537 16.4457 49.0058
5.57421 16.1291 48.7827
5.64899 16.1309 47.2802
5.39369 15.7072 47.4586
5.60926 16.2188 48.8835
5.48231 15.9754 49.3908
5.72464 16.3082 49.7667
5.65627 16.3185 48.6847
5.58708 16.1263 48.1431
5.5133 16.2038 49.0113
5.55556 16.4806 50.8986
5.60924 16.0241 48.778
5.51766 15.7364 48.1033
5.59714 16.4289 48.8369
5.44049 16.1739 50.0707
5.4544 16.0175 49.2951
5.43713 16.1318 49.1131
5.33649 15.7305 49.3167
5.43259 15.6399 47.0273
5.28046 15.6671 48.5236
5.36426 15.9541 50.0235
5.60669 16.8397 50.4983
5.32318 15.4445 47.4945
5.25137 15.6434 47.9367
5.24657 15.9286 49.8762
5.3487 15.3302 48.1237
5.47626 16.2063 49.0227
5.29162 16.2303 51.2763
5.44448 15.5971 49.2158
5.38456 16.0205 48.589
5.18349 15.2423 48.2077
5.30844 15.6858 47.8238
5.23802 16.2382 49.1948
5.08806 15.342 48.2744
5.24573 16.0065 50.2628
5.14299 15.1071 46.7581
4.97512 15.3326 48.5732
5.08136 15.1795 48.5144
5.14579 15.3286 49.2997
5.16196 15.8137 50.4913
5.28976 15.3596 47.911
5.06137 15.6067 49.5792
5.17695 15.6268 48.9727
5.11427 15.5944 49.0898
5.10852 15.3937 48.9124
5.16849 15.4722 48.3758
4.99259 15.0332 47.8839
5.06783 15.7431 49.0224
4.98917 15.5758 50.615
5.17462 15.0232 47.4774
4.99804 15.3539 47.6834
4.85437 14.9863 49.9924
5.14078 15.5308 46.9481
4.70229 14.3041 46.5409
4.85091 15.2936 49.7041
5.13165 15.7513 49.533
4.92777 14.9097 46.5137
4.60501 14.6336 48.5096
4.93565 14.7759 47.5407
4.82975 15.0903 50.4628
5.13137 15.255 48.0848
4.831 14.5583 46.5823
4.77376 15.1455 48.7117
4.71979 14.3384 47.1998
4.75586 14.479 47.516
4.84659 15.2388 48.8381
4.85691 15.1192 48.3613
4.7662 14.6117 47.9991
4.7736 14.7966 47.9874
4.82237 15.017 48.6148
4.77938 15.2321 50.0908
4.91683 15.1284 48.5412
4.79527 15.3912 50.3773
4.94723 15.1699 49.3328
4.76199 14.624 47.7559
4.6896 14.8033 48.1561
4.73988 14.8846 47.5348
4.53819 14.5751 49.2103
4.82553 15.1655 49.4389
4.75352 15.2361 49.7938
4.80702 14.8799 47.7201
4.58715 14.6897 47.9916
4.56229 14.5775 49.9372
4.74957 14.3356 48.0995
4.70104 14.7994 47.9172
4.71664 14.8779 48.6102
4.69115 15.378 50.4333
4.64397 14.5799 48.1798
4.59925 14.4187 47.2906
4.53967 14.5818 47.9175
4.60629 14.8593 49.8182
4.66476 14.809 49.8616
4.70058 14.8491 47.7682
4.50656 17.7218 82.8389
8.35942 22.5508 53.3855
4.59563 15.393 50.5405
4.50471 14.4865 48.8885
4.50939 14.2896 48.3416
4.57371 14.5652 48.9645
4.63573 14.6931 48.6796
4.56 14.3118 48.2088
4.55022 14.7242 48.9314
4.53928 14.3822 47.6693
4.51561 15.1835 50.6251
4.55913 14.3079 48.9855
4.55374 14.3814 48.543
4.45926 14.5008 49.2407
4.59732 14.4762 49.2578
4.47308 14.2235 47.4049
4.32273 14.0238 49.8489
4.65195 14.5982 47.4665
4.39688 14.2982 48.0966
4.42749 14.5384 48.3457
4.36209 14.2524 47.6318
4.32915 13.9647 47.4007
4.33675 14.4179 49.9528
4.46615 14.2025 47.9195
4.26973 13.9348 47.1469
4.23826 14.2712 51.0397
4.5457 14.0828 47.1487
4.35962 14.8543 50.1432
4.27818 13.4131 47.9836
4.38952 14.1444 49.038
4.47321 14.59 49.6099
4.43833 14.3396 46.7174
4.07868 13.7076 48.6582
4.48801 14.3882 46.8341
4.17538 14.4761 50.6224
4.37702 14.1954 48.4744
4.34955 14.453 50.5959
4.29376 13.499 47.7342
4.37674 14.4257 49.2499
4.37145 13.9204 46.8354
4.11712 14.0868 49.3626
4.31165 14.3508 49.4338
4.34327 14.0956 48.1174
4.11782 13.3534 46.7475
4.10457 13.4162 46.8671
4.09269 13.7178 47.9909
4.19428 13.6363 47.3571
4.16499 13.9927 48.8567
4.22387 14.2163 49.9186
4.2993 13.7715 47.7022
4.18654 14.021 47.3513
4.02869 13.4248 48.2955
4.17252 13.5316 48.3821
4.24971 14.0136 48.4175
4.20635 14.2433 48.268
4.14816 13.6879 48.1594
4.13949 13.798 48.1189
4.03726 13.7722 48.9789
4.17611 13.7548 47.5232
4.09176 13.9742 47.9224
4.06777 13.5114 49.1957
4.23637 14.2384 49.1054
4.23824 13.8981 48.5272
4.09277 13.6522 49.2016
4.21681 13.9143 47.4397
3.94633 13.3866 47.5149
3.99735 13.3531 46.7935
3.94864 13.8152 48.6601
4.04117 13.497 47.7941
4.06494 13.717 48.29
4.03353 13.7199 50.3355
4.12768 13.832 49.6869
4.14655 13.7063 46.617
3.9379 13.82 49.0758
3.99281 13.2174 48.0477
4.0969 13.8202 47.7073
3.94727 13.3471 46.8927
3.86306 13.4414 48.725
4.0244 13.5711 48.2827
4.0006 13.7384 48.4832
4.03398 13.9796 48.8238
3.90115 13.0546 47.258
3.90932 13.2223 48.3172
4.02142 13.7016 48.5344
3.95913 13.8127 50.4595
4.11693 13.5881 47.87
4.00223 14.302 48.9483
3.85123 13.2335 49.8208
4.0396 13.5764 47.3713
3.92949 13.5594 48.9977
3.92471 12.9982 46.7078
3.95052 13.399 48.4494
3.98262 13.7022 49.1776
4.07378 13.7353 47.7674
3.86292 13.8612 50.9717
4.16777 14.3923 52.2028
4.15844 16.8134 85.582
7.25471 20.6054 53.3904
4.19984 14.5205 49.7984
4.11966 14.0001 51.0903
4.05845 13.9336 49.2563
3.94703 13.7188 50.4184
4.04271 13.7374 47.6647
3.87752 13.372 48.4125
3.8428 13.4193 49.3581
3.97312 13.1459 48.4022
3.91221 13.4475 49.1057
3.88031 13.1308 47.1015
3.77201 13.2079 49.1572
3.95117 13.3762 47.8033
3.77113 13.2086 47.7969
3.80195 13.5342 48.0747
3.68975 13.0985 48.8947
3.81983 13.4199 48.7152
3.78746 13.0254 47.303
3.74387 13.05 47.8549
3.74815 12.9512 46.7384
3.61685 12.84 47.5525
3.73652 13.0594 48.1896
3.75695 13.0641 47.6625
3.6919 12.5355 47.486
3.79344 13.0033 47.1506
3.76201 13.4044 49.2884
3.74134 13.0548 48.8588
3.85208 13.1667 47.6296
3.75073 13.357 47.3448
3.65141 12.9297 48.8701
3.83828 13.2116 47.771
3.67821 12.9842 47.064
3.60685 12.7385 46.9331
3.68188 12.8876 48.8627
3.77412 13.3251 48.2182
3.69647 12.5372 47.6532
3.71497 12.9821 48.1191
3.70209 12.9357 47.4996
3.69594 12.9589 47.9293
3.62806 12.7377 48.8256
3.75444 12.9834 48.3662
3.70453 13.2068 48.4105
3.68865 12.8238 49.0686
3.75602 13.3692 47.6991
3.62736 12.759 47.8112
3.72135 12.8729 46.0037
3.46614 12.4362 46.5534
3.50488 12.3271 46.5983
3.57954 12.8458 47.9029
3.56053 12.44 46.6978
3.55632 13.2948 48.3085
3.62389 12.8822 47.2737
3.53188 12.3606 46.7502
3.55017 12.57 47.167
3.5695 12.6674 47.0182
3.52194 12.5434 47.7745
3.54277 12.9528 49.3096
3.75546 12.8651 46.643
3.51165 12.6304 47.5447
3.5627 12.6755 48.3803
3.57688 12.5496 48.0497
3.65515 13.2715 48.8478
3.55865 12.1669 46.0696
3.5145 12.7154 46.9417
3.51425 12.4724 46.5912
3.45918 12.1329 46.867
3.51878 12.5483 47.7291
3.5974 12.6622 45.2093
3.35075 12.3613 47.3267
3.52363 12.1118 46.3973
3.52707 12.5058 45.9117
3.46279 12.3536 46.8708
3.49394 12.4192 47.2273
3.47251 12.0479 43.6553
3.29695 12.1875 47.1941
3.49385 12.238 47.1418
3.52067 12.5801 45.8421
3.39669 12.3871 46.7095
3.40082 12.2093 46.5563
3.40621 12.458 47.5339
3.46148 12.3329 46.7236
3.43861 12.4023 47.9793
3.4786 12.6108 47.8794
3.49802 12.4334 45.1212
3.28922 11.8067 46.9036
3.45594 12.6321 46.141
3.36034 12.2183 45.5843
3.29696 12.3732 48.4982
3.52615 12.8534 47.3068
3.36194 12.2369 47.2871
3.42949 12.2223 45.8399
3.31884 11.939 46.5841
3.36463 12.5805 47.2839
3.42323 12.5408 48.9758
3.51229 12.807 46.4332
3.36943 15.8351 88.3308
6.36684 17.9727 46.958
3.36269 12.5964 46.9807
3.40014 12.8158 45.9392
3.30105 12.1434 47.0517
3.38075 11.8045 46.9386
3.47061 12.5261 47.4767
3.44422 12.7146 49.1841
3.49167 12.3664 45.7795
3.29253 12.3528 47.5554
3.36223 11.8499 44.7764
3.24196 12.3552 46.4498
3.33027 12.3533 46.9574
3.35463 12.0639 47.1434
3.3783 12.1391 46.0196
3.34148 11.795 46.3035
3.35508 12.2415 46.4192
3.31524 12.184 47.3864
3.31077 12.3323 48.0215
3.4272 11.9926 45.7335
3.22523 12.0247 46.965
3.40438 11.9992 46.0175
3.26005 12.1939 46.4702
3.30516 12.0229 47.6129
3.36149 11.811 44.6693
3.22896 12.0596 44.9361
3.19078 11.7155 46.3427
3.285 11.8365 46.8429
3.38923 12.5602 46.7094
3.27527 11.5561 44.6101
3.18452 11.2905 44.3247
3.15495 11.6674 45.0486
3.17795 11.5935 45.5009
3.23766 11.8586 45.9624
3.27996 12.3199 46.4124
3.20871 11.713 47.9272
3.44231 12.0798 45.7548
3.2247 11.9814 44.8476
3.20834 11.9773 47.6641
3.36562 11.9455 46.5953
3.23771 11.8481 46.0311
3.27819 12.0315 46.4133
3.24078 11.8796 46.5219
3.22135 11.8316 44.9384
3.13041 11.3743 43.6497
3.07475 11.4049 45.9079
3.20415 11.9832 47.1624
3.31026 11.7304 46.7056
3.293 12.5042 47.7716
3.437 12.0629 46.3267
3.24412 11.8034 45.3245
3.19255 11.949 46.8459
3.24609 11.9885 46.1318
3.20874 11.9288 46.0027
3.1809 11.7614 47.6841
3.2744 11.5842 43.9768
3.11242 11.4205 46.1585
3.2138 12.1554 45.4316
3.20748 12.0201 46.1805
3.18556 11.5433 45.0111
3.13134 11.6411 46.7578
3.25009 12.2895 47.1828
3.20745 11.7723 45.0265
3.12415 11.5995 46.6366
3.24471 11.8432 46.1379
3.16584 11.7206 46.7721
3.20533 11.868 46.7559
3.24745 12.2432 47.8822
3.35103 11.9564 44.1193
3.02783 11.165 45.9967
3.16119 11.7443 44.065
3.02444 11.3796 46.7027
3.19065 11.7104 44.4621
3.0514 11.4988 45.3196
3.10688 11.546 45.843
3.17072 11.5659 45.5846
3.13296 11.6209 44.7289
3.0918 11.8605 47.8006
3.2214 11.5356 46.2829
3.19396 11.8422 46.8894
3.22146 11.7601 46.2926
3.14896 11.6658 46.4907
3.25352 12.1169 43.6137
2.98718 11.3705 45.2511
3.11968 11.2662 44.9289
3.05182 11.0158 45.2041
3.14702 11.8134 45.4391
3.15517 11.4098 43.7212
2.99678 11.5898 45.9059
3.11371 11.2448 44.4999
3.08116 11.8016 46.8353
3.23663 11.6844 45.2595
3.10667 11.7243 46.0277
3.191 11.7531 48.2438
3.28331 12.4406 48.4832
3.31769 11.9926 45.9051
3.15792 16.4886 89.1004
5.89684 16.9397 47.4627
3.19573 12.3526 45.1484
3.0473 11.9299 46.8798
3.18735 11.9142 47.4908
3.2161 11.5483 45.9563
3.12922 11.8712 47.6559
3.21623 11.7483 45.7367
3.11026 11.9022 47.8859
3.2198 11.5724 45.1085
3.04416 11.2974 43.6546
2.98048 11.11 45.1015
3.14692 12.1963 48.0509
3.24231 11.5334 45.0479
3.1327 11.4281 46.3786
3.10766 11.503 44.6558
3.07685 11.6621 45.9977
3.09974 11.623 45.9929
3.18254 11.3969 44.787
3.01302 11.3176 43.5705
3.00412 11.0456 44.3477
3.02266 11.2273 45.852
3.13757 11.8256 46.6777
3.13903 12.5025 49.496
3.33325 11.5612 46.7476
3.15243 11.7545 45.0103
3.0397 11.4253 46.3906
3.13642 11.5171 45.2816
3.0333 12.0363 48.2562
3.2156 11.9564 44.8381
3.00346 11.5754 47.4838
3.1907 12.2918 46.6465
3.10611 11.3831 46.5007
3.09305 11.1952 45.57
3.01799 11.6219 45.3152
2.99459 11.4158 47.1544
3.20991 11.6429 44.1119
3.02863 11.2353 44.1944
2.9646 11.1089 43.6704
2.92115 11.1455 45.2124
2.98007 11.2078 45.3499
3.03596 10.9985 44.6682
3.04798 11.9396 46.1156
3.07249 11.1183 44.9697
3.00863 11.4268 46.236
3.08938 11.1963 44.4554
2.99932 11.3021 44.2465
2.9933 11.3413 45.0131
2.9878 12.0616 46.9884
3.09703 11.608 46.8391
3.16207 11.6829 46.7097
3.14226 11.8697 45.2198
2.97683 11.5694 46.8958
3.16919 11.8064 46.5123
3.08759 11.4111 44.6418
3.01234 11.4238 46.4264
3.07428 11.5211 46.5031
3.07473 11.4065 47.2324
3.16787 11.1903 45.1346
3.04737 11.702 46.658
3.15726 11.5203 45.3357
2.99396 11.4983 44.8567
2.99699 11.2502 45.811
3.10521 11.7304 44.9345
3.03065 11.1091 44.2973
3.0064 11.1166 43.7139
2.92899 11.1863 46.9928
3.11962 12.0015 48.7486
3.21242 11.5792 47.743
3.16863 12.84 47.0773
3.1331 11.176 46.0462
3.03263 11.7838 46.4267
3.08297 11.542 46.7935
3.07582 11.4512 45.1548
2.98673 11.3411 45.1745
3.04082 11.1971 46.913
3.12828 11.9472 46.4253
3.18424 11.2951 44.7472
3.01751 11.7625 47.1439
3.1424 11.6438 47.2833
3.09594 11.8921 46.6858
3.101 11.5027 44.3424
2.93917 11.7069 46.3989
3.07422 11.781 46.5602
3.11092 11.4535 46.183
3.09856 10.9628 44.3453
2.96226 11.3126 46.6621
3.09927 11.7261 46.7571
3.09787 11.6719 47.565
3.16657 12.0706 46.697
3.1469 11.6075 46.5748
3.10747 11.8541 46.1399
3.07521 11.9087 47.2604
3.16561 11.8932 46.7594
3.08512 12.0471 50.457
3.3372 13.1522 51.3654
3.37837 15.1367 73.9531
4.76454 0 0