# pn-170911/RbIIR-55-WTZR-1280-1959.psd
# Power spectrum* (dif=0,1,2) (really just |FT|^2)
# NOTE: only the first half! (symmetric)
# weeks: 1280-1959
# 19 clock-days, 0 excluded
# PSD: 1441
420.235 0.124185 0.045651
17465.2 0.172816 0.0533026
157009 3.5197 0.0504451
7651.08 0.279137 0.0536525
36660 3.13008 0.0663352
3147.42 0.275807 0.0544296
3472.58 0.429362 0.0668557
1753.11 0.360352 0.063748
2445.64 0.840073 0.065096
955.201 0.337261 0.0767383
1071.09 0.33217 0.0647044
692.897 0.348652 0.0718576
824.063 0.445334 0.0663622
692.827 0.322866 0.0562959
551.526 0.403104 0.0621019
568.306 0.485831 0.0556813
468.655 0.420248 0.0608766
486.647 0.573318 0.0615983
422.517 0.49685 0.0518846
316.942 0.500256 0.0699064
224.491 0.344704 0.0549718
345.225 0.740032 0.0666121
266.522 0.659916 0.0731922
166.612 0.523404 0.0643646
414.152 1.11607 0.0876417
286.366 0.871485 0.0706397
194.223 0.737088 0.0771777
374.605 1.35709 0.0839318
202.834 0.581633 0.0544708
355.878 1.22123 0.062425
232.266 0.942253 0.0572882
227.874 1.02147 0.0493725
324.702 1.33282 0.0465758
262.055 1.34678 0.0426793
210.177 1.32606 0.0634914
276.958 1.49194 0.0591671
226.89 1.44048 0.0604082
163.903 1.04112 0.0866745
233.898 1.4625 0.0622041
320.531 2.07188 0.0914479
293.743 2.32839 0.0786183
337.394 2.72514 0.0715403
259.073 2.12739 0.085921
221.95 1.73788 0.0829351
283.763 2.32973 0.0944638
237.616 2.47979 0.0628298
281.007 2.6499 0.0720273
276.744 3.13587 0.0975054
330.708 3.62174 0.0733825
325.666 3.81193 0.0778808
364.038 4.32074 0.133429
224.577 2.73683 0.0911599
291.102 3.70602 0.119764
236.313 3.10631 0.114094
326.784 4.41937 0.12495
402.332 5.16364 0.14015
220.745 3.11041 0.121939
278.081 3.8402 0.142442
398.205 6.14542 0.149017
243.882 3.81914 0.102035
383.377 6.57978 0.224315
213.296 3.5908 0.126066
133.49 2.48817 0.115417
225.93 4.63005 0.169036
216.081 3.60226 0.11282
209.976 3.95445 0.14009
181.496 3.93038 0.143244
230.336 4.77461 0.17471
184.202 4.07664 0.1758
147.432 3.49111 0.15259
221.138 4.91415 0.194859
261.215 6.15056 0.183138
180.099 4.43819 0.17626
309.793 8.16637 0.209058
214.065 6.30038 0.244857
135.546 3.73914 0.160691
116.872 3.02981 0.150363
193.016 5.82416 0.274582
237.874 7.51327 0.250144
226.313 6.62198 0.254475
228.584 6.62769 0.259819
393.186 11.5484 0.43485
197.812 6.39611 0.255375
259.915 7.9805 0.361915
207.792 6.84714 0.338917
153.789 5.34596 0.279815
199.713 7.06202 0.248245
216.752 8.0765 0.324052
289.587 10.7137 0.461405
178.075 6.51831 0.323932
157.55 6.33037 0.314866
225.91 8.59445 0.494048
287.756 11.4892 0.53081
156.609 6.10376 0.237287
303.178 12.659 0.681152
169.604 8.00864 0.394144
202.294 8.16344 0.366054
173.06 7.77928 0.450668
128.902 6.1557 0.355056
159.136 6.94149 0.398618
148.696 7.13791 0.377119
206.387 9.71549 0.463675
187.253 9.35678 0.453854
141.443 6.85612 0.386107
275.69 14.3672 0.857476
141.214 7.09542 0.480208
170.692 8.68525 0.629471
151.491 8.07245 0.429852
151.324 8.2688 0.508896
195.575 11.4109 0.746005
250.907 13.8665 0.757362
185.061 10.9642 0.644992
199.219 11.5391 0.657518
216.087 12.855 0.817001
198.034 11.8587 0.779537
186.335 11.4092 0.791512
106.306 6.93014 0.420013
185.471 11.8827 0.745668
137.439 9.60158 0.703014
123.966 8.6412 0.638488
142.916 9.08076 0.573511
133.888 9.50037 0.568284
175.388 11.1272 0.899673
113.661 8.56299 0.643146
177.262 13.1933 0.866642
106.46 8.29794 0.663458
129.271 9.49565 0.740558
149.165 10.9948 0.860515
148.746 11.7457 0.971342
127.468 10.3994 1.03433
111.63 8.80573 0.66964
168.761 13.7694 1.09076
166.394 14.1777 1.15701
100.771 7.93856 0.83351
150.384 12.1051 1.04808
130.293 11.4312 1.05017
171.816 14.7109 1.32974
106.219 9.6124 0.942596
163.839 15.0888 1.34632
132.558 11.9458 1.10198
131.811 11.9679 1.21256
148.47 14.5333 1.29095
83.265 7.77003 0.819329
127.739 12.1588 1.2095
125.934 13.3206 1.30217
146.943 14.4855 1.47652
104.039 9.83425 0.898258
131.311 13.7205 1.42857
118.755 11.5706 1.12316
104.913 11.4992 1.24001
93.6885 9.51029 1.19315
130.908 14.034 1.38608
109.654 11.7241 1.51453
103.439 10.9822 1.10214
149.872 16.7693 1.98835
95.4989 11.5493 1.37048
168.319 19.8042 2.11951
138.983 15.8269 1.87479
200.886 22.2419 2.49023
124.688 15.1599 1.65814
128.641 15.9191 2.02105
116.429 13.5396 1.67978
117.08 14.0817 1.64077
171.035 21.7408 2.80878
81.5802 11.1329 1.58691
98.6926 11.6403 1.47454
134.815 16.7161 2.01766
138.8 18.1544 2.34114
98.4511 13.6854 1.95135
217.711 30.4635 3.75595
107.226 14.6445 2.09531
131.126 18.2578 2.80431
113.238 14.9043 2.18698
150.07 22.4957 3.27485
112.59 15.1494 1.98372
87.3943 13.2964 2.09773
83.9775 11.7335 1.6401
101.5 14.3633 2.02119
62.6493 9.28213 1.4159
90.646 14.2882 2.20434
109.235 16.3721 2.64191
81.8753 12.1998 1.57547
134.174 20.7776 3.24096
97.4177 14.6388 2.17712
115.329 18.2926 3.0284
83.3476 12.441 1.82823
107.175 18.0592 3.19717
91.1357 15.4316 2.43549
113.901 20.8925 3.56735
96.0501 14.0633 2.2405
105.593 17.5512 3.0743
105.55 17.7072 3.1052
120.761 19.9842 3.40783
112.616 18.8092 3.37614
67.1802 13.4794 2.57441
96.762 17.5055 3.28922
97.963 17.3795 3.15301
91.6591 15.0878 2.89313
71.5617 12.7697 2.24588
86.0123 16.1146 3.20142
94.3231 18.3145 3.64568
106.036 18.3709 3.34707
64.9496 12.871 2.4395
85.3961 17.8907 3.51434
101.73 20.0059 3.98507
72.5273 14.4131 3.02619
94.3725 17.7798 3.62446
105.726 21.6254 4.52492
112.16 24.3537 5.04182
94.0695 17.9666 3.72845
99.3546 19.3247 3.82336
94.9804 20.2422 4.29826
77.7089 15.5314 3.38143
103.089 22.8249 4.88597
75.2638 14.1466 2.8008
82.5088 18.3875 3.85475
98.0291 22.0117 4.41344
117.09 24.7599 5.97658
76.8178 16.4526 3.89568
101.148 20.6349 4.38741
92.0831 21.5663 4.93266
51.7246 12.3465 2.91582
108.818 26.5531 6.05282
70.6373 16.6565 3.86054
76.0328 17.3728 4.29324
110.13 26.4049 5.90793
78.3697 18.9167 4.32841
80.6014 19.2785 4.41168
34.1477 9.79418 2.98202
47.2957 9.39502 2.19853
65.5934 16.8801 4.29016
93.41 23.9314 5.57456
92.5719 23.602 6.08691
68.5828 17.9258 4.53923
67.3249 16.2441 4.20049
85.3493 22.0125 5.54515
83.2543 22.443 6.25438
124.47 31.6532 8.04187
100.443 25.2006 6.67303
68.9006 16.772 4.06349
78.5183 20.1781 5.75826
91.7129 24.2286 6.30924
82.8568 21.9247 5.94423
69.1122 20.2831 6.11412
73.9856 18.3196 5.03969
77.8407 20.2713 5.13839
84.3896 24.6135 7.0718
63.2513 16.8697 4.63076
73.3611 22.7382 7.43291
78.2866 20.4869 5.25996
55.2472 17.2271 5.39052
64.7579 17.9584 5.34314
50.5462 14.921 4.66946
67.3515 19.7133 6.08041
75.5 22.4337 6.50528
72.9861 20.593 5.82421
72.8245 23.56 7.02116
52.6842 17.9406 6.35484
64.2133 19.1711 6.12952
56.4753 18.526 6.42415
94.8845 28.5206 8.43708
74.791 24.2019 7.51532
61.2613 18.8602 5.85552
90.9601 27.0414 8.3548
50.6836 16.2646 5.30505
63.9281 21.3334 6.95079
81.6076 27.8639 9.71071
61.6991 21.172 7.05735
66.9774 20.238 6.14362
64.3078 19.382 6.20411
63.9613 22.127 7.8103
87.6309 28.1646 8.99247
54.1881 18.1843 5.99994
69.115 23.2453 7.93995
41.422 13.7851 4.86429
73.4471 26.5497 9.32823
65.2567 24.5564 8.68629
83.9764 30.2898 10.8842
60.5662 20.4218 6.95052
37.3913 14.775 5.51242
76.4563 26.4053 9.14276
47.7628 19.2493 7.28575
72.5817 25.6511 9.90043
60.4573 22.9129 8.10233
76.2489 27.9022 10.1095
59.2621 21.967 8.47734
45.1711 16.9879 6.65653
51.6553 19.3499 7.38185
86.2073 37.8912 15.2599
44.9006 14.1024 5.32497
49.0346 15.9388 5.37894
51.5048 21.2745 9.04351
75.5772 28.4044 10.261
52.9561 20.7522 7.67945
72.8701 28.9505 10.6458
51.0658 20.8534 8.74674
64.2262 26.4752 10.7326
39.887 14.7932 5.86917
64.6624 27.4228 11.1094
67.0139 29.6825 13.1537
73.3787 29.704 12.473
49.3999 19.1282 7.39437
90.9547 36.7459 14.9922
41.5088 17.7659 7.79557
65.8212 28.0512 11.8366
53.1798 22.3994 9.65728
55.3621 25.8424 11.4362
58.4501 25.4055 11.0842
42.7196 16.671 6.58882
53.0203 25.9236 11.2163
38.8002 15.2775 6.87061
69.3931 30.4945 13.6195
45.1065 20.8484 9.34661
65.0743 29.8522 13.9134
84.8131 39.4741 18.0693
59.6771 26.37 11.9968
61.3017 29.967 15.6338
55.7833 22.9596 10.8846
55.4131 23.3943 10.3517
55.3684 24.5881 12.1348
71.9686 36.3434 17.7342
64.3218 27.1724 12.1895
80.2255 36.6282 15.6528
51.5474 28.2212 14.9777
87.3776 40.6964 18.4706
43.5269 20.3625 9.53836
48.9051 22.4734 10.7392
46.6409 21.7817 10.623
56.0236 29.9249 15.0299
48.9669 23.506 11.3789
50.7487 26.8394 13.64
52.3021 24.4251 11.2531
52.0186 25.5117 11.9477
29.0595 15.0614 7.8757
42.5452 21.647 10.7393
52.9243 28.0537 15.616
44.3074 21.2641 9.90439
38.5152 19.7873 10.0721
55.7081 30.8956 16.8868
50.3112 23.9421 11.2901
51.8563 26.9407 13.9325
32.2 15.4471 8.04728
48.8462 26.9214 14.3104
46.5289 25.6751 14.4207
49.7728 29.8196 17.5685
47.1244 24.2808 12.6444
69.9491 41.4001 23.7897
34.69 15.7721 8.72368
46.3225 26.9291 15.6197
50.0799 24.0556 12.6166
46.6796 25.6027 14.3972
41.6935 23.3253 13.2465
52.1559 29.7067 17.0577
61.8555 34.1999 18.7562
36.2502 22.5228 13.5929
42.5103 24.1512 14.4642
49.8571 26.2536 14.3639
38.9203 21.4724 12.1205
59.0383 35.3716 20.5313
46.1006 27.7585 16.0766
57.5935 33.5794 19.1823
47.3802 29.8545 17.5982
28.1966 18.0977 12.66
31.2987 17.567 11.1929
41.4233 22.1226 11.6556
35.6911 21.9165 14.0261
43.6981 24.8532 14.4803
50.2218 31.6025 20.1393
54.238 33.3977 20.1407
67.0207 38.9216 23.153
26.1428 14.4057 8.5212
41.7927 25.4537 15.3423
24.5631 18.411 14.615
35.7138 18.6393 12.1702
56.5252 35.0528 21.0912
42.4879 25.6783 14.973
44.212 30.5316 19.6049
39.0104 25.6802 17.4343
53.5117 33.9937 21.2934
46.8783 28.9986 17.9388
17.8266 10.256 6.92176
28.2429 19.2887 13.4996
31.0133 20.6005 13.5531
26.5847 14.4271 8.87505
48.0021 31.7996 19.6838
28.6813 21.6259 15.1785
29.9837 18.9105 11.328
39.4299 29.0664 19.05
30.3981 21.3012 14.7941
34.2712 23.9881 15.8052
29.7021 21.6705 15.5488
36.3833 27.4682 20.5672
39.9351 24.5028 15.7485
41.5879 28.536 18.7133
21.9617 17.1698 14.751
52.6721 32.6095 21.5746
44.4607 29.8515 19.7758
31.3581 25.251 19.995
39.6517 24.9756 16.5605
26.2376 19.8247 14.482
48.7678 36.3943 26.0221
33.8081 25.8512 19.0704
32.2614 22.3161 16.6089
44.5118 30.975 21.034
49.6658 38.9483 29.2162
50.9947 36.8345 25.1137
24.6134 19.7217 16.6098
31.0917 21.4902 16.0118
42.3603 29.2872 20.8027
36.6917 26.6958 19.2559
41.7914 31.8875 23.1937
38.4233 30.2763 23.72
28.6108 19.2054 13.7064
24.8972 18.6107 15.3591
46.3494 32.2975 21.4346
29.3372 26.7009 21.0836
32.8705 26.6095 20.8635
28.0391 20.2442 15.825
37.1181 28.269 21.0571
30.0972 25.1218 20.2404
26.5347 19.8467 15.8418
23.8813 16.231 10.4129
40.0936 36.0938 30.0714
35.4699 25.9178 19.8517
40.0496 31.8252 24.9305
27.6771 20.055 13.9944
32.0309 28.7871 23.2172
30.503 27.308 23.6212
24.5036 22.3942 20.8118
26.6596 20.5571 17.4427
33.932 21.4167 14.5727
24.6328 18.0227 13.0426
36.1252 30.7649 23.8534
18.2245 15.1008 13.7244
30.1516 24.2164 20.7144
25.071 19.9456 16.2631
34.1156 29.1182 22.9471
28.8722 24.4889 20.8384
28.0543 24.1664 20.2994
33.6655 26.9428 21.7579
25.033 24.9652 24.831
32.0542 25.807 21.8469
29.203 21.518 16.6911
29.4737 27.1627 24.0491
34.308 30.0706 26.5071
30.0487 29.2839 30.1216
31.5101 23.8131 18.6657
43.2529 38.3555 32.5352
27.0469 21.1492 15.3968
27.1954 29.311 28.1939
25.4783 23.62 21.6533
26.9361 27.22 26.218
28.6394 27.7513 28.4394
24.3805 17.9673 15.402
22.7911 20.2 18.3299
20.1366 15.2631 14.807
34.4368 29.1241 23.5357
33.0079 31.3849 29.8652
40.681 37.6416 30.7097
27.3638 27.3244 27.7722
29.1074 23.1404 18.7442
33.3768 29.7446 25.2031
28.8597 26.9836 25.1815
28.2445 30.6208 32.8274
30.1932 25.5446 23.3006
30.2042 32.0528 34.3959
36.2287 30.9048 26.1335
19.5513 19.1621 19.0149
37.0594 36.865 33.4597
31.9801 30.0453 27.9624
24.3384 21.8321 19.3112
16.461 18.2178 20.7957
28.9696 23.3933 18.8409
21.9579 25.7481 27.8323
16.9723 15.4802 17.1057
29.4437 30.0237 30.1285
40.7083 42.2002 40.5777
25.3884 24.7894 24.9525
16.5793 14.4151 18.2393
37.2688 28.9264 24.1822
43.6363 43.6598 37.083
21.4628 23.066 25.6595
24.9908 24.3973 24.3574
26.1505 24.7405 23.7495
28.1428 33.8103 36.9187
22.1917 22.0224 22.243
17.7856 21.9255 25.6901
28.7941 26.9442 26.0994
24.4315 22.6827 21.4041
21.8042 25.1416 28.6488
30.0676 28.393 26.9873
24.1863 25.0061 24.6443
18.1663 17.424 17.0199
27.5735 35.4254 41.2101
25.134 23.8984 24.5936
16.9707 17.4154 20.6662
22.6298 19.8613 17.5578
27.1411 26.0797 25.1953
17.2649 18.9862 20.149
37.4195 43.8173 46.2563
33.6644 35.3196 39.5197
21.7459 18.6641 18.3742
19.2586 22.238 25.0257
28.4635 28.0145 25.8655
32.2277 39.5961 44.2705
36.4631 39.9453 43.5518
31.5878 36.7408 43.0563
27.4247 27.8144 27.9563
29.251 35.4983 41.2892
21.391 21.7813 22.6411
22.1091 25.4646 29.5702
18.0167 22.5388 29.1685
22.1018 24.2394 28.5986
27.983 29.6065 32.5157
16.5483 19.1671 24.5307
29.4654 31.6846 30.8412
21.0691 29.2947 37.0565
20.6249 21.6289 27.2541
27.6358 30.636 35.0488
22.0571 27.3267 35.8722
25.7695 24.388 23.6095
17.182 20.3223 24.9249
18.1434 23.3382 31.5366
17.6407 15.9939 15.9532
21.5065 25.0508 24.8006
19.587 25.8505 35.0596
28.1396 32.329 33.8158
18.4978 22.5877 28.455
19.3784 23.7495 31.7962
31.8842 35.3959 36.9349
20.8574 27.7007 35.5672
19.0139 20.8312 26.053
14.5604 11.1916 9.34259
24.3344 31.9084 38.6498
22.1915 24.1274 25.8291
17.9905 27.6818 39.1432
26.7903 28.97 32.2554
25.7569 36.4006 48.348
17.127 18.2231 26.4873
26.0284 29.0441 32.3531
21.5004 24.7419 26.5074
12.251 17.5076 24.7936
17.1871 20.4803 26.6918
24.7456 31.4129 42.0509
23.8292 27.5724 34.1089
27.8838 34.4148 40.5784
27.205 29.8667 31.0604
16.9985 23.3098 27.7982
15.7887 21.4485 29.6868
27.5739 35.8066 41.729
13.3196 20.7686 32.0389
11.0079 13.1613 22.1555
23.9613 27.6357 27.5275
14.0562 21.2027 30.9235
23.2696 29.8902 40.2389
16.9018 21.4486 29.5468
21.5291 24.328 29.4257
23.6696 29.694 37.1511
23.985 32.1744 40.3507
23.9964 29.8237 33.9756
17.3103 23.4629 31.1975
18.6987 28.6751 39.1101
17.252 22.9561 31.1678
15.1898 21.4468 30.0412
15.0914 17.203 20.4807
11.0179 13.3903 21.8527
27.9163 36.2039 41.284
14.3045 20.3871 26.1059
17.2024 24.7709 33.0788
24.2027 36.144 50.1962
17.8371 22.8413 33.3859
25.1811 37.0073 50.012
14.4517 15.0421 17.2155
14.1561 23.3673 34.8231
12.8145 15.2722 24.854
19.255 27.811 40.3758
21.6468 25.8791 31.084
13.2023 21.2131 33.1723
17.6536 19.3914 19.1954
12.6676 24.6407 43.5518
23.7749 32.1706 46.2416
24.1771 27.4644 31.3724
16.4159 26.856 40.5584
12.9803 14.662 20.0524
15.8193 22.9435 34.3379
21 27.703 34.2127
11.7483 16.072 20.303
9.05269 17.1763 30.2232
16.4393 27.5447 48.7202
19.7612 18.3889 19.0646
19.5905 33.0233 52.0813
23.4344 30.3808 42.2048
20.0938 23.7711 28.476
14.3746 20.6068 29.1446
13.3152 19.8514 28.9663
18.5647 28.0349 37.4524
17.3731 26.3529 37.0091
9.41078 16.6098 33.6258
18.9542 22.804 26.1328
11.1592 18.7666 34.726
20.9238 27.3189 34.6894
22.6635 34.7261 47.0736
21.139 29.3895 38.3684
20.137 38.7567 63.0678
19.2407 27.0078 40.4399
19.6187 28.1303 39.606
13.1959 20.6401 32.0418
13.6116 22.2267 36.5063
22.148 35.9096 53.4382
16.2713 24.0243 41.6547
20.907 30.0024 39.648
14.5996 23.9959 33.6141
9.17637 15.1269 29.531
14.2443 19.9064 30.3679
14.2605 23.6858 37.9161
17.8315 26.1376 37.4869
9.30113 17.2405 33.8504
19.3298 33.504 51.4989
18.0008 30.2379 47.3536
13.9563 24.0667 45.7075
17.9362 23.4332 33.5482
17.5416 27.2726 42.9388
15.7213 21.9532 27.6048
14.0363 32.4217 61.7533
13.8854 18.3316 31.7977
13.7611 19.0011 32.4566
15.3218 21.7477 38.8503
18.1228 25.0022 36.4152
18.0425 26.656 34.4183
12.0933 20.3077 32.1912
12.0612 21.0222 37.3423
17.3592 23.9996 30.2218
17.8669 34.0815 53.4688
17.7319 25.2057 34.889
15.4984 28.8307 48.0023
12.4692 23.9978 46.0412
19.1774 27.8701 43.3823
18.4506 39.8668 70.3709
15.4967 22.9156 46.2151
19.0387 25.1554 38.5315
16.0154 25.0058 40.7903
16.7701 21.4185 32.5772
20.4019 31.8785 44.8489
14.435 23.1461 31.5416
12.8405 26.5841 48.4019
10.0122 15.1938 30.2277
15.4644 23.9528 36.5759
15.5361 28.5412 44.472
8.95371 14.9341 31.5599
18.811 31.8312 48.1005
12.9864 26.2873 48.2345
12.2071 21.316 41.6954
15.0683 21.7828 36.2284
14.4151 18.4045 20.1117
13.7251 33.0736 62.2311
13.4836 19.1453 32.9682
10.1534 20.1114 44.0965
18.4532 29.3098 49.8513
14.1332 18.9215 25.9161
11.7227 20.9658 34.2998
14.9991 26.2505 37.385
10.7824 22.7131 40.119
11.3935 24.2099 47.4776
13.5835 25.5586 45.1738
10.9172 18.8483 38.7033
13.464 22.9583 43.0772
13.4561 19.3322 31.9808
12.1244 23.2467 48.4272
14.142 23.3639 36.2701
13.2105 25.2568 48.9384
11.7356 15.1191 22.589
8.25746 17.6621 40.8607
18.214 29.003 42.4163
13.6062 25.4704 41.8563
12.8931 25.0726 43.7191
6.97653 12.0836 28.8083
12.4801 21.5898 35.4546
10.3409 25.4809 53.1748
11.522 16.8604 35.3677
13.1424 23.5972 42.3243
8.45729 12.5454 26.9367
10.9674 18.3131 32.4479
10.9852 17.6996 25.2438
12.873 31.4303 65.935
13.5799 20.2052 32.4587
11.5776 23.7456 55.3376
17.1112 29.2565 58.9955
21.3765 31.2343 48.6586
15.4541 28.2694 43.6342
11.2068 19.5538 38.4773
17.5257 33.4287 56.0068
9.70446 16.3747 31.1304
10.2888 18.7526 36.6778
10.6271 23.1083 48.5138
12.018 17.0807 30.7301
13.6845 24.8506 40.5518
9.45713 22.1795 49.2479
13.3246 21.3163 35.7011
8.97133 15.8674 28.8416
6.94254 12.0529 26.013
12.5112 26.7784 50.3553
15.208 27.2224 44.2408
6.28324 17.8162 50.3903
13.2206 19.4649 39.1341
11.8344 20.3355 37.931
10.9492 19.2302 39.0366
13.6656 26.1963 54.3277
14.1042 19.064 25.0334
11.1122 20.7574 28.3515
7.7768 17.6068 31.2038
7.947 18.0337 36.8799
8.12597 15.397 30.4153
10.6751 24.5017 54.9467
13.4334 19.5252 31.7689
13.773 32.0774 60.0718
7.40115 15.8693 39.8389
11.44 22.1638 40.8356
8.41443 17.4271 44.1338
12.4015 21.0307 39.317
12.73 23.0673 39.268
11.2096 23.2581 43.2462
7.46996 13.4071 30.6217
14.1539 29.6703 52.1227
8.36107 14.0364 26.8689
7.81477 20.0533 42.0061
8.25918 15.8375 33.8729
9.10786 19.1081 40.7798
9.75927 22.6661 50.9071
14.6472 27.0094 51.1238
10.0596 19.0025 34.6894
8.30696 19.1455 46.3843
8.88249 15.2941 31.3384
10.8727 18.6273 31.2379
8.37099 18.6932 42.2252
10.706 20.6487 37.5141
6.26843 14.4587 34.6834
9.13191 18.0198 30.7434
8.10483 22.7827 59.8996
12.364 22.0167 48.6154
11.3333 23.3831 47.9922
10.3485 19.2947 40.8749
10.7606 22.3499 47.6127
9.63823 20.1023 42.1426
10.2797 20.7424 40.1837
10.7749 25.1285 53.5395
9.00385 17.7427 40.1317
6.33454 11.7424 28.9918
7.89421 15.1197 35.1934
11.2004 21.447 42.6903
10.5227 21.3409 41.3072
12.4471 32.5939 72.9225
11.708 20.6291 43.8336
8.33856 17.917 44.9177
12.5457 25.5755 48.0837
10.237 21.1316 44.4028
12.637 31.01 61.9189
6.22945 9.84332 27.6765
9.99391 22.9912 42.308
6.75191 17.042 41.3342
8.49178 18.9932 40.7958
5.97727 12.2607 40.2346
12.7077 20.2257 31.3645
9.57114 21.4725 41.2057
9.85007 23.4676 49.4777
8.5099 24.6086 63.0169
9.97762 18.8914 43.6311
7.93416 15.8648 35.0116
7.69241 19.6001 62.3461
15.6959 26.2314 44.4654
11.1032 31.6309 79.3583
13.2619 20.9545 37.566
9.97534 15.1627 21.2744
6.69877 23.9007 66.0344
14.3352 27.5495 49.341
7.84808 18.0105 42.0753
9.64893 21.7994 47.3203
9.91182 20.8784 44.5728
8.72553 19.553 35.209
3.75272 10.8238 34.5709
6.7498 15.9651 39.6928
7.75847 19.466 51.2267
9.92048 21.617 58.297
10.3781 20.5181 50.6252
11.3154 22.19 44.1525
9.39457 17.2845 44.0432
10.7295 19.4736 34.6424
6.68849 15.66 36.3133
9.85558 21.2208 46.648
8.88567 20.3857 46.2314
8.80577 16.9371 31.8352
7.62201 21.5898 48.6207
7.11492 20.0527 58.3471
11.1788 21.0878 41.5547
7.85615 18.0768 39.1787
7.96349 19.7341 45.709
6.52073 14.0004 41.0695
8.82375 14.5159 26.0025
8.09377 18.6374 31.2268
3.72398 8.83156 20.6588
5.18281 17.2644 53.0468
10.2908 19.7475 34.7189
4.89135 15.5572 40.7889
4.44815 10.4329 39.9383
9.42115 18.0542 34.7982
6.22827 17.9419 58.4966
12.8235 23.521 35.3129
5.18434 14.8518 37.4902
7.31105 19.6192 54.193
9.75203 19.173 46.5804
10.7296 21.1081 36.0596
8.56082 26.4663 59.1234
7.29667 18.1313 47.192
7.59419 16.4712 39.1147
5.80987 14.6952 38.5882
7.12583 17.7403 47.0479
6.27196 11.1982 31.46
8.44358 20.418 48.229
8.58462 17.8387 34.6876
5.42488 16.1446 48.1765
10.6013 25.0987 53.571
6.58136 12.5944 30.0947
4.36013 10.1642 36.0046
9.5747 21.038 43.5317
8.96593 22.0416 50.7679
6.88249 12.2896 26.7388
7.5652 22.929 55.0974
8.24823 17.7616 35.9674
6.68865 17.8681 45.3849
8.03263 19.4368 47.9532
7.24156 19.3009 49.4051
8.65706 19.7778 45.3355
7.01596 15.7836 34.6841
6.16388 16.2154 34.824
5.13765 17.4 46.3044
6.05316 19.409 51.227
6.39069 20.6844 60.8611
7.49141 13.2402 43.3343
9.08443 19.6889 47.0627
7.69595 17.3228 44.5312
6.7429 18.1253 54.0228
10.3959 20.9641 38.9817
6.14001 17.4242 47.1015
6.59562 17.2058 48.2881
7.3575 14.7996 37.3537
6.39038 17.9116 56.0987
10.7331 25.5974 57.6177
8.39858 17.5328 36.5803
6.77559 19.1851 47.2335
6.08856 16.9967 54.9469
10.16 24.2938 45.6392
7.99931 27.2971 69.8828
7.81175 19.0351 49.7688
5.53264 12.0689 36.0134
6.3748 17.0475 44.3852
5.48642 10.481 23.1748
4.34166 14.291 39.4141
4.53256 9.99885 31.5053
6.39983 16.7869 43.9402
6.01927 13.3268 40.0359
7.21098 18.6824 44.5538
6.89939 15.666 33.0453
5.36165 17.9505 48.6779
6.7089 18.2953 42.9939
5.08201 17.1497 70.8854
12.8089 28.0388 49.0496
6.57078 18.4476 49.106
6.95729 17.1333 38.0467
5.16429 13.0613 33.7344
5.86555 16.5519 35.4536
4.56875 15.3263 42.0656
6.45961 18.8096 51.9107
6.7518 16.5398 33.7959
4.49618 17.4208 56.3939
5.85603 17.5993 55.5839
6.39526 10.6816 31.1838
5.13166 12.9099 33.1918
6.70101 19.3898 61.436
9.12113 18.1062 29.6579
4.10307 13.0967 40.8627
7.21407 16.556 37.0032
6.54625 18.8036 45.2968
5.54401 17.4381 49.2436
5.55801 13.1633 33.7366
4.27476 13.5133 43.7074
6.5148 17.2809 41.62
6.36066 21.6235 62.8439
7.5894 18.9172 49.7257
5.58769 19.7761 71.1935
8.93824 15.6307 30.7019
5.29459 15.0025 38.994
4.60722 13.4805 47.8215
7.95463 21.0071 49.3946
5.26169 11.7055 46.7756
8.87063 21.9968 48.6827
6.94691 22.3067 52.0777
6.83565 17.8074 50.6847
6.33772 18.3993 59.7414
6.79556 11.7706 34.9846
7.44728 20.9555 57.6459
7.27356 14.9052 29.5442
5.71835 18.2483 44.5747
5.64082 18.8233 49.529
5.57387 19.6601 64.0681
8.35267 19.6309 47.0363
7.0323 24.9056 71.1627
5.99036 15.3072 58.5347
7.96463 14.125 28.4986
5.47019 21.7112 58.4678
4.11398 6.97924 22.5718
4.53485 15.4285 45.741
4.61181 11.8004 43.1509
5.71054 16.0558 52.2974
6.13799 14.7751 44.5704
5.06121 17.4204 64.7818
7.53231 10.7844 25.0605
4.69433 10.3633 29.8811
6.73355 21.2289 39.2006
4.08561 13.1257 39.2186
5.0156 17.5193 51.7843
6.44775 15.1868 50.5798
9.04591 22.4097 43.5925
6.07838 17.5965 42.13
5.09507 18.3097 55.5463
6.74236 17.519 45.8376
5.06327 15.8143 39.5193
4.70682 15.4204 53.2348
5.61056 10.7715 29.9029
4.52632 12.5499 34.7444
5.92239 19.375 47.0105
5.42016 18.8453 49.9209
4.95395 15.9852 47.6447
5.30193 14.8918 47.2579
5.56775 16.3571 51.7047
6.12528 16.4509 40.747
4.3839 12.8408 43.7188
6.43471 20.6888 53.3231
4.25702 10.3115 38.6206
6.74569 22.9283 59.2795
4.27757 13.6263 57.0641
6.46736 10.7536 38.5367
6.14292 13.7147 32.3367
5.42404 15.6958 43.9674
6.34846 20.118 50.0202
4.61634 17.2591 52.8522
4.65201 13.6442 63.2528
7.7727 16.7112 47.1911
6.88459 16.1927 43.1394
5.28568 15.3225 45.847
5.86343 12.5932 35.3848
5.89361 22.7016 56.5406
4.41972 12.0024 45.4251
5.48296 11.6429 29.6919
4.94707 16.2455 45.7054
6.2289 24.1004 71.7068
7.52069 16.2716 37.9751
4.34004 13.4416 39.6098
5.01726 17.1836 34.3802
2.88194 13.7327 51.8459
4.46917 10.4866 33.1345
4.03986 14.2363 53.213
7.72161 24.2754 58.6053
4.7854 13.1606 42.9784
3.88995 11.3405 32.5392
3.13056 9.5472 38.3959
5.56528 14.2086 39.337
4.42112 12.0896 33.9474
4.29733 18.8028 68.1369
7.17926 17.5579 37.6729
4.00822 20.5978 80.7841
7.38381 19.4633 77.169
9.28362 19.3095 39.6648
5.07395 16.1181 49.4175
5.46643 16.4553 47.1595
5.20821 14.5561 41.179
3.84124 11.1106 48.1911
6.48956 18.2863 49.1295
5.62244 16.4029 45.3847
4.57658 14.5801 55.2231
5.49214 10.8793 35.879
5.66095 20.6743 61.8383
6.46764 16.5251 41.2996
3.86984 12.523 49.9392
6.54827 17.0813 47.9614
4.98956 11.1602 34.1109
4.5927 14.0696 44.1393
4.40653 9.94163 21.9767
3.42268 16.1256 47.9091
4.42569 12.6545 36.96
4.05707 14.2709 39.6956
2.9877 8.61573 43.9279
5.77063 14.2225 41.0329
4.93443 18.2553 53.7623
4.77816 13.1395 42.1976
4.979 13.3386 32.096
3.50775 12.3899 33.8841
3.12975 11.2374 39.2339
4.70331 16.3061 47.9773
3.82877 9.69413 36.3662
4.67398 15.1241 36.9955
3.22947 8.81633 28.2349
3.50763 13.7125 47.8401
4.67889 17.2055 54.788
4.62304 11.6977 42.022
4.41046 10.6657 39.1023
4.07088 8.37779 27.7063
4.22392 15.9307 50.7853
5.10606 12.7481 31.3928
3.65548 15.3228 41.9394
3.08305 9.88003 35.1284
4.60422 15.5793 56.2522
4.92409 10.765 44.5094
5.81461 16.9891 41.8794
3.89247 11.3824 35.5178
3.63431 12.4915 43.889
4.75811 14.1602 36.0846
4.00008 15.3116 43.4009
3.33648 9.34706 41.5522
4.77167 11.0839 28.1921
3.1728 12.5112 41.7665
3.93205 11.4178 50.3337
5.21691 12.9166 26.7679
2.3966 8.2002 32.33
4.04919 17.3667 63.056
5.5762 12.6005 37.1919
3.80767 13.9873 49.6336
4.93565 16.3115 58.7269
5.90752 16.1315 45.3409
5.19468 17.1587 48.5288
5.73557 21.4798 50.4903
3.59715 11.7964 39.5418
4.05301 13.8122 50.1863
4.81994 16.2945 40.7046
3.23601 11.4965 38.4991
3.57363 15.8152 70.5428
6.10862 17.8772 52.2563
4.50397 10.1701 41.2587
4.60082 15.9259 51.0681
5.50094 12.0832 29.6842
3.09928 12.2026 46.5045
5.37993 18.2273 49.9018
3.77658 12.2982 36.5821
3.17323 8.73886 25.9995
3.04887 12.1709 42.2329
3.54663 11.2574 43.4952
4.50035 18.2414 53.6548
4.34667 15.0825 44.5042
3.50509 13.1293 57.1556
5.08611 15.8237 57.9218
6.43071 19.9848 54.0444
4.07381 14.5057 63.1044
5.4443 11.0025 56.7259
6.60099 12.7629 27.7947
6.06578 32.9499 107.334
8.13452 20.3811 55.6074
5.05367 19.7455 68.9784
6.24432 22.7767 82.2694
7.28864 18.5145 57.4635
5.96138 23.6548 81.1366
6.97378 23.9664 75.0335
5.90866 17.8492 51.5704
5.04811 17.34 47.4209
3.55493 11.6574 42.794
3.84369 13.0936 40.2274
3.52836 14.0075 55.6177
4.91815 12.9788 30.6558
2.26613 9.75285 45.9932
5.04818 15.3311 46.1979
3.89422 13.3588 43.0627
3.0351 8.65859 38.4455
3.53083 12.3101 34.6609
2.7061 9.47513 40.626
3.49931 12.5728 51.4755
4.33269 12.413 53.9812
5.65287 15.6099 51.8691
4.75962 15.5855 39.8495
3.32931 11.7086 41.4597
3.44185 10.7923 30.0138
3.15854 15.1693 51.512
3.83779 10.6796 35.9474
3.47657 15.5458 67.307
5.48667 10.9217 44.3255
4.81903 15.6501 51.6714
4.41274 11.3968 27.7739
3.11779 15.8264 67.7077
5.94043 16.2261 39.0077
3.29935 11.9078 41.4969
4.18354 14.4015 47.6042
3.87318 13.1896 47.9197
3.97575 9.60033 32.1289
3.425 15.8731 55.8813
4.38317 11.0128 35.7138
3.02451 9.99789 47.1519
4.78656 14.5329 47.1485
4.45144 15.7759 52.1801
3.86734 11.5376 45.715
3.70326 13.4308 60.359
5.14205 12.8131 33.8317
2.88553 8.35027 28.4679
2.37205 7.36712 25.7285
3.21868 16.6658 55.7107
4.62221 12.7036 45.9042
4.08674 13.8648 54.1803
4.96357 14.1645 45.6342
4.05958 14.2589 42.6819
3.22055 10.5456 33.8961
2.53815 12.6208 43.9402
3.97943 11.2994 33.5799
3.06547 12.354 48.8581
4.01429 13.6617 42.9989
3.67103 9.50641 43.9288
4.29533 13.2113 45.2593
4.43738 17.7047 53.8182
3.9706 11.9864 53.4377
4.77058 10.9142 34.078
3.71598 13.8301 39.8682
3.40753 15.4294 53.8073
4.3551 12.0328 33.0354
2.30656 7.00762 29.6386
3.1978 11.5643 44.3593
3.6017 11.5657 37.2421
3.66642 15.0184 43.7363
3.16357 11.2479 44.1068
3.64623 14.3759 58.5587
4.86337 11.4379 43.9735
4.86347 14.0274 28.6149
2.01868 10.8861 35.7957
2.19425 5.03731 32.7945
3.04738 8.76262 25.3223
2.57443 9.7271 27.8808
2.75425 13.6294 42.4605
3.15021 9.20508 33.7828
2.31797 8.86444 51.8012
4.59817 19.0451 57.7969
3.66133 6.80493 20.7047
2.24439 10.4164 34.3766
2.17562 7.23888 41.1036
3.98395 16.4518 63.1258
5.01431 17.405 54.4322
4.18297 13.2754 46.4232
4.22217 15.7091 40.1486
2.58512 10.0226 35.7318
2.60702 10.0181 35.4183
2.78344 7.96813 33.9639
3.27788 16.0289 47.8795
2.65989 6.89896 30.2335
2.86404 9.14703 30.4587
2.75148 12.1526 51.6492
3.69787 11.3567 39.1062
3.33194 13.4 52.7054
4.25929 12.0455 31.705
2.53594 13.1657 51.3967
3.71291 12.3731 51.2126
3.34828 8.02635 40.0277
3.35257 9.22615 35.8432
2.97702 12.9926 52.9735
3.85332 11.248 34.3979
3.01866 13.0607 46.0309
3.29877 11.216 29.0089
2.30226 9.11582 40.5385
3.44925 11.779 36.0654
2.20793 6.41221 39.5435
3.68332 10.7782 47.117
4.93557 17.6537 67.6794
5.44294 17.104 49.1803
3.42911 9.24098 27.5413
2.62511 12.1832 47.5815
3.61231 12.3393 42.4231
3.53641 11.9848 47.6145
3.72339 16.5671 43.6662
2.42342 7.54476 41.3735
3.63492 10.2907 34.6113
3.0296 9.78978 40.7505
3.44146 12.1721 26.4522
2.30167 10.5119 38.2862
2.63364 10.2586 50.4913
4.09398 16.0228 45.2989
2.92944 10.1497 42.9676
3.49937 11.7657 39.517
3.15677 13.7918 42.8876
2.46984 9.84559 43.4345
2.95678 8.33106 40.9289
3.29234 12.6533 52.0194
3.37944 10.1375 37.7953
3.09445 12.2092 42.1131
2.88525 9.74124 40.3858
3.37626 11.2792 39.9324
2.78468 10.0762 36.0468
2.87115 10.9954 38.4145
2.91615 11.805 38.8058
2.56581 7.92781 36.1825
3.36537 11.7044 41.7351
3.00813 7.47548 25.2605
2.15627 10.5753 42.0921
3.01848 10.1731 35.5986
2.69999 12.2639 46.699
3.15076 9.34621 44.4628
3.23949 9.60349 32.8086
3.09001 12.5419 54.5153
4.67525 11.9181 37.5145
2.68104 11.0199 44.8026
3.49888 13.4547 45.192
3.24292 10.8739 44.1149
3.19851 10.3286 23.3568
1.51989 13.3722 67.5369
4.85572 10.2021 40.3791
3.56622 15.3575 46.1188
2.97945 8.97056 39.8623
3.02333 9.06543 31.65
2.90948 11.0066 40.1896
2.69783 8.71266 45.2962
3.28996 9.69675 40.056
3.22896 12.1324 47.7773
3.87594 10.21 32.9447
3.11237 13.2593 47.2204
2.87154 8.00922 33.3541
2.7732 14.3611 59.0209
4.52274 11.448 26.1915
2.28255 11.1754 34.1429
2.68795 13.2197 48.8733
3.2801 9.90541 37.4448
2.80143 13.8716 43.6594
3.10445 12.6848 52.212
3.41068 12.4693 46.3566
3.15117 9.51894 38.3717
3.05183 13.4355 32.4398
1.89506 7.86823 51.5374
4.23917 19.6648 62.7284
3.71284 9.87509 50.0905
4.30648 18.3329 59.821
4.07199 9.12779 37.5663
3.28381 14.5579 45.4624
2.88655 11.5902 26.4962
1.55426 9.57158 54.7838
3.8589 14.9438 46.1934
2.84593 13.4173 71.7814
5.11486 15.0198 59.9883
4.17929 13.3503 42.0226
2.77703 12.6687 45.8151
2.65255 5.22619 17.9867
1.40786 4.75606 30.4787
2.50993 11.5106 48.9752
4.09954 20.2762 51.4683
3.25303 12.2338 47.5189
2.73208 10.6981 55.8802
3.89933 12.7271 48.2422
3.37879 9.42681 43.681
3.22787 11.6056 37.6259
3.39468 14.9212 61.459
3.60009 10.5721 31.7085
2.22315 11.3603 50.8998
3.57066 8.19539 47.4323
3.72407 13.9571 38.8668
3.02666 14.0807 46.0826
3.11969 9.99821 37.1689
2.58048 7.1341 39.9915
2.6729 10.9649 39.4411
2.96137 10.4223 46.5047
2.93196 10.1227 44.3701
3.40325 10.4208 33.6564
2.63617 11.0904 32.4445
2.19294 9.05661 37.3797
2.73035 11.0648 47.7728
3.6557 12.1427 42.2911
3.32644 13.0575 52.2433
3.33888 14.4732 50.879
3.45647 10.4976 29.5127
2.17393 8.26913 31.8886
2.10814 10.7357 50.9509
3.58825 10.9717 37.4743
2.91811 6.69749 29.0742
2.05117 8.09497 33.3789
2.14085 7.63229 31.3335
2.49008 11.9225 53.7769
3.89127 8.73124 31.7979
2.53021 11.6306 34.8469
2.31125 6.91413 27.5863
1.66197 5.17084 24.9719
1.88995 10.1658 51.9007
3.63566 11.9513 51.6758
4.35074 14.3033 44.1364
2.93159 10.5003 30.9313
2.56352 13.5921 56.1975
3.35601 10.5045 40.671
2.68851 10.3935 54.4846
3.79787 12.2613 52.0819
3.92773 14.4607 40.5944
2.95069 9.33288 41.8303
3.22394 14.6957 32.5848
2.28947 6.16947 37.3134
2.52423 7.39229 38.9219
3.20939 8.77835 24.6731
1.98484 9.28096 38.9997
3.07846 13.7741 34.0812
2.05419 10.8289 47.3373
3.14217 14.4683 48.3855
3.15245 11.7211 47.3992
3.23702 11.7199 39.0278
1.95357 8.07905 45.7744
2.96784 9.16378 32.1213
2.308 9.40627 43.1006
2.66964 8.78934 38.8683
2.80725 9.65186 36.915
2.67796 9.77818 46.0382
3.06999 10.5807 30.702
2.37588 12.1577 44.5496
2.75177 7.56704 31.8891
2.161 7.10051 41.4345
2.89649 9.7062 43.468
3.36398 15.2435 54.4045
3.58512 9.91914 37.6449
2.64394 10.2478 36.9047
2.77875 12.0211 41.5662
2.60181 11.1376 52.6336
3.6937 9.76652 35.3715
2.28813 12.235 62.4059
4.58372 12.7443 24.1156
1.79066 9.949 50.3298
3.24997 12.4677 55.9953
3.84305 13.8454 51.1922
3.45021 13.4752 49.3726
3.74731 13.0061 51.2513
3.57994 11.1978 39.5476
3.01657 12.2833 43.2563
2.5573 8.36686 33.9189
2.1063 12.8193 59.5173
3.9328 11.3296 39.8493
2.9075 8.88116 31.9627
2.49866 11.9526 47.85
3.45676 7.11124 34.9318
2.49071 11.1047 36.7317
2.84697 10.7215 36.6774
2.77607 10.6715 34.5007
2.42492 9.67027 47.673
2.85394 13.4628 33.1441
2.37044 12.412 56.668
3.28908 11.3306 33.8938
2.19693 6.7431 32.0257
2.56893 10.3851 47.0521
2.99406 12.9824 36.6952
1.8307 7.50646 52.4066
3.30308 12.6715 45.3435
2.61127 8.88262 48.6203
3.15936 8.764 36.5156
2.69368 11.5495 40.1448
2.38957 10.8719 41.3165
2.4316 9.05605 48.6222
2.96713 13.4029 50.2191
3.38023 9.46081 41.9492
3.08817 12.6579 34.7578
2.25228 9.98215 32.0166
2.02506 5.61953 40.9317
3.18362 9.76838 29.3822
2.01557 7.42349 45.4864
3.53676 12.5263 33.9326
2.3745 10.26 40.7414
2.70268 10.6501 51.0203
3.38844 11.8953 40.5294
2.73544 7.95611 35.5851
2.39964 10.6924 40.0232
2.36317 10.165 34.5033
2.53652 9.67056 26.275
1.80011 8.23205 56.3705
4.09219 12.3561 43.0364
2.64822 9.78401 34.2981
2.03411 12.3457 42.8637
2.77205 7.18442 30.0752
2.28441 9.37042 35.4182
2.48108 14.1413 56.7419
3.73174 12.778 59.9838
4.01298 14.4606 54.3945
3.51102 12.126 40.7
2.83552 13.6824 44.8633
3.03325 11.6562 60.5321
3.565 11.769 57.2307
3.46378 10.4401 38.0783
2.28306 14.1734 54.6386
3.46124 11.3166 51.8533
3.03142 13.1266 49.2595
3.29403 12.9245 42.9422
2.60534 9.06417 34.5293
2.32966 9.77216 41.7266
2.73328 10.7108 45.3222
2.74609 9.66131 39.8563
2.67127 9.20958 41.3691
2.57254 12.2213 56.3272
3.99336 16.3486 60.5228
3.88797 10.8061 35.8846
2.23571 10.8313 37.6216
2.48794 9.34951 33.3248
2.23985 7.28715 38.6153
2.5315 9.59645 39.8695
2.56629 12.9251 61.5653
4.25303 12.5474 42.4733
2.48872 11.7273 55.6775
3.74977 13.2375 38.5019
2.55434 8.65305 40.9853
2.61036 11.3671 32.4152
2.37333 8.87827 44.3979
2.58003 9.2532 40.1349
2.58888 12.6508 31.5831
2.13333 9.26856 38.0305
2.87596 9.50385 44.345
2.91722 6.69463 36.7093
2.65173 9.85886 26.3615
2.04734 8.51247 38.2504
2.40202 6.99663 31.3829
2.19611 11.3431 38.4464
2.4848 8.81826 53.3059
3.56706 10.2269 22.7585
1.68513 11.2051 36.7691
2.45194 8.70474 45.8994
2.83625 11.241 43.6625
2.50781 9.97293 30.8485
2.21613 9.04374 25.9268
1.90973 8.57463 40.6599
2.88704 9.4748 35.6896
2.52269 7.9445 39.6342
2.44105 11.1842 46.0383
3.16171 7.13554 37.6659
2.18058 15.618 50.8874
3.20583 9.30505 44.2236
3.02194 11.4617 36.9651
1.99842 13.3456 43.7584
2.76879 7.83974 50.5557
2.9336 9.18186 34.7138
2.1149 8.72295 32.564
2.04588 8.6105 35.6947
2.15215 6.59769 47.9406
3.28101 12.7983 34.4897
2.17034 9.836 39.3272
3.03631 14.3868 60.9317
3.91323 10.7302 35.5206
2.53429 8.3829 32.0449
2.07002 10.1401 32.7216
1.95945 9.13293 33.3155
2.24904 6.21513 35.4256
2.08807 7.16145 26.7081
1.72748 9.18271 35.3144
2.32272 10.9238 56.7354
3.77897 17.6593 83.5164
5.49666 0 0