# pn-170911/RbIIR-43-USNO-1280-1959.psd
# Power spectrum* (dif=0,1,2) (really just |FT|^2)
# NOTE: only the first half! (symmetric)
# weeks: 1280-1959
# 11 clock-days, 0 excluded
# PSD: 1441
522.236 0.436002 0.108127
13723.5 0.106019 0.0363489
60537.8 1.24909 0.0609499
13214.2 0.616489 0.0411565
19825.9 1.42569 0.0513399
3691.89 0.42688 0.0485182
9040.3 1.38157 0.0458445
4175.3 0.732928 0.0563762
25748.2 7.92804 0.0526926
1802.48 0.523901 0.0613882
22444.1 11.0359 0.0470961
1365.11 0.669756 0.0578141
2643.83 1.744 0.0425155
959.715 0.646859 0.0602595
28201.3 25.5918 0.0797096
1954.71 1.83825 0.0554907
21032.5 26.1531 0.0796917
682.068 1.06405 0.054268
2889.73 4.21634 0.0601509
645.7 0.956225 0.0493324
17269.3 32.8919 0.181792
1180.94 2.386 0.0506208
11461.7 27.2017 0.163393
369.662 0.833054 0.0393054
4363.82 11.6073 0.0970967
526.273 1.56986 0.0421364
12954.9 42.622 0.259464
747.258 2.36925 0.0589831
7288.6 27.6278 0.18702
782.935 2.90951 0.0520483
5393.55 22.8099 0.155952
548.748 2.40529 0.0594877
7730.46 37.6057 0.24584
614.118 3.09568 0.089671
3931.01 21.2216 0.109692
838.717 4.93841 0.0647946
4127.69 25.1929 0.233006
336.3 2.07235 0.055778
4764.57 31.6586 0.362495
436.253 2.93775 0.0639839
3127.26 23.3147 0.193197
606.073 4.55961 0.0421987
4098.82 33.6508 0.382111
599.568 5.49414 0.103514
2676.74 24.1891 0.364375
499.39 4.37549 0.069154
1614.83 15.6663 0.189726
362.248 4.0161 0.0388798
2846.03 29.793 0.463181
310.091 3.39774 0.0570231
1147.28 13.9245 0.247601
259.251 3.01961 0.0574105
1125.53 13.8978 0.214366
296.584 3.7792 0.0469723
1426.8 18.9875 0.424274
319.169 4.14207 0.0749568
1004.44 15.2014 0.290692
281.207 4.28104 0.126681
569.201 8.60859 0.131945
207.068 3.19703 0.0816237
1225.01 21.3323 0.473886
207.547 3.59484 0.157915
444.407 8.42715 0.227949
291.602 5.70509 0.178985
569.176 10.8276 0.186056
229.275 4.38865 0.0997573
645.085 13.8875 0.354143
211.048 4.51329 0.0912001
353.202 8.06033 0.219906
396.153 8.6735 0.214278
408.869 9.26303 0.184225
269.297 5.93824 0.15278
240.603 6.05208 0.212518
176.438 4.29377 0.133783
315.741 8.46622 0.322862
263.849 7.86004 0.231033
167.532 4.795 0.199344
187.963 5.48842 0.201175
335.27 9.75227 0.400165
177.158 5.3317 0.257992
211.053 6.84016 0.274667
161.863 5.16756 0.251123
192.753 6.0994 0.197562
148.337 5.12211 0.208478
268.489 9.04919 0.370703
163.498 5.52613 0.207265
187.581 6.44549 0.162532
165.512 5.8292 0.222655
247.932 8.50653 0.377994
166.677 6.3705 0.306498
176.27 6.42446 0.288364
137.007 5.36494 0.245101
194.97 6.62569 0.40799
106.285 4.06327 0.203867
132.514 5.6658 0.390282
74.4659 3.79116 0.210564
187.319 7.86356 0.507748
119.075 4.94455 0.272911
209.678 9.58608 0.562915
267.027 11.3504 0.496618
244.429 12.8476 0.789517
128.303 6.19451 0.399254
207.978 10.2061 0.576493
154.566 6.94852 0.351753
163.897 8.88149 0.604919
108.639 6.42094 0.362169
166.06 9.64201 0.724944
142.801 6.93077 0.446297
129.575 6.54831 0.46294
99.7884 5.81463 0.334986
179.243 10.1173 0.771948
170.132 10.0745 0.739822
219.206 12.6979 0.884812
168.962 9.18603 0.685387
80.7614 5.19213 0.489633
123.204 7.53141 0.413943
164.762 9.8493 0.763025
136.983 8.789 0.605746
137.029 9.0257 0.612202
178.374 10.7244 0.780474
158.243 11.1302 0.780011
202.108 12.9777 0.853537
78.0247 5.49542 0.482023
101.934 6.65147 0.663964
197.259 13.5358 1.00283
74.8321 5.51296 0.361891
91.9238 6.55668 0.457757
104.569 6.95948 0.537742
134.885 10.7462 0.978876
75.018 6.18169 0.591893
156.604 12.0688 1.08679
105.437 8.71562 0.59489
74.6307 7.15002 0.771312
140.037 12.4313 1.20153
115.096 9.40945 0.780171
81.4956 6.09074 0.43522
118.345 10.8065 1.11586
101.72 8.88351 0.821282
97.0563 9.09478 0.915667
130.712 10.6505 1.03405
105.893 10.4502 1.24584
96.1156 8.65294 0.736812
126.891 10.6459 1.22037
81.8371 6.96819 0.611165
73.3662 7.10753 0.791923
54.0071 5.52586 0.619563
125.226 11.6744 1.30088
129.382 13.3306 1.54862
58.2166 5.53084 0.532458
56.2841 5.94035 0.717447
78.4864 8.37546 1.09519
108.517 10.6969 1.09788
112.957 12.0924 1.35113
94.3742 11.3836 1.24582
86.551 9.77657 1.30357
88.7355 11.1039 1.49847
90.3112 9.23034 1.03435
138.174 16.2165 1.95825
90.325 9.73711 1.46169
60.3088 7.24038 0.796654
70.372 8.34333 1.19954
101.773 10.9172 1.25723
113.167 13.4004 1.65546
74.9143 9.09997 1.20502
103.712 12.7079 1.51538
50.1907 6.62987 0.994574
74.4758 10.4572 1.40152
66.5615 8.49516 1.07769
59.2845 8.65321 1.57017
70.7171 10.5695 1.4873
125.569 16.1334 1.86082
62.3224 7.16945 1.01664
87.5017 12.1794 1.70376
109.071 16.4482 2.66019
100.373 14.1031 1.85907
56.5486 8.60784 1.47623
86.6215 11.7095 1.62444
122.885 16.1471 2.27979
100.657 15.4364 2.27467
85.1669 14.1537 2.14573
72.3819 11.2863 1.75901
58.2778 9.46378 1.58006
137.714 20.9963 3.39278
83.0216 14.3778 2.47536
62.3502 8.45613 1.3431
93.1857 14.1103 2.21907
135.079 22.3777 3.96408
63.5461 7.86713 1.06166
56.9636 9.14728 1.65595
68.5369 12.4173 2.28501
59.5599 9.76241 1.62215
55.4585 9.22385 1.94901
128.499 20.0267 3.20849
141.115 24.3519 4.2965
53.2613 9.75215 2.03421
75.4541 13.2403 2.6767
70.3408 12.1397 2.05229
85.791 14.6109 2.44844
72.8696 13.7928 2.99948
53.5274 9.15355 1.39205
85.638 15.0997 3.03635
35.0762 6.76792 1.62523
115.532 21.3349 3.58105
104.128 20.3788 4.2115
79.6365 14.1461 3.05483
80.9456 15.1487 2.82946
57.5755 11.8514 2.64054
88.7027 17.9159 3.75736
78.1824 16.1805 3.43304
78.4199 16.1931 3.17963
110.457 20.8141 4.4895
85.5641 16.6475 3.55547
111.591 22.4781 4.32466
121.807 24.5338 4.94305
57.0792 13.0578 2.96334
88.7367 20.1658 4.80203
72.0292 12.9408 2.60131
43.9213 9.43829 2.15153
55.1529 13.0825 2.93865
40.6299 8.19923 2.04146
69.0481 16.6635 3.96581
116.697 25.2338 5.46227
98.8788 22.0411 5.21495
85.196 20.6764 5.40612
82.1887 18.3651 3.81024
83.8386 18.5972 4.48104
85.2841 20.2082 4.3384
78.863 21.4561 5.52437
69.5887 16.8423 4.1039
87.6485 22.35 5.70482
73.7046 19.9417 4.76782
162.486 39.6181 10.5058
108.707 25.7596 5.88783
243.845 69.8441 19.8905
165.423 38.5523 10.051
237.364 58.008 14.5738
208.125 52.3558 12.0934
170.146 44.743 12.711
281.449 73.1616 19.3625
188.856 45.7899 11.3706
126.05 34.1207 9.34512
147.779 36.6301 9.50818
82.2002 20.4997 5.0224
95.2639 24.3567 6.48834
68.2117 17.6337 4.42478
61.3145 17.938 5.31259
65.5424 19.3059 5.99645
97.8506 27.2725 7.84729
60.0062 18.4608 6.17166
116.948 31.4537 9.27104
30.3065 9.30983 3.26955
80.5543 19.5695 5.08395
75.615 23.577 7.42409
84.5894 20.53 5.03973
57.4775 19.2694 5.81763
56.7163 20.0532 6.65141
95.1316 30.3596 10.1043
83.6807 21.4247 5.17031
50.1192 16.677 5.63789
75.4781 23.8112 6.44064
48.9197 15.8783 5.16603
70.4606 23.4634 7.55098
58.2034 17.9217 5.75518
51.0394 17.5273 5.91019
41.7121 11.4812 3.23758
53.6104 17.6214 5.17999
62.6047 21.3487 7.65269
108.189 32.4583 9.29704
31.0427 10.6654 3.39247
48.4342 18.1663 6.58501
73.8077 26.8079 10.0171
113.772 37.1781 11.1744
45.8051 16.6216 6.65263
71.2686 22.0632 6.28545
65.1981 22.4391 7.16537
71.3142 23.8937 8.08382
62.3583 21.8859 8.50886
53.8544 17.4631 6.00509
28.7401 10.9174 3.86635
70.8767 26.8965 10.656
52.0121 18.3093 6.15677
52.0896 17.556 5.91601
48.2341 18.2038 6.51629
75.3908 31.8135 13.0567
34.5523 11.3193 4.58391
39.1248 13.1948 4.58627
35.1893 13.6665 5.35146
42.6683 14.4395 5.46155
153.258 58.6429 20.9453
67.6421 31.1009 13.3404
52.8268 17.7258 6.78756
47.1878 19.3841 8.22724
77.9177 27.2135 9.29345
42.4036 18.6145 7.94363
32.8172 13.239 6.21353
87.3305 37.0748 14.0611
46.5292 19.8361 8.59626
69.1485 26.0138 9.47029
29.9676 13.5271 6.45532
103.516 43.6975 17.5958
45.9574 20.222 9.61066
55.8042 21.4721 8.11136
31.1659 13.5772 6.40018
36.3459 16.2833 7.14548
50.1474 21.2697 8.47769
46.0003 19.4212 8.72556
76.801 37.0674 17.0004
55.9352 24.6577 10.3745
64.4344 29.9375 13.855
30.141 11.1948 4.81547
44.3692 22.3311 11.0006
72.8756 27.3197 9.9957
45.604 23.2663 11.6829
55.02 21.9321 9.49603
65.4342 28.6212 12.223
53.2638 25.2715 13.1549
88.3269 37.1391 14.3552
52.1278 22.1448 9.34627
35.9033 18.3723 10.0494
53.6646 23.3601 10.4864
73.0148 34.8508 15.7537
61.6141 30.157 13.4537
44.8687 20.4345 9.27945
29.4045 19.589 12.0719
47.3523 19.2501 8.39478
65.0504 30.9175 14.5987
29.2705 16.8937 10.1804
56.1116 26.9489 13.607
67.2711 33.5316 16.5938
76.0081 33.9191 14.6181
46.5419 24.3293 12.8563
37.9373 18.8514 9.6024
36.0333 18.8092 10.9971
49.2879 19.2175 7.48905
54.541 27.9322 13.3411
37.617 19.4938 10.2425
42.9728 23.4318 12.9321
38.3631 19.2198 10.0029
35.6346 18.551 10.5685
66.8095 34.8978 17.6376
35.1688 20 12.4214
40.4472 23.0592 14.2381
78.6917 35.8292 17.033
45.4255 21.9148 9.6768
27.4139 16.5038 8.80555
31.1006 15.3397 6.92783
35.9221 21.8197 13.5716
57.6619 29.4542 14.8397
48.4028 24.5516 13.4881
31.5426 15.688 8.20465
23.099 13.3718 7.73821
42.3649 26.1804 15.6457
63.8656 32.2214 15.6562
25.8776 15.3025 9.94808
54.7481 28.5554 14.8842
50.878 28.9659 15.7875
40.6688 24.5859 14.8407
44.9569 26.3158 15.1959
62.8455 37.7837 23.0607
47.545 25.425 14.7041
32.5445 21.1602 14.1705
40.8881 23.9781 14.0792
29.785 16.5642 9.95755
35.1661 22.7642 15.227
35.5064 20.0528 12.7517
40.5415 23.8323 13.9275
28.9678 17.9761 13.3483
37.4015 22.0432 13.8662
46.342 23.7082 11.3767
35.1469 21.713 12.8891
45.3361 33.4615 23.6605
44.1263 22.6775 12.054
18.7726 11.7857 9.07909
35.6893 23.2532 14.5437
34.81 21.5125 14.376
42.5821 25.0608 12.9913
31.5278 21.2249 15.912
57.6308 35.615 19.7543
44.1162 31.1267 19.7927
24.2471 18.3304 14.6197
28.7558 15.2652 9.59517
29.7551 21.0839 16.306
37.6694 23.7052 16.3439
45.1258 28.4211 19.6533
89.4405 51.8405 27.3033
48.1516 32.7993 20.5398
38.291 27.4167 20.4075
52.5779 35.0619 22.6176
42.8678 30.0979 22.005
42.9408 24.4134 14.0481
29.4936 18.3114 10.3428
35.5023 25.1871 16.5341
28.5095 22.5982 17.622
42.3545 26.9212 15.8097
24.0593 18.0084 13.4681
18.1817 14.9085 12.8998
37.885 26.1041 18.1763
46.8765 31.0957 20.578
27.5383 15.454 8.59633
23.6097 17.9336 14.0308
34.104 22.2162 14.2907
27.6006 19.4494 13.3788
30.2351 22.3264 15.3825
42.959 36.556 29.6391
42.0604 27.1458 18.5621
29.771 24.8806 25.0342
152.216 109.952 71.6514
49.0848 39.1148 32.0399
24.3677 12.7524 8.2766
31.8665 24.7553 19.068
20.4922 13.7137 11.0357
20.1335 11.8614 6.55733
31.7527 25.08 19.1381
48.7315 38.4987 27.9196
35.6058 25.9516 17.5937
27.7669 26.3585 23.6794
52.2246 36.7601 23.8613
23.2064 21.3888 17.0508
23.3415 19.5374 17.4863
36.0804 27.9059 20.4811
31.7806 24.4095 19.1445
20.3282 15.1736 11.774
27.4392 23.7116 20.2014
31.4074 24.5738 18.3333
26.1675 23.7967 21.585
28.0964 18.4302 11.8448
22.3732 18.3495 14.6811
40.1376 34.4216 26.3345
31.861 28.2126 24.2344
33.5139 30.2657 27.4707
39.3113 31.2674 26.4631
23.1193 14.1556 10.035
26.3515 22.4379 18.4081
43.3809 37.8661 30.7057
28.5663 22.9623 20.3632
29.1679 19.9387 11.9578
21.5496 20.9876 18.2164
29.9436 27.6888 24.8538
26.7327 20.7981 14.0884
17.1692 20.749 24.1289
36.8215 27.1515 20.1886
18.0502 15.0939 12.9904
20.4972 18.8504 15.7476
37.7768 36.4602 33.7401
26.1686 24.2465 22.7806
20.2065 18.3049 18.7709
23.7366 21.729 22.3769
26.9011 18.3201 14.7635
26.3749 20.6729 15.5004
33.6061 33.3898 31.0605
21.4467 14.8392 11.3286
18.2985 17.2558 16.7049
26.0683 23.1862 21.4107
26.5722 21.9686 19.1241
27.3267 22.6368 18.8581
32.2708 33.2162 33.2462
21.7388 14.9631 11.845
15.6584 17.1685 21.2714
48.1891 40.0634 28.7071
21.6511 22.1243 22.2596
23.565 21.2658 18.7284
20.3717 20.0618 20.5391
28.4341 25.7162 25.0103
26.9253 21.1189 16.0424
28.1375 29.4859 27.8579
22.0274 20.0872 19.5718
32.6522 29.4169 23.4731
25.0685 28.3892 31.3531
31.6069 28.3213 26.0684
25.8791 23.1372 22.8332
27.6685 23.039 18.6716
37.3583 35.679 32.3907
43.046 43.5986 40.9276
39.4717 41.1767 38.3556
25.2826 32.7195 42.2343
36.789 26.8991 21.1479
17.0533 14.7466 12.9651
18.1065 17.7132 15.4879
20.8007 26.3968 30.673
35.4291 37.3396 39.5031
37.984 38.2739 38.9117
20.3556 14.2889 11.2296
8.13627 8.85091 13.1644
30.5985 30.8355 28.6241
26.8884 27.1496 28.9807
33.2353 34.8576 35.956
31.5198 29.7239 29.1413
24.5289 24.0556 24.0908
26.5093 29.8173 32.3026
35.1612 34.3209 31.8798
28.0862 30.1955 32.9884
14.0848 13.0347 15.3066
31.9777 33.788 35.0336
21.9031 21.5094 24.9161
35.397 34.752 34.045
26.4996 27.4249 27.5274
20.8639 19.3032 18.5544
18.5433 19.7434 19.913
15.8391 17.8019 21.5658
16.8732 16.8331 22.2248
39.8007 37.5792 31.1948
25.216 30.3966 33.0147
22.1152 23.7119 27.7289
26.2817 25.6756 25.4557
32.6469 46.3293 61.5723
37.1138 28.114 20.6029
21.9747 22.506 24.7791
37.7164 36.9603 28.1308
23.665 31.1409 34.6518
27.8755 34.5665 38.192
19.5838 25.9414 34.9729
24.3366 25.1915 24.1738
13.6463 18.8752 28.8358
47.4544 50.3344 49.7032
28.3947 33.6873 38.3578
24.9013 27.8954 29.8741
19.406 22.894 25.9734
18.988 22.0972 23.6105
19.1988 23.7013 28.6968
19.2931 23.3977 29.9603
24.0185 25.4044 26.2457
19.3408 24.1347 27.9677
17.5541 19.3601 22.1422
24.6607 28.0578 31.0275
21.5143 22.1536 18.0817
12.5128 17.2819 20.2715
12.6522 18.7768 27.1442
34.7639 39.6375 37.155
22.9822 35.9695 44.2484
7.29965 15.0962 31.2088
23.6719 24.4547 31.2283
16.9626 17.2223 23.4991
34.1654 35.19 28.0546
19.7657 29.5274 33.8274
14.3251 23.4048 31.0855
16.7616 26.1392 37.7866
11.7982 16.0075 29.2251
16.6813 16.227 20.5282
13.4063 13.7344 18.6911
39.2873 44.1892 43.0295
18.6026 31.882 48.1296
23.9945 26.7848 31.3332
12.9464 19.1869 31.6415
24.0468 20.9668 18.1489
13.2435 21.6146 29.4212
16.0839 21.0035 30.7619
19.3944 23.6218 32.843
37.1588 47.7054 50.534
12.4713 18.5592 27.3781
15.8863 24.1708 37.5751
15.1724 18.821 28.4921
23.7918 27.2671 33.6133
23.0154 28.904 33.1608
11.3064 15.0156 23.9673
20.5566 22.6059 27.185
15.2525 14.6324 16.5999
27.8287 35.5305 38.2407
23.9535 41.6581 58.2055
20.5472 33.8274 58.915
19.9539 18.0945 28.9155
33.7568 38.9144 43.5008
21.3277 22.5962 24.6496
22.0656 26.424 26.4143
16.6282 32.4043 49.8295
14.5381 19.1063 32.3527
18.7731 20.4647 26.1611
26.7859 32.9903 32.6025
9.7601 17.1707 28.4156
15.0565 18.9951 26.9063
20.8305 30.8126 44.1479
25.6584 32.3499 41.4929
18.8046 23.9835 29.1401
15.4937 23.3587 33.77
17.5896 22.764 27.9679
12.2791 19.052 33.3003
25.5209 25.5726 26.0389
32.6982 53.4908 67.5468
11.3203 19.0568 36.7232
30.16 42.5307 53.871
20.3743 31.3505 50.2831
18.3995 22.2083 31.8601
14.6908 20.4855 34.3534
23.1687 33.6927 48.9958
28.2388 30.3708 29.5121
22.7525 41.5165 57.9015
8.39749 15.4382 32.4384
15.9995 24.2514 45.7066
28.0498 37.1475 51.1295
25.3027 36.4378 46.298
17.2035 28.114 46.8482
18.7445 20.6294 24.0868
14.6648 26.4935 42.53
11.5234 16.1307 28.0511
18.8085 24.8024 37.2881
17.7629 22.2948 29.8243
17.7337 24.4214 32.0414
16.504 26.4432 38.4741
11.1929 16.3988 27.9751
15.5188 21.0435 30.2689
13.6181 16.718 22.6104
8.41171 11.057 17.8425
8.96869 10.5326 12.5181
12.3978 24.3558 45.7005
20.3784 24.4444 32.5182
25.9083 40.784 59.4641
20.0654 24.7279 37.7398
25.7603 33.1881 40.7675
15.8226 20.4018 25.4515
13.9799 20.7934 31.494
21.6544 30.9402 43.0997
21.3462 33.8949 53.7844
22.1054 26.0361 28.4501
13.1048 24.7542 40.5567
12.5666 16.2923 22.4073
11.1398 19.4516 32.2662
17.5916 26.5958 36.1017
17.2018 26.0523 31.0009
10.2384 21.2174 33.3179
10.4438 22.0684 40.0697
16.6581 30.7137 52.3768
15.9449 27.0083 47.5298
10.235 19.7721 41.2612
15.0631 23.1227 41.7883
16.0756 22.8387 40.9296
25.8251 39.1719 59.1186
20.1997 38.5663 72.3513
19.1368 22.3886 37.6736
14.2669 14.769 16.9684
15.0262 22.0975 33.1678
17.2146 29.8582 48.114
18.0596 25.4939 33.4676
15.3322 36.0125 66.6419
13.3921 18.2206 37.4511
18.1468 27.403 50.0007
22.8639 25.1794 25.9965
23.3533 42.4836 67.097
19.4959 26.4042 32.4109
9.60977 19.9298 35.6351
10.377 21.8596 48.2541
17.7739 30.1528 58.1725
15.5276 16.5277 25.906
14.9746 21.543 32.9563
16.4539 24.8618 38.2342
18.2623 33.2858 54.9547
20.8219 33.9233 57.4031
19.4451 27.6194 46.4582
21.4803 29.1045 36.4377
12.5873 19.8106 27.3092
10.4781 21.1305 40.4769
15.6439 25.0067 39.4504
17.1274 34.2869 65.0957
18.4504 27.0935 47.165
15.8266 22.4471 34.4448
14.285 22.1813 34.8543
17.8688 30.0649 48.7204
16.7466 25.7306 35.6475
16.0987 31.0706 53.8512
20.3738 40.0005 67.959
22.6016 43.4488 71.6272
10.3011 11.683 20.1459
14.5874 26.311 45.6023
14.6306 25.985 41.623
14.3708 30.1162 59.6441
18.5373 28.3311 43.2603
22.6017 45.1235 66.0876
10.9079 22.9427 48.3533
14.2125 27.5745 55.408
12.1244 16.0293 22.6432
11.0397 23.1835 42.8087
14.9145 32.1914 65.0154
20.509 33.8671 46.2562
8.33798 26.451 69.8597
21.4244 35.109 69.1696
25.1078 42.3369 73.2518
19.4432 29.0323 44.2439
14.0535 28.7205 65.3367
32.2688 53.6346 68.8387
8.72648 17.8403 36.5247
17.1629 40.5979 80.8279
14.8459 22.9959 47.817
21.1722 39.87 65.515
15.9752 29.7279 55.4304
15.2363 24.6152 44.1775
14.3252 30.994 70.6042
22.4413 34.9502 53.4803
18.1707 34.1932 56.8843
8.70258 19.9956 53.4883
16.8392 21.0006 35.2305
14.792 25.6734 42.4376
9.94831 16.6242 31.061
14.6781 27.7154 50.686
15.4977 23.3627 29.4879
7.86294 19.0604 33.4584
8.83689 23.09 53.8771
10.6451 19.4782 46.1595
15.9692 27.869 54.2393
17.7853 35.3562 68.7276
17.7115 35.036 74.1938
18.929 30.4693 52.6328
16.7081 37.7916 79.2636
19.1436 32.1241 63.2222
21.6638 38.8708 61.821
11.0659 16.0848 25.7477
14.0099 34.3822 66.3113
12.6074 26.1629 55.5979
13.6482 23.5727 44.7962
9.81989 19.6835 49.9082
14.5397 20.8534 36.7306
15.6818 28.3757 45.9191
16.9296 37.0613 66.618
16.8291 32.9575 58.7358
14.9426 28.6136 51.5861
16.4906 33.4921 62.9555
19.7377 40.5682 66.7286
8.94496 11.8657 16.6893
13.3516 36.9236 72.2483
15.483 36.2575 73.8421
12.4181 23.0444 47.7784
10.704 20.9119 49.2661
13.5016 23.4757 44.1931
13.1793 23.1326 37.5787
12.653 30.1107 64.8004
16.8443 31.7924 47.8296
6.44666 13.1866 27.3203
8.84453 24.5376 53.7884
10.8407 19.435 35.0614
5.45841 12.5699 30.216
11.0105 30.207 77.9523
19.1371 37.1382 73.2847
12.6177 15.9231 22.9963
4.81465 12.663 43.8431
20.2571 39.1695 66.5975
8.09741 15.0824 34.4511
10.9405 22.4266 47.2896
12.805 29.0354 59.2626
12.7525 24.0731 44.2342
8.33219 18.0058 42.9715
11.3069 20.0846 44.8601
12.7123 24.972 49.5568
12.8072 18.3308 23.7234
12.4364 30.2948 48.7762
10.3928 26.7003 49.0227
10.3765 31.975 76.4462
7.77965 14.1757 45.7572
13.5831 21.241 32.7387
8.02784 17.7148 37.7751
14.8368 34.2411 60.5992
8.43261 20.2012 52.1622
15.5388 33.5161 64.6477
11.5772 30.3507 81.3837
16.014 25.4513 47.8231
11.5986 25.3143 56.1331
13.4381 22.1617 33.5562
7.0844 19.3228 41.0584
9.87982 26.588 65.7033
11.8568 18.4736 44.1011
17.6642 35.0795 50.6151
9.29481 25.316 54.6822
18.7456 50.3005 97.8103
9.41883 19.8492 39.6115
7.48154 30.5199 101.065
20.2075 33.5212 62.4579
9.45473 17.361 43.3586
9.82573 19.3581 47.3472
16.2704 39.8933 77.5888
11.1755 22.7998 56.5029
11.5484 22.8806 44.64
7.83241 27.309 107.321
28.9552 46.377 70.0118
18.6131 42.4409 72.7141
13.5356 34.2544 70.5378
11.0552 22.4288 52.1739
11.7696 27.6989 67.4091
14.9198 28.5428 50.089
11.8762 26.5069 44.331
8.00582 23.1988 71.0149
20.9817 43.7216 67.5525
13.961 41.2687 89.999
11.4613 21.3249 48.3629
13.3165 26.621 31.5421
7.4355 28.7346 70.3399
17.0836 46.8253 98.6236
9.5033 21.6702 67.108
18.6832 39.4035 70.3256
14.938 45.1677 110.499
20.6688 47.091 85.5336
7.50956 16.4498 48.4481
12.1766 25.9814 38.1979
5.41444 24.2784 73.7641
13.2776 30.1777 74.5178
15.1365 30.9711 60.437
18.2845 56.7869 119.967
11.9151 26.9556 60.9424
8.70692 20.5269 35.7504
7.36906 32.0478 81.7805
8.55341 23.1127 57.782
5.68453 23.2009 80.0623
10.9954 25.2899 76.8428
13.4841 31.6015 74.2194
8.9939 16.2733 40.4788
10.938 33.6162 85.4037
11.8673 29.4861 79.858
11.4425 26.0431 71.5916
14.6432 34.5785 67.5254
8.77111 29.7785 93.5239
16.8216 36.7189 68.8477
10.2506 43.7097 137.085
15.3685 29.2584 90.7898
10.9624 19.6749 82.3818
20.2332 29.9284 35.8754
13.3834 51.801 138.091
14.574 24.4154 47.7908
10.673 41.1504 118.122
13.0221 30.5593 106.077
14.7917 25.5844 82.4486
15.6066 26.5579 72.729
19.3128 41.7111 88.8639
13.9355 26.9815 57.2218
18.0451 54.9304 124.04
12.5432 23.1868 59.8556
16.2347 54.9624 151.659
18.5774 29.2136 77.4516
29.7543 90.2239 183.529
13.3835 30.1867 96.0755
14.9138 37.2836 125.577
25.024 49.855 98.311
24.368 77.7951 185.078
26.5357 73.195 162.521
10.3048 29.9012 135.601
21.5939 41.971 110.133
16.7199 31.7972 78.5177
14.5145 37.6168 113.37
16.4917 23.9577 59.7384
19.5213 48.2291 81.4325
9.56944 33.4251 115.126
19.6175 40.1742 73.3499
8.98655 27.8841 96.3823
20.9287 53.5008 112.428
11.7985 25.3256 67.9541
16.1945 56.7172 137.734
11.6233 32.4501 116.465
11.9918 19.1501 78.1288
16.0093 31.3999 74.2631
12.5651 25.7083 50.2267
9.60157 28.0707 67.5114
10.1763 39.1191 115.746
12.1653 35.2158 133.812
16.3908 27.6104 82.2255
10.693 12.5307 56.5214
17.1275 33.3543 64.6062
11.0084 21.1079 47.8203
12.8873 39.2657 89.4513
7.66812 16.3414 75.4892
15.944 33.4327 85.821
15.3107 29.2896 68.1782
17.7903 39.6236 53.9301
5.89615 16.7094 33.757
7.5031 32.1804 101.621
14.0022 26.9646 52.5852
8.89845 25.4488 58.5547
9.13993 28.5686 69.0823
8.91139 33.5655 110.029
11.0464 20.774 67.6041
10.7118 27.7868 113.352
22.7885 47.2534 78.2508
9.34021 23.4346 60.7521
8.45047 23.4395 71.8378
13.0161 37.3621 101.254
11.6116 23.1575 76.0224
11.9476 17.5127 34.5164
9.72291 25.0919 47.9706
6.76437 17.5654 38.037
6.59547 21.026 54.6125
5.9322 16.2487 57.4769
8.58156 18.2055 54.3538
9.46497 19.0422 35.4027
6.72779 18.7369 43.9612
6.92377 18.0656 40.6115
6.06083 18.2362 52.2956
6.17564 13.83 57.627
14.7907 32.1231 44.5274
6.65646 24.4719 58.2837
6.85351 20.0541 48.3211
7.79382 28.5968 79.72
8.05832 21.2031 58.444
6.47231 17.5353 66.58
13.6391 39.1707 83.1641
5.5072 14.2389 57.5238
9.47462 30.0657 82.9065
7.62511 17.4926 60.2461
6.85557 19.4557 90.5218
15.5839 33.4684 77.7981
11.3757 22.3249 31.3817
3.35341 12.5386 37.8978
6.58959 24.2784 72.7102
7.76143 19.5743 68.0304
9.18769 16.574 43.7162
8.23462 24.8222 84.0712
11.7728 22.3161 45.0136
6.72834 17.6395 48.5206
8.40971 22.8945 42.42
4.39383 15.9916 53.5936
8.83952 26.4634 64.7388
5.79025 16.4211 51.6588
6.0278 15.8581 58.0021
8.25918 21.6702 66.2579
8.63101 17.7673 39.7052
9.81382 33.922 68.4673
4.55423 14.9633 47.9693
4.33971 13.4135 62.2943
9.23206 22.6031 61.3682
8.21692 18.2272 58.6292
11.338 28.5247 39.589
4.12451 20.6059 59.354
5.14865 19.1642 81.2839
10.484 19.0476 38.0761
6.46916 25.9904 68.3106
7.89998 29.4554 95.2101
8.28959 15.8936 60.8337
9.69762 20.7473 49.7212
9.28214 33.9145 100.608
11.1137 20.2167 41.382
4.80378 15.4524 56.1612
9.6222 30.9786 90.3343
12.1495 36.4343 108.65
11.0873 20.7808 55.5937
7.93832 23.9964 87.8346
14.8419 39.3082 68.1475
5.02828 16.6135 55.2479
5.81401 17.0565 55.4227
7.72403 27.1399 85.9345
7.99486 18.5345 67.4197
8.42425 19.5744 73.2876
9.93315 23.3776 60.4101
9.22507 26.7636 66.745
8.08002 29.3917 88.0534
8.12193 20.5971 64.6269
6.179 16.9632 91.2642
15.1425 35.2013 68.3002
8.19071 27.9104 72.1604
7.35533 22.1443 57.2269
6.51133 25.9665 94.0858
9.90053 27.5442 82.6579
7.16698 13.374 60.314
10.0832 23.5093 47.1895
5.59611 15.8089 52.5939
9.43778 35.608 82.437
5.29094 13.759 52.9298
7.5028 24.3543 71.8997
5.27948 15.2454 96.8045
16.9992 40.262 66.0598
6.63285 20.658 59.3491
8.09189 26.6404 63.9277
5.67653 14.5232 39.7917
6.97649 37.7637 139.405
12.2657 21.2111 87.3775
14.7419 40.484 53.3866
3.80097 19.2342 78.664
9.25723 23.5942 55.2097
4.77562 12.5771 67.2003
12.9451 41.5708 101.385
8.30552 16.8213 61.9217
11.35 34.0378 52.2874
2.5197 11.2202 56.1753
9.18626 32.7761 93.7482
8.77861 20.1108 48.8235
4.80075 16.5837 65.1865
6.96927 14.4396 60.1597
11.6505 33.3313 63.1602
5.40297 20.6601 51.2634
3.89573 14.1533 58.9468
5.96715 16.8723 66.7812
8.6432 21.4466 65.0994
8.11521 24.0401 73.1393
13.4648 47.7616 91.1482
4.22564 13.6627 49.5903
4.25549 16.9219 65.388
5.72573 16.7914 81.1159
10.41 27.0846 87.8514
9.88984 23.0365 46.5586
7.4134 25.4368 44.5483
4.2183 16.9165 41.0901
5.41127 36.0765 127.283
8.91943 24.0454 104.121
10.2017 15.8205 53.6332
7.88282 17.103 36.5958
7.26234 32.5523 68.5579
5.05091 13.0769 41.267
6.82722 33.1954 79.3168
3.07086 8.04276 56.4656
6.51939 17.7703 50.4799
5.59326 15.8201 71.3382
10.4623 37.0508 103.287
9.31884 20.1346 46.0236
6.5937 31.5101 83.4768
4.82638 14.3023 80.5926
9.18149 28.6604 82.3613
7.92129 20.124 74.076
9.28287 32.8836 96.445
7.97468 13.5316 49.163
8.04294 25.6472 62.7967
7.37929 26.0825 91.5159
9.64164 25.6212 49.3703
5.48549 17.1348 33.9986
5.0393 26.7295 78.4665
6.10831 14.8485 26.1038
3.64258 23.9456 74.6516
5.23771 17.7419 101.012
12.6293 28.7239 30.8039
2.07741 17.2544 74.599
8.49605 30.4128 79.9968
4.31262 5.91213 38.6983
5.8273 23.8959 78.2419
5.81239 12.2182 67.0106
9.14679 20.5566 25.0514
3.33521 18.3623 54.0354
6.55997 28.2868 84.9543
6.69183 20.7118 47.3869
3.77004 15.936 65.9772
6.59885 26.1715 84.0958
6.94996 21.8149 54.749
3.44827 13.3478 67.8557
7.69375 23.7396 66.9977
5.43091 18.9351 75.7267
6.42746 14.2968 50.9187
4.20514 18.416 114.567
13.0111 30.6383 58.7584
4.55499 19.501 82.9514
9.06695 28.3231 93.7258
8.72354 17.1072 27.981
3.98108 19.2106 49.06
4.13175 20.5645 69.6779
5.10361 16.4229 55.1179
4.33675 18.4739 85.2241
8.279 19.8122 47.8207
4.11353 15.5713 72.9404
7.53466 22.7235 64.3263
3.97093 14.8419 86.7701
8.59279 20.3855 69.1775
7.10604 28.7003 134.187
12.7662 22.9554 37.7994
4.83584 22.5442 94.9026
8.99429 21.927 72.4241
8.15266 24.0478 64.0528
6.38273 20.2387 45.6386
5.15423 23.7041 81.449
7.40427 23.2227 56.3042
5.02164 24.7045 80.0656
5.38162 14.731 78.8032
8.77761 25.3987 63.6188
3.94477 10.1458 57.0953
8.43147 27.9255 62.9258
5.08832 17.5945 55.4686
5.23597 19.7119 47.9464
3.01657 17.234 96.7092
10.0414 33.3541 126.193
10.2345 22.2413 60.3132
6.7476 22.7546 50.7089
3.70225 13.1665 68.719
6.4949 14.3131 38.9188
4.31753 11.9869 47.6798
6.97481 28.402 68.7445
5.45598 18.0261 64.2445
6.43137 20.7024 66.7064
6.22705 19.6275 66.018
6.25455 16.1809 33.5551
3.02212 12.9355 57.0186
6.11718 18.745 47.3019
3.25259 16.2877 84.6791
7.66545 13.6106 31.8021
3.25059 13.2748 59.6594
6.91485 26.0807 64.4719
3.93278 6.94539 27.46
4.62668 23.8837 77.5499
5.38498 17.6306 73.4222
7.9735 26.7463 54.0547
3.30166 9.13054 31.3723
2.49509 12.5182 74.9581
7.6031 22.3721 62.8162
6.09288 21.287 66.9799
5.12713 15.1493 80.6961
9.93675 40.0856 77.0963
3.93127 14.6121 51.2034
4.28255 22.3261 96.5242
7.0044 19.7469 86.5488
8.47071 18.2921 51.4404
6.07124 22.675 33.6459
3.1156 26.3522 78.3292
3.74389 9.28902 56.4696
6.40595 26.4056 83.3142
4.89486 10.479 42.1893
3.99416 14.2644 57.6352
5.75681 20.2607 52.1312
4.97076 20.6793 44.1173
2.15132 9.34345 71.1348
7.96624 28.9754 72.1331
3.61854 11.2441 81.59
7.9172 22.1265 54.7049
4.80081 22.2245 107.721
11.2347 39.6707 77.5778
3.68776 15.857 94.5115
7.64076 14.8226 39.4426
5.50728 26.5836 74.1581
5.27144 18.6985 51.6643
3.05049 7.63241 32.6343
3.29997 15.9861 69.3165
5.9529 19.2343 54.559
4.0656 13.557 58.295
6.23255 24.3872 51.0842
3.17495 15.3077 64.5539
4.67487 11.691 48.1178
4.58996 16.8788 72.955
6.31152 15.7868 41.119
3.78213 16.6531 47.6486
3.34875 13.3512 30.6515
2.28702 17.4585 74.2864
4.64651 13.6501 63.3131
5.16392 15.2051 60.009
5.48248 16.1339 38.5728
3.61159 19.7254 70.5374
4.65898 14.6068 39.3192
3.0185 12.511 54.3305
4.28159 18.1633 75.7469
5.13959 10.8819 45.7327
4.93302 20.1567 68.1038
5.77243 20.8723 71.6672
5.80051 19.6992 60.1431
5.39716 25.6942 84.5341
6.31326 25.0294 79.689
5.72366 23.7164 83.3159
4.72538 13.0347 91.9755
8.00031 22.8292 52.6712
3.56207 12.627 56.9326
4.35251 14.5016 60.0695
4.97698 13.7797 45.2972
4.26094 15.1511 67.3145
6.4681 27.0065 67.1615
3.38249 8.41467 48.7281
5.00547 18.0035 59.1921
5.45327 21.7482 51.4541
2.96752 15.6075 61.2874
3.58859 14.0325 72.7841
5.8354 21.2479 104.239
7.2078 14.4202 42.0608
3.80698 16.1617 83.0318
8.0024 27.0719 62.9557
4.05637 18.828 81.4215
5.57192 18.5794 73.7085
5.32103 16.8873 77.1681
6.8447 21.8791 90.7029
7.42298 21.9941 84.7649
9.28621 43.7669 156.94
11.529 37.5429 75.0567
5.6126 29.6256 88.8055
5.07563 26.6305 110.909
6.15917 5.96672 54.9281
5.19646 16.1731 81.9414
8.53466 35.3553 71.9267
4.38756 21.8578 92.1088
6.57248 21.4356 66.6095
4.27669 19.0454 101.412
7.2396 14.7574 51.6855
3.85753 10.7595 62.2558
5.36454 17.8442 72.6415
6.23045 21.423 73.2012
6.33186 26.7805 99.5442
7.35987 19.3773 58.7608
5.13024 20.3747 45.7167
3.683 24.2516 100.346
7.0138 20.5378 43.9809
3.07844 14.7108 48.7339
3.19685 16.7506 94.3961
6.6382 15.4355 65.6993
4.73723 12.7972 28.5121
2.13436 9.34929 68.94
6.65978 21.8472 33.229
2.40558 17.5927 49.9932
2.77079 10.5737 37.8398
2.36789 11.3178 70.1169
5.28561 14.5367 36.111
2.42945 9.96154 53.9803
5.47441 31.9102 109.25
6.45184 20.4719 80.4541
5.36001 10.8401 30.4557
2.44233 16.6321 92.3771
7.51394 23.8498 78.488
5.167 17.2466 75.1658
5.53502 13.3117 65.0379
5.65715 20.2528 36.8336
2.75757 15.8028 45.1202
2.46842 8.64516 42.5747
3.39978 18.0515 82.6743
5.91683 15.9438 58.9262
4.55469 13.9139 27.2861
2.19502 15.5866 55.1628
3.29477 9.6881 56.5485
4.08616 12.6774 38.1909
3.32685 18.8633 68.2859
4.57496 16.1012 49.7674
3.12309 11.9687 44.201
2.95444 9.95315 32.1852
2.15695 13.6367 77.3366
5.69167 17.1655 41.035
2.44893 15.5025 78.6122
4.64727 13.3265 76.7241
5.44947 15.0305 63.1384
4.48716 18.4573 60.7325
3.55036 9.27283 63.5047
4.4014 11.5237 49.5133
3.92756 9.1503 49.2299
4.26672 19.8996 60.468
4.18034 18.0141 83.6532
6.23971 27.0858 99.2901
5.68259 10.4615 56.6212
4.49058 14.1906 52.5776
3.93512 13.0032 67.3308
5.6358 20.0727 46.8504
2.94606 9.77168 47.7635
4.15096 18.4358 55.2248
3.94438 19.2924 69.6683
4.14237 12.3343 70.6035
5.90113 25.1248 98.5091
6.67173 16.9494 40.6317
2.66199 11.9336 43.6153
3.14104 18.9902 96.693
7.55683 25.1702 68.7376
4.13825 13.1595 89.3229
6.90557 22.4137 54.3979
3.28373 13.6989 64.104
4.07385 8.77668 53.4888
4.38047 20.3766 107.086
8.71836 32.837 86.6763
4.82269 15.57 76.3415
5.4896 17.3846 69.6414
5.03001 15.2849 46.2713
3.82148 21.5465 84.3656
6.26629 21.9909 61.4428
4.18102 18.4608 45.6957
2.64913 10.477 44.5218
3.0746 13.27 50.9449
3.5412 13.2753 29.1272
1.92688 9.17283 39.7223
2.97194 19.783 70.0843
4.15113 13.0008 66.2599
4.25029 11.7316 49.8447
3.77199 13.9513 58.2223
4.54844 21.6387 83.4091
5.80491 26.5286 144.266
10.4962 25.0312 26.5704
2.07295 19.5209 81.7928
4.87901 9.13097 29.2173
2.18978 11.6415 72.5172
5.55392 23.4294 56.4038
3.13407 9.2706 50.6692
3.81076 14.3121 45.023
3.35347 14.4947 43.4978
2.44716 8.27419 37.9235
2.76437 12.8637 50.1447
3.52277 12.2587 37.7267
2.77923 17.2355 60.3786
3.90151 22.9918 91.6531
5.63592 16.5921 73.8772
4.51905 10.3201 44.2914
3.19021 12.7205 40.9953
3.10552 14.9844 44.1298
3.04477 11.948 34.2399
2.20789 13.9133 53.4322
2.88286 13.0178 103.601
7.16865 15.271 42.2664
2.74952 8.49661 54.123
4.12947 15.0074 31.6741
2.21794 13.381 60.5258
4.16164 16.8613 59.9775
3.91012 12.2597 56.2175
3.90916 12.6332 53.7871
4.03768 12.0834 38.8831
3.18564 22.6484 44.7144
2.78317 14.7509 46.6169
2.87741 16.4855 49.4841
2.43987 11.6175 89.4058
5.78414 13.4017 43.8475
2.69541 11.5632 76.1134
4.94329 12.5859 23.799
1.56004 9.03669 53.6803
3.50495 12.4926 56.7141
3.93205 14.4539 78.6379
5.58155 21.4803 74.4639
4.83779 12.0739 42.0215
3.10596 17.7695 48.7132
2.92836 4.60946 33.2906
2.79889 16.8342 53.3866
3.41834 11.5289 57.1763
4.15985 18.2134 53.6084
3.43676 17.7697 65.9788
4.31981 17.7679 52.9487
3.49777 18.0488 71.7291
4.2447 13.8496 66.1552
4.3727 20.9823 78.5788
4.81969 14.3676 65.2438
4.52543 26.8198 124.518
7.73219 17.899 82.9712
5.69301 22.0448 87.1914
6.02116 18.1046 44.2167
2.82378 19.4328 105.155
7.32069 19.349 51.6748
3.6244 21.6553 74.9425
4.53776 18.6093 96.1988
6.38752 21.6301 68.2238
4.56467 17.8557 90.6426
6.30734 22.2095 60.7213
4.10542 15.7913 54.5397
3.30459 10.5792 53.1494
3.91327 19.6777 98.8556
6.99807 29.3897 85.4859
5.2565 11.315 32.7664
2.47895 17.1807 81.7181
5.27688 19.9147 45.0068
2.70482 15.3142 56.8115
3.55618 16.8882 84.4381
5.37706 18.0832 81.7425
5.42626 14.471 41.5999
2.93713 13.5346 58.4173
3.91768 19.6793 59.0111
3.66018 14.8402 60.6492
3.5212 10.9794 43.0479
3.20974 18.0169 81.9812
5.04321 13.5687 39.9951
2.69094 14.266 72.1927
4.61016 19.3751 68.6068
4.42697 16.9149 61.5681
3.67228 11.5655 56.6373
3.75786 11.2327 58.1286
3.85219 11.5083 34.9827
2.30519 10.2178 55.3576
3.57157 14.9068 69.9521
4.90128 14.5397 29.9043
2.01424 9.52787 34.569
2.41595 9.17419 46.3818
3.44333 18.0281 44.58
2.9549 14.394 44.4159
2.84006 13.4883 56.527
3.58682 12.6218 53.4024
3.54261 13.7536 51.2263
3.61451 26.9663 144.164
9.22876 25.8046 84.8124
5.53913 20.0789 47.4296
3.0513 15.5298 61.3607
3.64899 10.8025 60.3066
4.11797 12.4708 52.4097
3.5974 19.5301 49.6781
2.89388 7.9156 42.0964
2.90476 11.9896 49.8436
3.20414 15.861 87.2027
6.05459 16.4775 64.0668
4.4162 21.8294 99.7477
6.59078 24.7916 57.217
3.34114 11.6681 50.2145
3.31801 14.5595 45.7691
2.6726 14.6723 71.8955
4.50818 11.3801 57.9763
3.83519 20.2949 99.4115
6.75096 25.4782 37.8145
1.95141 9.83523 60.7004
4.13721 12.6721 60.7371
3.82299 17.553 98.7892
6.88648 24.9707 95.7867
6.50153 31.9436 99.8434
6.35285 15.7313 38.9442
2.56611 15.8451 63.063
4.09432 12.4782 79.6278
5.67842 28.4358 101.676
6.54998 17.5286 64.331
4.39967 27.4621 144.165
8.82421 23.4603 66.2428
4.46551 14.7383 42.5101
2.978 17.6661 49.7244
3.18124 17.7419 61.3533
3.58484 12.1968 55.1444
3.46061 21.8323 76.5054
4.39799 11.7214 35.0953
2.35783 13.8941 54.9293
3.41568 14.5153 73.3672
4.51295 18.9352 69.883
4.11237 16.4117 109.739
6.67981 17.738 43.6138
2.9853 14.1752 52.342
2.94157 14.9814 59.6028
3.70068 9.54494 50.7166
3.19157 21.7755 85.5022
5.49889 9.96984 60.1003
3.91406 20.248 55.4991
3.3891 20.5941 80.1747
4.91185 18.5285 54.5011
3.15754 16.9347 84.2679
4.96195 17.6878 55.2244
3.42506 9.00346 53.2747
3.58902 15.5473 69.8929
4.51092 10.3495 51.4939
3.02289 14.3597 67.2304
4.48032 10.6763 45.5566
2.70411 23.2858 57.1562
3.81581 23.1525 73.7607
4.40969 9.28217 62.77
4.40853 14.5776 74.6078
4.61188 21.4811 46.121
2.93337 13.7306 75.3954
4.88585 20.5689 55.2573
3.49618 18.761 69.3588
4.11117 12.659 50.1396
3.51814 6.3881 42.6367
2.78391 15.6641 77.93
5.29724 16.6205 53.2443
3.57365 17.1862 70.6047
4.55484 20.0525 81.3003
5.12184 16.8188 30.2828
1.88864 14.2497 53.2615
3.35679 10.8588 60.6357
3.70171 21.0579 71.7428
4.4769 15.2251 57.5173
3.47701 18.8744 69.3254
4.43442 17.0444 62.6946
3.87824 13.1312 68.0505
4.58729 20.4747 86.5862
5.39325 14.0431 38.7175
2.28248 14.3744 46.303
2.87062 7.81968 33.9855
2.03399 11.5162 81.5052
4.87533 19.3737 53.6898
3.2426 18.9608 46.22
2.89666 14.2776 44.0891
2.86645 13.9691 50.735
3.53689 16.0821 50.4121
2.9185 11.5389 85.9686
5.69684 24.3026 84.2522
5.33195 12.2138 25.3702
1.77696 13.9634 81.6798
5.13326 16.3804 76.5751
5.26277 11.3688 33.9426
2.25504 12.6614 35.6695
2.37995 14.4306 109.402
6.28595 0 0