# pn-170911/RbIIR-51-RbIIR-1280-1959.psd
# Power spectrum* (dif=0,1,2) (really just |FT|^2)
# NOTE: only the first half! (symmetric)
# weeks: 1280-1959
# 4504 clock-days, 231 excluded
# PSD: 1441
393.166 0.127903 0.042315
29619.2 0.674618 0.0370267
115341 2.31851 0.038745
32820.9 1.30071 0.0395236
67167.9 5.11693 0.0387777
11976.7 1.24418 0.03808
10233.3 1.58391 0.0370249
6574.05 1.36563 0.0375957
6759.46 1.89584 0.0377537
4312.91 1.48336 0.039629
3737.5 1.58627 0.0372981
3118.44 1.62232 0.0373626
2842.51 1.77014 0.0386622
2394.85 1.7282 0.0409781
2207.24 1.91305 0.0398391
1945.46 1.90315 0.0395416
1870.42 2.08078 0.0391024
1655.62 2.1263 0.0404736
1628.37 2.3472 0.0411165
1501.09 2.44251 0.0434132
1429.57 2.52951 0.0436276
1447.07 2.87444 0.0442815
1362.59 2.9267 0.0441314
1305.51 3.14445 0.0451591
1322.59 3.43451 0.0478919
1272.73 3.61278 0.0490478
1229.8 3.78965 0.0495724
1200.36 4.01268 0.0511606
1229.08 4.35734 0.0545001
1206.44 4.64076 0.0568701
1167.04 4.80861 0.0593336
1171.46 5.17661 0.0606702
1133.38 5.32237 0.0633326
1153.73 5.7705 0.0678531
1124.11 6.01275 0.0714518
1106.38 6.20792 0.07417
1101.95 6.60984 0.0791332
1109.97 7.01735 0.0837441
1106 7.43135 0.0899935
1090.01 7.70622 0.0967757
1073.99 7.94996 0.0986473
1048.82 8.20392 0.102803
1036.73 8.51337 0.107914
1059.81 9.12859 0.117929
1059.93 9.57479 0.124526
998.205 9.42022 0.127729
1038.61 10.277 0.140668
1035.74 10.6619 0.150219
1007.59 10.7947 0.155463
994.534 11.2717 0.170053
969.915 11.3727 0.171854
957.945 11.6663 0.184559
954.324 12.1067 0.192544
958.717 12.5966 0.208371
933.261 12.7689 0.215223
922.294 13.1077 0.230861
929.502 13.5999 0.242918
933.344 14.1609 0.258092
902.387 14.1859 0.266921
875.834 14.2466 0.272058
862.13 14.4756 0.284379
836.18 14.4855 0.295977
865.366 15.54 0.322216
853.012 15.9017 0.339257
815.889 15.6728 0.342069
798.83 15.7857 0.354662
818.288 16.6388 0.381509
778.535 16.4044 0.387429
803.055 17.2642 0.414294
778.414 17.3841 0.427285
752.229 17.3594 0.45057
759.506 17.8653 0.464124
742.423 18.0624 0.481583
730.1 18.24 0.503594
692.075 17.8205 0.506681
703.764 18.5135 0.538283
697.028 18.9571 0.559777
686.618 19.041 0.568745
683.393 19.4963 0.599594
668.106 19.6601 0.61784
657.66 19.7676 0.638483
667.955 20.6041 0.675628
626.865 19.8263 0.669935
614.535 19.7518 0.682708
623.031 20.5989 0.720033
614.102 20.8306 0.744142
604.198 20.9738 0.772625
582.76 20.6892 0.776971
583.704 21.3183 0.81788
581.359 21.6386 0.848368
568.882 21.5719 0.87207
545.243 21.2125 0.872332
538.15 21.3371 0.893158
530.097 21.5821 0.913449
531.916 21.906 0.947981
540.201 22.8758 1.01708
530.871 22.9386 1.03994
508.957 22.3702 1.02877
495.637 22.2143 1.04795
502.676 23.0805 1.10216
493.308 23.1653 1.1377
482.838 23.0321 1.15247
463.973 22.7075 1.15574
463.508 22.983 1.19313
468.976 23.9619 1.26402
460.892 23.7765 1.28109
444.299 23.4009 1.29004
436.072 23.3199 1.29907
442.187 24.1932 1.37385
431.258 23.8914 1.37812
425.18 24.1131 1.41047
410.419 23.6744 1.42002
402.127 23.5967 1.43847
411.348 24.5562 1.51229
402.641 24.3803 1.53807
399.769 24.7198 1.57826
378.693 24.0503 1.56704
389.786 24.9589 1.65295
382.198 24.9396 1.67156
375.852 25.1893 1.72554
359.079 24.1989 1.67648
368.913 25.3011 1.78898
368.594 25.6372 1.8381
353.649 25.0101 1.8296
356.638 25.6449 1.89726
351.702 25.8256 1.94993
343.977 25.4535 1.94485
326.888 24.7028 1.92
336.542 25.7884 2.03539
332.199 25.8053 2.05217
319.288 25.2731 2.04763
319.609 25.7424 2.11933
320.536 26.0904 2.17485
316.847 26.0972 2.21976
306.445 25.8633 2.23352
314.599 26.7105 2.32499
297.262 25.4933 2.26602
305.363 26.7371 2.41522
295.863 26.2073 2.38276
288.608 25.9008 2.39314
293.717 26.7628 2.50631
286.52 26.7925 2.54214
277.054 26.0828 2.50742
277.379 26.4483 2.59163
279.393 26.8308 2.63932
264.001 25.9653 2.61317
266.407 26.4924 2.69916
270.329 27.3146 2.81183
267.576 27.3137 2.85069
258.298 26.7538 2.83109
259.157 27.2505 2.92125
258.593 27.3548 2.96534
248.276 26.8399 2.9455
254.133 27.6467 3.08012
246.568 27.263 3.06789
253.956 28.4321 3.24657
243.051 27.5335 3.17201
231.959 26.7292 3.1445
235.907 27.385 3.24092
242.215 28.5458 3.42479
232.208 27.8687 3.39935
229.998 27.6911 3.41308
223.29 27.4012 3.40962
227.615 28.0528 3.52974
223.86 28.0042 3.5927
224.217 28.504 3.68291
220.141 28.1387 3.66887
215.205 27.9894 3.70864
219.446 29.0059 3.88888
216.361 28.6807 3.87156
211.705 28.4332 3.87565
210.269 28.8076 4.01011
205.904 28.2374 3.95627
206.079 28.7485 4.08844
204.229 28.6534 4.10584
209.552 29.8998 4.32868
202.436 29.0125 4.22422
197.777 28.797 4.27374
195.985 28.9596 4.34989
197.394 29.2902 4.44376
198.065 29.8496 4.56082
194.562 29.6019 4.58786
192.097 29.4084 4.59345
197.669 30.803 4.87632
185.439 29.1936 4.67838
186.85 29.7679 4.82166
190.023 30.575 4.97019
187.407 30.4675 5.02545
186.566 30.659 5.1364
184.79 30.6134 5.16198
181.89 30.4203 5.17043
178.441 30.3574 5.24273
183.937 31.5622 5.48502
179.809 31.1118 5.44552
175.994 30.6555 5.43796
173.417 30.6122 5.47248
176.548 31.3779 5.67266
171.295 30.9832 5.64578
170.828 31.2918 5.79396
167.86 30.7376 5.733
167.717 31.1027 5.86966
166.168 31.2188 5.93246
168.393 31.913 6.12885
160.672 30.6093 5.91848
160.491 30.9513 6.06544
162.464 31.602 6.24685
160.781 31.7415 6.34812
162.558 32.2533 6.48582
158.874 31.7711 6.43274
154.383 31.2611 6.4076
157.066 32.1422 6.64994
154.976 31.8692 6.65651
152.991 31.8713 6.70452
152.918 32.3376 6.90939
153.213 32.5365 7.00207
151.806 32.6482 7.08787
149.535 32.1256 6.98291
146.655 31.9198 7.05249
147.875 32.5597 7.27094
146.18 32.5025 7.2887
147.246 32.9016 7.44351
141.04 31.7405 7.23033
147.267 33.7087 7.77915
139.367 31.9707 7.43059
143.95 33.5375 7.88408
140.644 32.7448 7.72534
139.272 33.0161 7.92475
138.294 32.8434 7.93681
141.538 33.9118 8.22247
140.786 34.0758 8.33155
140.23 34.3075 8.45439
138.48 34.1452 8.50881
135.459 33.882 8.53447
134.183 33.6038 8.50232
134.064 33.8364 8.66404
134.667 34.1565 8.81629
135.02 34.581 8.91077
129.421 33.6965 8.87699
130.332 33.9307 8.94552
132.967 35.1229 9.34511
130.565 34.6196 9.29671
127.792 34.5983 9.42578
130.289 35.1692 9.55651
125.415 34.0669 9.34542
127.48 35.0074 9.71144
125.648 34.8634 9.75364
123.124 34.1966 9.65271
128.081 35.8143 10.1505
124.848 35.3088 10.1302
121.934 34.7968 10.0404
125.919 36.3938 10.6136
121.582 35.1382 10.3301
121.338 35.267 10.3864
122.662 36.089 10.7356
118.161 35.0647 10.4758
116.885 35.0801 10.6423
119.426 36.0965 10.9835
117.578 35.6839 10.9837
119.518 36.4815 11.2338
113.558 35.2117 10.9906
115.424 35.8505 11.2525
117.077 36.7253 11.6167
116.769 36.8202 11.7436
111.063 35.2291 11.3282
113.671 36.1804 11.618
110.449 35.7653 11.6944
114.518 37.0553 12.1467
108.59 35.6692 11.838
110.567 36.4595 12.1464
108.7 36.027 12.0571
106.908 35.8947 12.2034
109.082 36.5914 12.4218
105.658 35.9461 12.3666
110.088 37.5882 12.9536
109.594 37.704 13.1336
106.586 36.9143 12.9495
103.413 36.2223 12.8134
105.034 36.4199 12.8508
104.185 36.9476 13.2619
104.494 37.0144 13.3174
106.051 38.1098 13.8088
103.681 37.2163 13.5555
104.213 38.0835 14.0629
101.058 36.9271 13.6796
99.3152 36.5482 13.6071
100.487 37.2656 13.9617
99.868 37.333 14.0872
101.479 38.2943 14.5864
102.705 38.6078 14.6412
97.6941 37.3546 14.4477
98.7647 37.7624 14.579
98.3328 37.9569 14.8198
97.2588 38.0989 15.0698
97.9558 38.0776 14.9724
94.9308 37.5994 15.0944
93.1892 36.9084 14.8375
96.5997 38.1614 15.2897
96.1719 38.6799 15.6195
92.1868 37.584 15.4098
95.4196 39.2067 16.1696
92.0395 37.8554 15.6739
93.6799 38.8161 16.2877
93.5582 38.3973 15.9467
92.6375 38.5602 16.2272
91.7467 38.6476 16.4146
92.3197 39.3167 16.8305
88.6355 37.6964 16.2238
88.171 38.0242 16.6418
89.6761 38.337 16.6011
88.9419 38.5638 16.916
91.411 39.703 17.3675
89.5296 39.2249 17.2949
88.5814 39.322 17.5672
87.7874 39.5202 17.8711
87.5557 39.1419 17.6891
86.0445 38.6341 17.4756
84.7412 38.4817 17.6905
84.4998 38.2849 17.54
83.9857 38.5582 17.8989
82.2496 37.8106 17.5994
84.0467 39.2064 18.4832
86.2757 40.2249 18.8378
83.1966 39.3277 18.6642
83.0592 39.2159 18.8294
82.9395 39.5003 19.0349
84.0705 40.0321 19.2809
80.5461 38.7136 18.7593
82.0603 40.0678 19.6993
83.53 40.721 19.9984
80.0965 39.3651 19.6958
80.3782 39.2108 19.3223
79.1963 39.3197 19.7276
81.4926 40.3433 20.1097
77.8329 39.1133 19.8789
79.2895 39.8299 20.2853
79.6325 40.2375 20.4937
76.322 39.0478 20.181
77.2984 39.3679 20.3088
77.557 39.9835 20.7132
76.6329 39.6691 20.8252
76.8191 40.1959 21.1677
74.8662 39.3255 20.9337
75.4977 39.4731 20.8931
76.5585 40.3978 21.4213
71.8083 38.3948 20.7835
74.6399 39.8747 21.5923
76.5516 41.1084 22.2855
73.6344 39.8857 21.733
71.0733 38.8857 21.512
73.7515 40.5756 22.5536
74.9247 41.1051 22.7937
74.0126 40.7527 22.6783
71.7479 40.1455 22.5763
72.1529 40.4204 22.8166
70.429 39.5818 22.465
72.5738 41.4161 23.8436
71.6778 40.7697 23.3578
70.6726 40.6626 23.6645
69.4246 39.5594 22.7949
67.9206 39.8993 23.6309
70.7035 40.7876 23.7909
69.3047 40.559 24.0455
70.485 41.3716 24.5348
69.2335 40.681 24.1647
68.8348 41.029 24.6851
71.2461 42.1034 24.9887
67.6742 40.6228 24.5323
67.3319 40.8488 24.9786
66.8835 40.3972 24.6771
67.4741 40.8241 24.992
65.9507 40.4292 24.93
66.635 40.9179 25.3493
65.6625 40.8445 25.6489
65.8637 40.6716 25.3625
65.4229 41.2003 26.1562
66.2643 41.4432 26.2089
63.5072 39.9961 25.5164
64.8307 40.9392 26.1255
63.4101 40.3573 25.9937
64.8732 41.7069 26.809
62.191 40.1463 26.2183
62.3417 39.8257 25.8822
62.1673 40.4568 26.5541
63.6658 41.4424 27.2868
64.4286 41.8773 27.41
60.2315 40.2176 27.277
63.2233 41.6083 27.7979
63.242 41.8592 27.8186
61.1819 41.2489 27.9928
60.5407 40.6354 27.6131
60.3461 41.041 28.1651
61.3323 41.6097 28.5826
59.8981 40.763 28.029
59.3623 40.4914 27.8863
58.2464 40.7393 28.7348
59.8182 40.8532 28.3178
58.7975 40.6489 28.3957
58.2611 40.498 28.4374
58.3169 40.627 28.6749
58.2098 41.0516 29.0853
56.8195 40.6917 29.3849
58.5346 41.749 30.0205
57.2841 40.7924 29.3481
57.1318 41.3747 30.2381
56.0707 40.2967 29.3288
57.1839 41.7348 30.6644
56.6841 40.9667 30.1674
57.0731 41.4457 30.2767
56.6493 41.7615 31.0475
54.0196 39.8468 29.7638
54.5989 40.4617 30.304
55.1218 41.1418 30.9353
52.8087 39.2677 29.7961
55.5474 41.8479 31.6798
53.649 40.7055 31.2494
55.0854 41.632 31.6048
53.012 40.3075 30.97
52.5077 40.2864 31.1909
53.2274 40.9909 31.8116
53.6655 41.6098 32.5576
54.337 42.0364 32.675
52.5902 40.8266 32.0019
52.3974 41.1596 32.7231
52.7314 41.2054 32.5935
51.5744 40.8457 32.8358
53.143 41.9604 33.5922
54.1527 42.6449 33.7679
50.6012 40.6552 32.9288
52.2881 42.2201 34.3844
51.1318 40.843 33.1484
49.7826 40.3782 33.2274
50.4734 40.6434 33.1257
50.4073 41.5196 34.2875
49.9737 40.8951 33.8049
49.8514 41.0927 34.1096
48.5432 40.1346 33.5667
49.7669 41.4497 34.7745
49.0637 41.2276 34.8861
49.8411 41.753 35.3026
47.9209 40.3606 34.4026
48.4202 41.0897 35.2899
48.5845 40.982 34.9766
48.5535 41.3827 35.5808
47.9963 41.1305 35.5396
47.3283 40.6121 35.2154
46.9842 40.5565 35.1622
46.5942 40.6144 35.6998
46.5714 40.6685 35.737
46.5454 40.6707 35.8832
46.3266 40.7008 36.0272
46.555 41.205 36.7353
46.4573 41.1502 36.6743
45.6674 40.66 36.4825
45.3359 40.284 36.2532
44.3499 39.7365 36.0652
45.4956 40.7629 36.6893
43.2432 39.0501 35.7167
44.9351 40.9116 37.3784
44.7607 41.2459 38.3605
44.7309 40.5389 37.2217
44.114 40.7668 38.255
43.9777 39.9669 37.1371
44.6402 41.075 38.0984
43.9479 40.5007 37.7541
44.6988 42.0401 39.5768
43.4834 40.4706 38.0531
42.9262 40.6886 38.7711
43.1723 40.7695 38.8686
42.6475 40.2443 38.5332
43.3798 41.3243 39.8609
43.1327 40.9916 39.428
42.4297 40.576 39.2897
42.5651 40.7299 39.2023
41.0982 40.027 39.3822
42.0333 40.6307 39.7628
40.7153 39.5535 39.0665
41.8196 40.4739 39.5844
41.7186 41.0696 40.6954
40.7799 39.3861 38.6003
39.5837 39.4599 39.6
41.6986 41.3474 41.1933
40.8675 40.937 41.4262
40.7099 40.2365 40.2217
40.0929 40.2666 40.7858
41.0916 41.9536 43.0864
40.8385 40.635 41.1509
40.5474 40.8888 41.4024
40.0393 41.0861 42.1835
39.7325 40.5684 41.8147
39.1175 40.2928 41.6157
38.1398 39.6457 41.7452
38.8146 39.9714 41.8461
39.4348 40.4583 42.0636
38.6786 40.0033 41.6007
38.2899 40.45 43.0913
38.7346 40.672 43.1668
38.1191 39.8155 42.1965
37.9515 40.1893 43.1346
37.9968 39.646 41.9939
37.3519 39.6184 42.0584
36.6802 39.5935 43.2442
38.9829 41.3772 44.2647
37.3323 40.186 43.6282
36.2025 39.0345 42.6416
37.3465 40.4057 43.7842
35.8244 39.1654 43.245
37.7287 41.3053 45.4775
36.9102 40.0026 44.0124
37.5323 41.3748 45.8004
37.2791 41.076 45.5643
36.0177 39.6298 44.3698
36.5223 40.2512 44.6141
35.5919 39.7934 44.8534
35.1532 38.9099 43.9546
36.068 40.3405 45.0984
35.4459 39.797 44.8385
34.3176 39.4287 45.6027
35.1005 39.249 44.8395
35.3631 39.8676 45.0255
34.391 40.0262 46.7172
34.3095 38.9467 44.6947
34.5395 40.0448 46.5978
34.2314 39.2344 45.4154
33.989 39.3195 45.8448
33.9686 39.7816 46.9698
34.0008 39.2084 45.9574
33.4051 38.6772 45.3004
32.7468 38.5678 45.7211
32.3347 38.2256 45.936
33.3749 39.0355 46.0656
32.4947 38.5335 46.0514
32.1066 38.3911 46.4665
32.6501 38.9213 46.972
32.9721 39.1802 47.1283
32.3875 39.0315 47.4812
32.8651 39.2526 47.7705
33.1629 40.2108 48.8364
32.0506 38.7456 47.5676
32.7357 39.8085 49.1193
33.0849 40.1291 49.0082
32.8073 40.1574 49.6331
32.2729 39.3158 48.3356
31.0057 38.1715 47.7465
31.4358 38.8606 48.4881
31.3646 38.6458 48.2486
31.8001 39.6626 49.747
30.798 37.8437 47.168
30.2902 38.4268 49.2589
31.2252 38.5175 48.1647
30.2829 38.2258 48.5277
30.3752 38.5859 49.2568
29.9879 37.9989 48.8199
30.733 38.8417 49.0582
28.8051 37.0517 48.1973
29.7036 38.3176 49.8649
30.1578 38.5447 49.7556
29.2844 37.7878 49.2721
29.505 38.0428 49.8554
29.5678 37.9349 49.5014
29.1602 37.5929 49.248
28.9921 37.5632 49.4222
29.6824 39.0964 51.7356
29.356 38.55 51.4524
29.6805 38.6366 50.7296
28.8013 38.3154 51.1731
29.0583 38.5047 51.5878
28.6487 37.9741 50.7585
28.3269 37.8023 50.8583
28.4258 37.9019 51.0249
27.8071 37.3456 51.2104
28.4755 38.0617 51.529
28.0888 37.6967 51.531
28.5472 38.5273 52.3686
28.0904 38.0379 51.8912
27.7928 38.0444 52.2556
27.8044 38.2877 53.7954
29.0127 38.9463 53.2054
27.8474 37.8946 52.0395
27.5879 38.081 52.955
27.6896 38.6497 54.1191
27.4918 37.7861 52.8779
27.4975 38.5162 54.1727
26.6465 36.9274 52.4449
26.7099 37.2519 52.8678
26.6391 36.6302 51.6032
27.1502 37.9571 53.3284
26.5137 37.1446 52.5248
26.0411 37.0497 53.4745
27.1102 38.5005 54.8302
26.6191 38.0048 54.7843
25.9856 36.4834 52.6183
25.8224 36.6046 52.486
25.7043 36.975 53.5261
26.1709 37.8715 54.9144
26.0197 37.6081 54.8289
25.6512 36.8966 53.8209
25.7726 37.5505 55.0233
25.4011 36.5502 53.3496
25.5197 37.6445 55.5057
25.0132 36.5171 54.138
25.5637 37.356 54.5403
24.4118 36.5259 55.2563
24.9847 36.6225 54.53
24.7716 37.06 56.1016
24.9154 36.7532 55.2237
24.7859 36.8019 55.5816
24.9097 36.9099 55.4133
24.6513 36.9128 55.5831
24.4334 37.1475 57.1217
24.5127 36.2388 54.9961
24.1905 36.2015 54.8151
23.6182 36.0648 55.7277
24.1146 36.2658 55.543
24.2795 37.3368 57.7532
24.1916 36.623 56.1694
24.1272 36.5029 55.7294
22.9243 34.7371 53.644
23.5867 36.8183 57.5623
23.7779 36.6621 57.1638
23.8926 36.7028 57.0393
23.1386 35.8066 56.4536
23.5742 36.4456 56.9119
22.9842 35.8177 56.6071
22.9785 35.78 56.7379
22.9788 36.0167 56.9175
22.9984 36.0701 57.254
23.0576 35.9598 56.458
21.8669 34.9741 56.6198
22.3037 35.0552 56.3112
22.5033 35.3979 56.409
21.9465 35.0675 56.489
21.7924 34.888 57.0285
22.3251 35.7788 58.2507
22.655 36.0138 57.8055
22.2673 35.8467 57.9278
22.0349 35.6936 57.8525
21.9985 36.4119 61.11
22.5216 35.2115 56.6388
21.6507 35.2875 57.4148
21.2527 35.3689 59.5614
22.1058 35.749 58.6523
21.5394 35.4105 58.985
21.7411 35.8659 59.9357
22.2191 36.3063 59.906
21.6908 35.7018 59.4155
21.5402 35.6862 59.6455
21.1052 35.1799 59.4278
21.395 35.7356 60.0864
21.1904 35.4212 60.376
20.7471 34.5603 58.9759
21.4108 35.5451 59.8549
20.7437 34.6731 58.9926
21.0527 35.8407 61.6069
21.4468 35.8316 60.2584
20.5813 34.9237 60.3589
21.1564 35.6283 60.8091
20.9769 35.6054 61.4446
20.8461 35.1432 60.0558
20.9371 36.4026 62.8738
20.7465 35.341 60.9457
19.7649 33.7461 59.0037
20.4104 35.1963 61.3215
20.4406 35.0206 60.2477
19.6203 34.2416 60.6682
19.6829 34.1115 60.2623
19.8996 34.3563 59.7869
19.7752 35.2034 62.6746
19.7176 34.1492 60.2789
19.2611 34.1273 61.9517
20.2097 35.024 61.7884
19.4136 33.7101 60.1605
19.8933 35.0494 62.217
20.1906 35.7588 62.6864
19.2109 34.3789 61.7383
18.988 33.8876 61.409
19.3115 34.1538 60.6508
18.5151 33.4976 61.0698
18.855 33.9285 61.6934
18.7281 33.7775 61.5585
18.5086 33.252 60.9105
18.5179 33.2842 60.7778
18.6206 34.0755 62.6559
18.9824 34.1283 61.7292
18.3237 33.7166 62.72
18.7635 34.2021 63.3166
18.9802 34.2934 62.4337
18.046 33.2969 62.6338
18.7098 34.4282 63.8724
18.5532 33.5649 61.426
17.9411 33.7291 63.3902
17.9389 33.2464 63.4084
18.3787 33.3886 62.1329
18.1036 33.9577 63.8683
18.116 33.505 62.823
17.6536 32.5732 61.0042
17.5626 33.1782 63.1362
17.7136 32.849 61.942
17.4204 32.9743 63.3494
18.0757 33.8724 63.8577
17.836 34.2447 66.3215
17.9312 32.9498 62.3827
17.3803 32.7178 62.1714
17.6227 34.0995 65.1912
17.294 32.9897 63.7927
17.061 32.3818 62.9015
17.3679 33.0448 63.2822
17.0038 32.7222 63.5685
16.9545 32.3699 63.0085
16.7789 32.0806 62.4852
17.226 33.4857 65.2538
17.1183 32.5079 62.6936
16.9881 33.4937 65.9493
16.9955 32.9618 64.3166
16.6237 32.9688 65.804
16.8296 32.4278 63.9113
16.3988 32.0951 64.4936
16.6232 32.2019 64.09
16.7658 32.464 63.6678
16.3242 32.0055 63.6763
16.4522 32.552 65.2438
16.6385 32.9957 66.097
16.5908 32.5648 64.8381
16.4635 32.5592 65.1729
16.3885 32.011 62.9614
15.6371 31.7272 64.3806
15.6823 31.0767 63.2443
16.1692 32.3969 65.1615
16.1287 32.6061 65.7633
15.9685 32.1561 65.8169
15.9658 32.1709 65.8318
15.8547 31.5577 63.6612
15.8298 32.3706 66.5823
16.1028 32.9142 66.7876
15.544 31.7795 66.1612
15.546 31.5527 65.3228
15.3059 31.2302 66.1008
15.9998 32.2228 65.3805
15.1402 30.9055 64.4201
15.1377 30.8997 64.5007
15.4241 31.6463 65.382
15.0707 31.0829 64.4404
14.7752 30.6247 64.3014
14.6687 30.4561 65.124
15.0924 30.6841 63.8414
14.6749 30.4059 63.811
14.6816 30.8985 65.9535
15.2677 31.7956 66.9712
15.2375 31.3122 65.1485
14.828 31.7451 67.511
14.8682 31.3171 66.9138
14.7635 30.6845 65.4235
14.522 30.1376 63.7813
14.146 30.3704 66.5855
15.0458 31.3373 66.6616
14.9089 31.4143 66.6472
14.7331 31.3762 67.1741
14.4626 30.5049 64.855
14.0152 30.4063 65.7846
13.7789 29.6914 65.5527
14.0527 30.0347 66.5226
14.7055 31.0528 67.1392
14.3914 30.9089 66.7924
14.1475 30.3729 66.4007
13.9687 30.1614 66.3651
14.0057 30.0028 65.8496
14.0864 30.6519 66.8646
13.8682 29.9671 66.4531
14.0003 30.3964 68.1489
14.76 32.0969 69.0992
13.6041 29.4954 66.0963
14.1724 30.7343 67.0292
13.8858 30.5697 66.8517
13.3762 29.6026 67.2219
13.8143 29.9828 66.2156
13.4884 29.7674 66.8167
13.7967 30.0244 65.475
13.2016 29.806 67.6119
13.5531 29.6849 65.9061
13.3945 30.2895 67.9302
13.0719 29.2149 66.8462
13.2889 29.8202 68.1145
13.6673 30.4095 68.3042
13.2444 29.5413 66.2031
12.9448 29.3767 66.8162
12.5559 28.2063 65.7913
13.1213 28.9683 65.7306
13.0316 29.4913 66.9745
12.9412 29.3632 67.1115
12.9541 29.5857 68.1824
12.9123 29.2295 68.3229
13.1955 29.3532 66.3968
12.6719 28.8379 66.8895
13.0077 29.5501 67.143
12.7087 29.4281 68.0566
12.7003 29.179 67.9989
12.7252 29.2822 68.2188
12.7191 29.2339 68.0325
12.5764 29.066 68.7133
12.6716 28.9148 67.4258
12.6201 29.1122 68.3023
12.5735 29.064 68.2468
12.4993 28.6611 67.3869
12.5448 29.3483 68.9686
12.3202 28.1845 66.0475
12.1782 28.6158 67.5827
12.1876 28.2939 66.6392
12.1412 28.4887 66.9993
12.1534 28.9493 68.2729
11.9095 27.9177 67.4621
12.2984 29.1473 69.3393
11.9092 27.9603 68.0691
12.2426 28.4119 67.1106
12.0053 28.4309 67.8907
11.9491 28.3384 68.3047
11.9456 28.0749 67.5621
12.2378 29.3278 69.1296
11.831 28.6493 69.6751
11.9787 28.6092 69.4124
11.8892 28.019 67.2576
11.6948 28.8294 70.8391
11.9849 28.622 69.8575
11.868 28.5651 69.1012
11.4271 27.6166 69.1935
11.8612 28.3442 69.3126
11.6528 27.8485 68.1998
11.6328 28.1807 69.4339
11.7824 28.5593 70.4735
11.7269 28.1497 69.5643
11.8836 28.393 68.7507
11.4193 27.8297 68.7815
11.5355 28.6158 71.3596
11.6886 27.8804 68.4301
11.3575 27.7394 68.8359
11.2787 27.6921 68.5782
11.3689 28.1972 69.749
11.2684 27.9932 69.9984
11.0477 27.0307 68.6127
11.342 27.9471 69.397
11.0028 27.0029 68.8391
11.5323 28.5492 70.0278
10.985 27.254 68.7058
11.0201 27.4058 68.5332
10.873 27.2824 69.8151
11.1154 27.5411 69.3497
11.0955 28.0846 70.8834
11.043 27.6277 70.8985
11.254 27.8647 70.0672
10.8096 27.1019 69.4225
10.7838 27.0488 69.4416
10.9094 27.752 70.6359
10.6662 26.6259 68.2953
10.5549 26.8299 70.3067
11.0261 27.8095 71.1415
11.0666 27.943 70.9309
10.5703 26.745 69.4188
10.7112 27.0112 69.7966
10.6369 27.1096 71.028
10.912 27.0695 68.5907
10.5501 27.1683 69.7939
10.5457 26.8308 69.7347
10.7089 27.6733 70.9174
10.3762 26.9077 71.1852
10.6235 27.2691 71.6659
10.6064 27.2841 73.4438
11.2064 28.3322 72.737
10.6899 27.3113 70.4917
10.4099 27.1378 71.5818
10.3986 26.6674 70.0438
10.4278 26.7999 69.0132
10.0833 26.7605 71.6814
10.3731 27.0941 72.4218
10.3329 26.018 68.5463
10.1426 26.5017 70.344
10.1888 26.2599 68.7132
9.92352 26.1041 69.4198
10.0298 26.4733 70.447
10.0695 26.3607 69.5069
9.96555 26.372 69.8764
9.85669 26.0115 69.9025
10.1148 27.351 73.157
10.0054 26.1668 70.2178
9.89436 26.3938 71.1017
9.84853 25.7258 69.0691
9.73558 26.1909 71.4718
9.90472 25.6743 69.8158
10.051 26.5536 70.2888
9.69997 25.996 69.4047
9.49391 25.9345 71.4292
9.84668 26.4041 71.2821
9.52245 25.5788 71.0635
9.72011 25.2527 68.5084
9.54709 25.8158 70.0837
9.57373 25.9161 70.1033
9.30096 24.8627 69.5696
9.56042 25.6269 70.3171
9.42297 24.975 68.5656
9.5218 25.8198 70.1536
9.47349 25.7838 69.9275
9.25399 25.4461 71.17
9.35744 24.9738 69.0096
9.24213 25.1413 70.2203
9.56635 26.1182 70.8747
9.17064 24.9925 69.4866
9.21863 25.5368 71.9711
9.36103 24.8777 68.6172
9.27183 25.936 72.6476
9.22761 24.9737 70.3495
9.20116 24.8107 68.2152
8.85294 24.7138 70.6024
9.28545 25.3466 71.426
9.29185 25.2723 69.677
8.99752 24.9162 70.2837
9.13468 25.1043 70.161
9.20613 25.8576 71.6939
9.00965 25.0955 71.3503
8.94918 24.7056 70.2694
8.90693 24.1799 67.6274
8.673 24.6253 70.807
9.04424 25.0195 70.128
8.90976 25.449 72.9291
9.00967 24.6835 69.3966
8.74733 24.6058 70.3569
8.89486 25.131 72.4181
8.99834 24.9136 70.8709
8.8396 24.7891 71.7933
9.1085 25.4083 71.1551
8.87189 25.1146 70.8836
8.63102 24.454 71.2503
8.90223 24.7753 70.7667
8.76729 25.1584 71.4718
8.6964 25.0711 72.7427
8.6547 24.024 68.9289
8.51932 24.2922 70.0319
8.59697 24.7107 71.3715
8.55656 24.4807 71.1391
8.52746 24.6674 72.1709
8.64631 24.5418 71.608
8.47024 23.9125 70.5746
8.49134 23.9329 69.6957
8.52325 24.6666 71.1289
8.27444 23.7505 70.3158
8.36992 23.8168 70.6645
8.49561 24.2922 70.6055
8.40705 24.2142 70.2322
8.27916 24.1452 70.8003
8.3017 23.7584 69.8604
8.13847 23.3395 68.92
8.10082 23.2711 68.6324
8.00408 23.3581 70.0721
8.28419 24.0552 71.0372
8.28278 23.9906 71.3782
8.32507 23.9555 69.8415
8.02581 23.377 70.1122
8.10516 23.3798 68.7685
7.99097 23.8313 70.5425
7.98396 23.1432 69.4591
8.01623 23.4724 70.3641
8.13021 23.6622 69.4837
7.94606 23.4609 70.5518
7.99376 23.4569 71.4161
8.33902 24.7953 71.9607
7.76699 22.774 69.6058
7.89124 23.1579 69.3702
7.91549 23.3568 69.6783
7.78705 23.0929 70.9094
7.9983 23.458 70.034
7.86086 23.4999 71.0946
7.87603 23.3599 70.5271
7.69859 22.4067 68.4644
7.85168 23.4704 70.3453
7.7176 23.0813 69.8586
7.68963 23.2208 70.919
7.6509 22.8986 69.7735
7.60494 22.5513 69.5811
7.73732 22.7569 68.9773
7.55434 22.3465 67.0788
7.36869 22.553 69.7193
7.60761 22.899 70.4068
7.67911 22.9665 70.4451
7.63162 22.8719 70.863
7.73978 23.1763 70.1967
7.55602 22.6914 69.3956
7.51803 23.1238 70.7433
7.48632 22.803 70.1747
7.39088 22.1873 68.5499
7.32577 22.4281 70.3446
7.46547 22.3606 68.795
7.31068 22.074 69.8225
7.54785 22.622 68.0108
7.1838 22.1222 69.2367
7.31181 22.3223 69.7015
7.4203 23.0272 71.1604
7.23392 21.6302 68.4615
7.34829 22.4887 69.0153
7.11125 21.9495 69.6818
7.28341 22.2598 69.9819
7.31369 22.134 68.0682
7.12332 22.105 69.7298
7.23707 22.5328 71.5464
7.41225 22.5874 69.3194
7.07201 21.7026 68.9722
7.18089 22.2722 69.2061
7.0731 21.9421 69.5995
7.11768 22.0746 69.7334
7.02673 21.6333 69.3616
7.22044 22.637 71.217
7.18479 22.1846 69.2378
6.91942 21.4614 68.4137
6.91306 21.5119 68.3576
6.97767 21.8375 70.1528
7.05823 21.6594 68.9571
7.02689 21.9422 70.2279
7.11556 21.8548 68.2743
6.86768 21.6923 68.8067
6.80365 21.1919 67.4935
6.66794 20.9635 69.1251
7.12576 22.5614 69.9278
6.8308 21.8852 71.2961
6.88489 21.3721 69.3218
6.81568 21.0788 68.816
6.8538 20.9282 67.007
6.73284 21.4225 68.6218
6.71461 20.9128 68.0618
6.82891 21.9417 70.6151
6.95321 21.7682 68.4946
6.61578 20.8337 67.6919
6.70342 21.5888 69.4049
6.79332 21.9464 70.7521
6.81374 21.0608 68.5144
6.76369 21.6629 69.9329
6.79891 21.7645 69.2252
6.57926 21.0742 68.6176
6.5584 21.0009 69.2572
6.74564 21.3727 68.328
6.50413 20.9424 67.6367
6.42383 21.0492 69.1237
6.48541 20.7242 68.7661
6.53281 20.5857 68.0712
6.58234 21.4054 70.7032
6.64761 20.9024 68.1483
6.45986 20.2706 65.8115
6.33767 21.0195 68.9884
6.44461 20.5274 67.5639
6.37832 20.8046 70.5166
6.70764 21.5376 69.3191
6.43421 20.8248 69.3659
6.53304 21.006 68.1508
6.32705 20.8172 69.2259
6.37174 20.3165 68.3418
6.3869 20.7925 68.5702
6.32852 20.3822 68.675
6.40176 20.6665 68.6517
6.37374 20.7299 68.5051
6.30457 20.4351 68.3823
6.26781 19.9797 67.2648
6.32491 20.9427 71.6514
6.75395 21.6887 68.0275
6.17789 20.7176 68.792
6.20231 20.4738 69.828
6.36383 20.7139 69.6959
6.39794 20.862 68.346
6.16815 20.276 68.9429
6.25126 20.373 68.6518
6.24558 20.1907 66.783
6.09374 20.6145 69.3456
6.18569 20.4234 69.2312
6.19292 20.0492 67.1199
6.08644 20.3445 69.4431
6.24296 20.6028 70.1586
6.33207 20.4391 68.2894
6.2239 20.7626 68.1772
6.01372 20.1112 69.0862
6.09318 19.8599 67.8363
6.07282 20.2955 69.0084
6.14223 20.1975 68.6403
6.08837 20.4594 69.3307
6.14012 20.1139 68.3904
6.04913 20.0394 68.7472
6.06771 19.9645 67.1202
5.92418 19.7556 68.0411
6.06494 20.3443 68.3822
5.8714 19.1094 65.5671
5.84937 20.0724 66.6834
5.71547 19.3946 68.6403
6.05876 20.2578 68.7753
5.92817 19.853 68.9229
5.98789 19.9526 68.0554
5.96616 19.9746 67.7198
5.88645 20.0522 68.7203
5.91272 20.0706 68.7517
5.88111 20.1017 69.6547
5.87818 19.5282 68.2822
5.88156 19.8817 69.5665
6.02662 20.0304 67.5438
5.80215 19.5027 67.7527
5.84954 19.7706 68.2004
5.80684 19.352 66.1709
5.64521 19.6691 69.3446
5.8557 19.5793 69.0771
5.86674 19.2899 66.6129
5.66116 19.0815 66.2805
5.75283 20.0779 70.1965
5.96494 20.1201 68.8019
5.78634 19.6301 68.0909
5.7316 19.1922 66.6409
5.65883 19.3199 66.966
5.60169 19.346 67.6986
5.67321 19.3434 67.9003
5.69366 19.6927 68.8257
5.72342 19.2417 67.8518
5.77025 19.7998 65.8502
5.45768 19.2072 68.6278
5.65183 19.262 68.2495
5.72004 19.2139 66.3575
5.55301 19.2218 67.0715
5.53199 19.1381 67.9595
5.56261 19.0495 67.7393
5.61859 18.919 66.4423
5.57583 19.7645 68.8433
5.61024 19.3454 68.7578
5.61282 18.7569 66.1275
5.52077 19.7455 69.0057
5.53338 18.924 66.6004
5.4539 18.9274 67.5972
5.55184 18.833 66.8111
5.47213 18.9996 67.101
5.47279 18.7871 66.7927
5.47023 18.7913 66.1838
5.44102 19.3161 67.7089
5.46251 19.3061 68.7971
5.52803 19.0314 67.231
5.42716 18.5895 65.8144
5.31728 18.7419 66.9802
5.37807 18.901 68.5186
5.50498 18.7718 66.7521
5.35433 18.8709 67.6648
5.43347 18.9858 66.4265
5.25271 18.5629 68.7887
5.54961 19.1452 67.9743
5.44092 19.0818 68.6976
5.44325 18.97 69.1522
5.55002 19.3484 68.2812
5.43445 19.2111 68.9338
5.46602 18.8278 67.4967
5.42503 19.2982 68.405
5.35834 18.802 68.5308
5.36229 18.424 65.5669
5.20896 18.3438 66.3725
5.2895 18.725 66.3877
5.23849 19.1952 70.9848
5.56869 19.7716 72.3191
5.64265 20.0043 72.9031
5.68623 19.6162 71.5244
5.63722 19.3764 68.7734
5.37394 18.6101 66.8944
5.29518 19.1387 68.6577
5.34674 19.053 69.0004
5.38008 18.9492 67.7218
5.27623 18.996 69.0029
5.29364 18.7698 68.1545
5.26229 18.8298 69.3996
5.30278 18.1657 65.6066
5.10742 18.5624 68.1201
5.23861 18.2775 66.5103
5.20226 18.8982 67.6805
5.16695 18.569 68.3646
5.18063 18.2007 67.3659
5.19107 18.1548 67.0178
5.20234 18.4587 67.9814
5.2618 19.1249 68.7237
5.26549 18.6726 67.3697
5.15569 18.7241 67.1746
5.07614 18.3277 68.8701
5.25899 18.5959 68.191
5.16059 18.4232 69.2143
5.28858 18.2965 65.6798
5.03726 18.4241 68.2729
5.16218 18.3107 66.3973
5.03227 18.1804 66.8482
5.08755 18.3412 67.3746
5.11731 18.2039 66.681
5.03628 17.9607 65.0957
4.92925 17.7249 65.4106
4.92359 17.8961 65.8399
4.95129 17.8748 65.6741
4.92714 18.0751 66.5385
4.93514 17.9722 66.813
4.98455 18.0536 67.6672
5.00058 18.0481 66.8187
4.95616 17.6164 65.3329
4.92108 17.7688 65.9892
4.937 17.8764 66.0051
4.91639 17.9018 65.786
4.88812 17.9567 65.148
4.8164 17.8932 67.8934
4.98901 17.6789 65.2207
4.86741 17.8551 66.8845
4.95542 18.0775 66.5821
4.86858 17.6497 68.0683
5.09649 18.4722 67.4647
4.94501 17.8072 66.4983
4.89151 17.8699 66.3748
4.85611 17.654 66.4578
4.88909 17.6872 66.0376
4.85971 17.7675 65.8958
4.7854 17.128 64.7234
4.78084 17.3403 64.9669
4.77365 17.3873 65.0965
4.75349 17.2341 65.4197
4.82384 17.7405 65.5094
4.77142 17.6605 67.1266
4.86866 17.4445 64.479
4.71853 17.5475 65.8123
4.82505 17.9821 66.2374
4.76507 17.1831 65.294
4.80242 17.8972 66.7634
4.8323 17.8298 66.1958
4.76057 17.1955 65.955
4.79474 17.4518 65.9331
4.79683 17.8378 66.5113
4.77887 17.4391 64.8202
4.7122 17.3384 66.4734
4.76744 17.4881 66.5759
4.80345 17.7418 66.7346
4.74981 17.2438 64.9219
4.65535 17.1017 64.9
4.68321 17.4978 65.3293
4.65916 16.8229 64.2601
4.64301 17.273 65.502
4.71109 17.6601 67.5008
4.80721 17.4307 66.4466
4.76261 17.3958 66.5086
4.83192 18.2258 66.102
4.64302 16.9051 64.4735
4.64197 17.4594 66.1029
4.70305 17.089 63.4975
4.49882 16.567 63.6233
4.54622 17.3531 66.5218
4.69071 17.1205 65.1109
4.63847 17.3679 65.7899
4.63002 17.3702 66.014
4.63038 16.552 64.9187
4.60542 17.337 64.9777
4.55334 16.9281 65.15
4.62326 17.0814 65.4325
4.62294 17.7088 66.3536
4.64198 16.8912 64.7944
4.57478 17.6763 69.4317
4.86322 17.7134 66.8232
4.65364 17.0577 65.0015
4.55162 17.2266 66.0577
4.60603 17.0714 66.6303
4.68161 17.2971 65.887
4.59821 16.9951 64.2029
4.47981 16.3579 62.9043
4.46594 17.2619 64.8045
4.48178 16.7062 64.5454
4.55006 17.1001 64.7242
4.50562 16.8317 64.8746
4.52059 17.1155 65.0219
4.4989 16.5728 64.5039
4.49805 16.9883 65.0116
4.50263 16.9723 65.2945
4.52967 17.4494 66.86
4.61252 16.5876 63.6829
4.4505 16.9555 63.5891
4.31949 16.0335 62.7775
4.35939 16.9159 64.374
4.44386 16.3552 63.1375
4.36112 16.5835 65.0833
4.48449 16.8365 66.0537
4.56346 17.3674 65.2537
4.45725 16.8747 65.2711
4.46828 16.9137 65.9652
4.53106 17.017 64.5252
4.40203 16.317 63.3621
4.36739 16.509 63.8937
4.38227 16.4773 64.4428
4.39403 16.526 63.9397
4.37015 16.6985 65.1612
4.45987 16.9878 64.712
4.43453 16.2517 63.1383
4.29758 16.3899 64.5904
4.42616 16.509 64.0406
4.37022 16.9969 65.3413
4.44489 16.8844 65.2336
4.39854 16.5685 65.3125
4.4165 16.5245 64.3529
4.39182 16.346 60.9099
4.14069 16.3016 63.1696
4.28889 16.0457 63.8681
4.35472 16.5065 63.111
4.24224 15.9602 64.665
4.4319 16.4228 62.9832
4.2988 16.4816 63.8308
4.34273 16.3475 64.781
4.41189 16.9206 64.1005
4.27533 15.9879 62.2031
4.22613 16.3319 63.1145
4.24937 16.1385 63.5143
4.27975 16.298 64.5284
4.33718 16.2254 64.1649
4.33276 16.3548 64.4451
4.35873 16.9552 66.1
4.44463 16.8459 63.6031
4.26426 16.4996 65.3977
4.383 16.2407 62.3125
4.17769 16.2514 64.3111
4.30762 16.3375 65.1298
4.35181 16.1061 63.6277
4.2936 16.368 63.8072
4.30781 16.6685 64.5351
4.31094 16.5437 64.7066
4.30224 16.3765 63.4744
4.24295 16.3281 65.5361
4.3756 16.3926 63.3021
4.20712 16.2896 64.0144
4.25478 16.4234 63.7693
4.24734 16.0676 63.3984
4.21778 16.3723 64.2927
4.29896 16.5127 65.3924
4.37086 16.2448 63.544
4.25797 16.2038 64.7806
4.32616 16.8544 65.9042
4.35814 16.455 63.8378
4.27063 16.24 64.2236
4.26158 16.5334 64.8616
4.2858 16.2275 64.6445
4.30346 16.4648 64.4329
4.28077 16.1011 64.091
4.24779 16.5337 65.5963
4.3653 16.3786 63.3365
4.21066 16.0487 63.1231
4.17423 16.1892 65.0965
4.30426 16.4283 63.9744
4.22904 16.2133 64.5371
4.28007 16.3505 63.9344
4.2516 15.9846 62.4124
4.11676 16.141 63.8675
4.23583 16.5136 65.3809
4.30741 15.9785 62.5858
4.12252 15.8745 64.2453
4.23772 16.3488 64.1065
4.25297 16.759 67.3194
4.40584 16.7349 64.201
4.21948 16.5147 65.095
4.26833 16.2355 64.0164
4.22198 16.0833 65.2777
4.33624 16.4539 64.8027
4.26484 16.5689 64.7412
4.22395 16.0352 64.4481
4.21657 16.1305 62.9615
4.15003 16.2777 63.5263
4.17138 15.9471 62.5417
4.09465 15.5367 62.2613
4.08203 16.6054 66.8359
4.37481 16.3272 63.858
4.19431 16.3401 63.4455
4.10266 15.6615 63.7102
4.17984 16.7794 65.3118
4.25998 15.9555 63.5641
4.15875 15.7455 64.0302
4.2004 16.0091 62.7409
4.10415 15.6746 62.8716
4.12152 16.2606 63.2534
4.10499 15.8434 63.2892
4.14894 16.5969 64.6581
4.19192 15.611 63.5794
4.15764 15.9072 64.1812
4.17641 16.0861 64.864
4.22799 16.0343 62.2385
4.07451 15.6302 63.0255
4.10954 16.5133 64.1774
4.16883 15.9889 63.8536
4.16998 16.3239 64.1643
4.16786 16.0333 64.1959
4.17599 16.6552 64.3295
4.16928 15.3279 62.39
4.07112 15.9583 63.9564
4.14898 16.286 64.4886
4.22641 15.8033 61.4768
3.97498 15.7614 62.7277
4.07963 15.9718 64.566
4.21004 16.271 63.934
4.12508 15.8457 63.9872
4.14032 16.0868 63.1431
4.11329 16.2379 64.7936
4.20212 16.2247 65.0625
4.20722 15.9954 63.9819
4.13111 15.9913 61.9167
4.01795 15.8773 63.8451
4.15635 15.9426 62.4608
4.03316 16.0542 63.6378
4.12533 15.9754 63.9447
4.14624 15.561 62.8136
4.08651 15.8224 63.1471
4.08763 15.8757 62.9853
4.09289 15.7608 63.7772
4.14772 16.2927 64.8104
4.19597 16.0681 63.7253
4.12729 15.8022 62.0748
4.02247 16.194 65.2648
4.19061 16.2681 64.3859
4.17185 16.2041 63.8838
4.11443 15.7453 63.6541
4.11142 15.985 63.0173
4.07035 15.6242 64.248
4.15737 15.7374 63.1419
4.0884 16.4214 63.2812
4.07176 16.2398 65.2168
4.20388 15.4462 62.6789
4.0533 15.7948 63.709
4.11728 16.1884 64.038
4.11976 16.0532 63.434
4.10322 15.7189 64.4288
4.14116 16.0892 64.8469
4.19935 16.3063 64.8522
4.17869 16.0206 63.9252
4.12868 16.257 63.5644
4.09856 15.9775 62.8347
4.06321 15.861 63.6298
4.10865 16.1106 64.7302
4.18738 16.3133 64.5857
4.14314 15.8246 62.6901
4.0635 15.6634 63.3002
4.07486 15.7761 63.5944
4.14899 16.0643 63.7383
4.11197 16.0368 63.1126
4.09547 15.7097 63.9023
4.12335 16.1805 65.6631
4.2258 16.3442 63.2891
4.08234 15.8474 63.6969
4.10845 16.1596 64.8664
4.18334 16.1742 64.3255
4.16026 16.1162 66.2408
4.25912 16.3132 64.8029
4.16438 16.741 66.5116
4.28348 16.6561 67.0338
4.30673 17.0989 66.715
4.30045 16.5079 68.4937
4.41538 0 0