# pn-170911/RbIIA-36-RbIIR-1280-1959.psd
# Power spectrum* (dif=0,1,2) (really just |FT|^2)
# NOTE: only the first half! (symmetric)
# weeks: 1280-1959
# 2866 clock-days, 656 excluded
# PSD: 1441
3634.64 0.202606 0.0288481
313451 5.55242 0.0147528
1.08787e+06 22.0019 0.0159463
306720 10.9999 0.0155277
205683 13.3766 0.0163756
97763.2 9.45599 0.0160852
68341.8 9.71929 0.0175833
47856.5 9.14065 0.0177311
38229.4 10.0952 0.0183024
29142.1 8.83604 0.0190981
27407.2 10.8 0.0202986
18819.6 8.23527 0.0208387
17876.2 9.26479 0.0223353
12863.7 8.6243 0.0222398
10723.8 7.73268 0.0223069
9566.9 7.93874 0.0255904
8064.94 7.81645 0.0252624
7143.5 7.88154 0.0267019
6363.73 7.62679 0.0276069
5344.83 7.4741 0.0282119
5142.78 7.65865 0.029701
4588.81 7.76067 0.0321154
4365.71 8.30791 0.0328739
3822.61 7.83886 0.0349936
3748.72 7.85738 0.0381243
3236.36 7.54961 0.0377125
2994.21 7.43084 0.03943
2716.65 7.60753 0.0430416
2577.94 7.50732 0.0437889
2614.28 7.93503 0.0473284
2466.2 7.95835 0.0542653
2178.81 7.57092 0.0516521
1969.5 7.39644 0.051311
2008.69 8.28353 0.0577696
1748.28 7.51357 0.0573088
1702.19 7.92854 0.0620178
1521.85 7.57513 0.0620356
1523.57 7.74583 0.067434
1451.08 7.53904 0.0678394
1357.18 7.36709 0.0689572
1281.11 7.50929 0.0735836
1272.59 7.77537 0.0787222
1235.17 8.06352 0.0829041
1112.14 7.8432 0.0851394
1061.5 7.67088 0.0865025
1012.61 7.9247 0.0931296
1023.87 8.02736 0.0984252
946.292 7.88369 0.0981385
931.856 8.22028 0.10469
889.6 8.01484 0.110954
831.77 7.99611 0.110481
812.151 8.05489 0.116795
821.669 8.20462 0.119563
763.642 8.21729 0.125158
806.882 8.63346 0.140058
732.334 8.62934 0.140812
716.892 8.57553 0.143693
718.559 8.6668 0.148985
662.667 8.50728 0.153638
633.741 8.6948 0.163533
623.334 8.40741 0.156994
619.632 8.9993 0.174851
611.125 8.61278 0.173395
574.497 8.71172 0.183255
568.64 8.93186 0.191539
562.952 9.01131 0.197825
563.454 9.05195 0.204281
538.44 9.15079 0.211739
514.834 9.22574 0.216192
527.57 9.70424 0.237826
501.019 9.13043 0.230432
485.254 9.51047 0.243135
495.53 9.62052 0.255622
467.254 9.55487 0.254557
454.107 9.34867 0.261418
443.306 9.86723 0.281936
441.907 9.97975 0.290983
424.374 9.79014 0.290777
418.079 9.73991 0.300725
398.633 9.5925 0.301451
405.146 10.0884 0.326884
392.915 9.92684 0.324246
400.607 10.6431 0.358294
389.88 10.4795 0.36464
373.337 10.4931 0.367574
370.836 10.5605 0.380973
365.024 10.5376 0.388447
348.097 10.3734 0.383183
352.512 10.8157 0.412863
347.323 10.9823 0.424595
337.391 11.0711 0.443012
345.962 11.3353 0.46335
325.268 11.1164 0.465141
329.686 11.4526 0.486532
297.444 10.7792 0.464456
317.472 11.4338 0.50464
321.619 11.8238 0.525244
291.427 11.1041 0.515049
297.557 11.6461 0.542508
286.658 11.3856 0.542933
281.109 11.3872 0.559556
293.496 11.8937 0.585826
285.968 12.1466 0.607165
275.902 11.7468 0.604018
281.99 12.1192 0.632545
267.824 11.9184 0.642601
266.529 11.9442 0.65231
269.147 12.3357 0.686403
269.046 12.5593 0.707079
263.722 12.4344 0.718176
252.055 12.3534 0.726786
260.644 12.659 0.755977
245.861 12.7618 0.77363
243.518 12.9498 0.803344
252.004 13.2764 0.834882
245.044 13.082 0.840585
245.844 13.3868 0.86464
240.759 13.1557 0.867132
229.598 13.0873 0.877203
236.099 13.4328 0.91892
227.553 13.28 0.919078
228.692 13.6437 0.965692
223.824 13.5206 0.969239
216.045 13.41 0.970085
226.421 14.0094 1.03427
222.14 14.1032 1.07093
214.88 13.5259 1.03019
211.327 13.6856 1.06384
211.209 13.9247 1.08873
205.011 13.8391 1.10183
199.019 13.4577 1.09818
204.198 14.492 1.20129
194.376 14.0458 1.16919
191.19 13.7811 1.16916
196.043 14.3747 1.24214
193.05 14.2112 1.2324
189.78 14.4382 1.27515
193.258 14.7715 1.3352
187.861 14.8095 1.35513
190.125 14.8107 1.36519
187.751 15.1843 1.42325
180.36 15.1874 1.43018
186.591 15.5503 1.49615
181.755 15.5726 1.52588
177.964 15.25 1.5037
183.98 16.0579 1.59521
174.722 15.2082 1.54223
177.39 15.7887 1.64186
174.491 15.7215 1.64782
173.925 15.7937 1.67304
170.568 16.0522 1.71219
172.566 16.2523 1.76468
167.836 16.1338 1.77344
168.08 16.5097 1.85454
167.64 16.546 1.86889
167.312 16.7789 1.91823
165.882 16.8654 1.95319
163.306 16.6403 1.94289
162.066 16.8108 1.99444
161.964 17.105 2.05852
158.227 17.009 2.08176
158.34 16.9539 2.08057
151.741 16.9716 2.11391
156.938 17.049 2.1436
150.537 17.1579 2.20894
150.704 16.9222 2.18817
150.635 17.2789 2.25948
148.939 17.4385 2.31267
149.234 17.4587 2.33562
145.063 17.3488 2.35176
141.813 17.0917 2.31105
140.307 17.3922 2.40919
139.397 17.2031 2.41017
140.795 17.7775 2.52288
137.477 17.3281 2.49022
134.422 17.3953 2.52612
138.906 18.296 2.67569
133.794 17.8427 2.64917
134.379 17.919 2.69458
138.941 18.8534 2.8412
130.817 17.7239 2.73767
131.05 17.815 2.74237
128.316 17.8336 2.80211
132.778 18.7761 2.97524
126.262 17.9974 2.89303
130.422 18.7799 3.02392
128.404 18.7476 3.05294
127.697 18.8351 3.10588
127.742 19.1916 3.21253
129.32 19.1686 3.2392
124.878 18.6694 3.15391
123.628 19.1305 3.30071
121.627 18.9645 3.31201
119.411 19.0192 3.33677
121.912 19.2238 3.40418
121.216 19.7263 3.51601
121.966 19.4532 3.50034
118.507 19.2812 3.52349
119.366 20.1306 3.71393
112.059 18.7624 3.49306
119.219 19.8517 3.75626
115.283 19.9107 3.78873
116.043 19.8825 3.84518
109.621 19.0983 3.70091
113.3 19.4825 3.82659
111.106 19.7815 3.90875
113.657 20.1199 4.00309
113.106 20.558 4.12861
112.121 20.3032 4.12379
107.838 20.0929 4.13744
106.813 20.0314 4.12812
106.883 19.9995 4.17358
104.848 19.8153 4.18537
108.716 20.8074 4.40348
107.528 20.639 4.44485
107.78 21.0753 4.56332
100.84 19.9383 4.35805
100.577 20.0438 4.47394
102.233 20.5448 4.58682
102.833 21.026 4.6873
105.477 21.4475 4.88269
101.771 21.0195 4.85478
101.35 20.8217 4.77058
101.729 21.3282 4.99014
101.372 21.6176 5.08103
99.2472 20.9945 4.98665
98.9953 21.2363 5.06629
95.4733 21.0187 5.05205
97.0653 21.3555 5.24292
100.057 21.7873 5.2738
96.3353 21.5244 5.31543
98.2368 22.43 5.58117
97.7577 22.357 5.66202
95.6385 21.8262 5.53829
93.6618 21.3001 5.45109
94.3438 21.875 5.63569
93.9045 21.9243 5.70749
92.0973 22.1413 5.81074
89.8968 21.8027 5.77572
93.9202 22.6035 6.01874
91.5172 22.6806 6.10089
87.6489 21.4858 5.81595
88.5708 22.1238 6.0662
89.6898 22.2712 6.07591
87.7885 22.0176 6.11801
90.9288 22.9588 6.42337
87.2292 22.6536 6.38124
85.7136 22.1478 6.35758
87.0741 23.0446 6.58257
88.5135 23.0483 6.63039
85.0565 22.3435 6.52402
85.7513 22.9153 6.72637
84.6514 22.7063 6.75562
86.9523 23.2982 6.91212
83.761 22.6541 6.78005
86.3479 23.3479 7.0453
81.1521 22.6224 6.88866
85.4154 23.7669 7.31904
83.4156 23.5713 7.24751
83.152 23.8348 7.45725
80.0155 23.1066 7.30071
83.0955 23.8716 7.58818
82.1101 23.4195 7.43637
77.5338 22.6975 7.29105
77.7341 23.157 7.48364
79.5593 23.5777 7.66778
78.034 23.5281 7.71125
76.2936 23.4891 7.77882
78.1791 23.7355 7.86324
74.1907 22.4726 7.58496
75.4823 23.4831 7.95225
75.657 23.3671 7.8894
72.8528 22.9678 7.91372
74.6278 23.584 8.14104
74.6625 23.3913 8.15453
71.8764 22.7344 7.95699
70.9208 22.9735 8.1739
70.9013 22.6443 7.97957
71.8374 23.3545 8.36493
72.0647 23.3117 8.37924
72.8864 23.5387 8.47656
69.3635 22.9707 8.43892
70.1519 23.4602 8.59411
70.966 23.6166 8.67837
67.6246 22.9975 8.65375
69.674 23.7211 8.9037
68.5326 23.3764 8.81557
67.6376 23.6396 9.03124
69.5057 23.7933 9.05584
67.2148 23.6596 9.13493
67.3555 23.7869 9.16339
66.2461 23.3505 9.1013
66.2875 23.7618 9.33112
66.066 23.6891 9.26602
67.3944 24.3797 9.85798
64.326 23.6441 9.48335
66.5746 24.4911 9.87751
63.9285 24.2052 9.76254
63.0341 23.785 9.76413
64.8216 24.4445 10.0324
64.1749 24.198 10.0491
64.3669 24.7575 10.3432
62.9436 23.951 10.0783
65.2296 25.126 10.6085
63.8658 24.6195 10.3848
63.5946 24.9251 10.7231
62.9429 24.9157 10.6523
60.9703 24.2343 10.5668
62.5975 24.8801 10.7499
60.1404 24.181 10.7019
61.242 24.7096 10.8331
61.9137 24.8792 11.0484
62.6476 25.5506 11.2856
57.3552 24.082 10.9721
60.6755 24.9453 11.253
58.4532 24.2817 11.0079
59.8076 25.3501 11.6224
59.6509 24.8582 11.4331
59.561 25.2222 11.693
58.5618 25.021 11.6478
56.8351 24.3238 11.5003
58.6477 25.1423 11.7979
57.467 24.8211 11.8051
56.4405 24.781 11.7928
56.4361 24.6339 11.7642
55.9935 25.0473 12.2105
57.1401 25.3351 12.2067
56.1995 25.4078 12.5194
57.562 25.6526 12.4462
54.3897 24.8271 12.3579
55.1345 24.7722 12.2891
52.7033 23.9515 12.0189
54.4822 25.108 12.526
51.4597 24.1556 12.4532
53.5305 24.2938 12.3001
53.8712 24.6544 12.5982
52.7062 25.3852 13.0231
52.533 24.9735 13.0069
52.6729 24.7058 12.8045
50.8297 24.4601 12.7581
51.409 24.8885 13.0658
50.4351 24.0958 12.7988
51.2891 24.8979 13.2415
52.0371 25.5334 13.5765
48.6214 23.8013 12.9236
48.2542 23.896 12.9828
51.5328 25.3592 13.6396
49.69 24.9338 13.6334
48.1923 24.294 13.4425
47.6949 24.4302 13.6152
49.1243 24.8404 13.8808
50.0938 25.2895 14.1702
48.9549 25.3937 14.3497
49.1548 25.1639 14.202
47.7049 24.5766 13.9024
48.1939 25.2503 14.5397
49.0096 25.8358 14.7174
47.9504 25.5543 14.6863
45.9367 24.506 14.3068
46.223 24.5162 14.3503
47.0049 25.5626 14.9996
48.1939 26.4271 15.624
46.7855 25.6374 15.1502
45.3681 24.9972 14.8178
46.6812 25.9067 15.6537
45.9688 25.1288 15.0061
45.1306 24.7893 15.013
46.4852 26.0975 15.929
43.3111 24.3349 14.9267
45.8513 25.7335 15.7215
43.7757 24.7908 15.3784
45.0886 25.8516 16.165
44.7041 25.5117 15.9581
44.1726 25.1732 15.6013
43.6442 25.6572 16.3995
45.2062 26.2183 16.4926
44.1161 25.3736 16.1499
42.3819 25.0196 16.1839
42.878 25.2993 16.2549
44.1528 25.7532 16.6042
42.0735 24.6995 16.127
42.4343 24.9596 16.1994
41.1991 24.7547 16.1573
42.0682 25.3317 16.6151
41.1833 24.9791 16.6871
40.1615 24.288 16.0661
40.9749 25.7931 17.3694
42.4485 25.8367 17.2733
41.9426 25.6548 17.2684
39.4315 24.5406 16.8808
40.5139 25.2272 17.2221
40.7853 25.8705 17.7163
39.8465 24.8615 17.277
40.0638 25.2891 17.4471
40.2616 25.7356 18.059
39.8256 25.2593 17.4569
39.0903 25.2638 17.5419
39.3784 25.8 18.2829
39.2411 24.9957 17.5861
39.0667 25.7603 18.386
37.8717 25.0696 18.1272
38.787 25.6278 18.4533
38.3364 24.7668 17.7781
37.926 25.1573 18.4208
36.7185 24.3397 17.5948
37.0049 25.324 18.6264
37.6369 24.8269 18.1841
36.987 25.1417 18.6019
37.0269 25.4394 18.9673
38.2167 26.1305 19.3434
37.3242 24.9238 18.5162
37.2354 25.3107 18.9592
35.9959 25.4083 19.223
35.6858 24.5043 18.6014
35.6302 25.1149 19.25
36.042 25.2105 19.3874
35.3858 24.9895 19.3714
35.6184 25.2544 19.4226
35.963 25.2709 19.433
35.0782 25.425 20.1764
35.55 25.2044 19.5996
35.658 25.835 20.3457
36.0891 25.6681 19.9364
36.0044 26.3735 21.1337
35.414 25.3249 20.0801
33.4512 24.5871 19.8001
34.1505 24.9878 20.035
34.2461 25.1671 20.3828
34.9524 25.3078 20.5645
34.1509 25.2181 20.4571
32.9225 24.7448 20.2241
32.3718 24.2473 19.8926
33.3247 25.0868 20.7353
33.2183 24.8264 20.4914
31.9973 24.0157 19.8101
31.9599 24.6918 20.7093
32.8121 25.0222 20.7842
31.7149 24.8597 21.3826
33.4275 25.7827 21.6348
31.502 24.9786 21.24
31.1267 24.4753 21.0812
31.5985 24.4103 20.7439
31.1116 24.6029 20.98
31.1006 24.6339 21.4331
30.8981 24.9837 21.9315
31.2735 24.5905 21.3263
31.1168 24.7908 21.3558
30.424 24.1922 21.3647
31.4651 25.9739 23.0666
31.0446 25.2886 22.3493
30.7881 24.8066 22.0451
30.3712 24.7593 22.1086
30.5058 25.0064 22.3482
30.3986 24.954 22.4162
29.4325 24.3904 22.2115
30.1878 24.9108 22.4466
29.1402 24.3575 22.5867
29.6605 24.7163 22.6043
30.5424 25.8943 23.6637
30.4168 25.719 23.539
29.782 25.3834 23.6654
29.7483 25.8746 24.3669
29.9899 25.1563 23.4059
28.7831 24.5472 22.7908
29.3555 25.2045 23.9225
29.2134 24.6669 22.9554
28.7841 25.0657 23.9621
28.7623 25.4889 24.2857
28.2862 24.7038 23.5096
29.4491 25.6807 24.9632
28.2692 24.3568 23.3913
28.1979 24.6108 23.9671
27.9373 24.5937 23.7041
27.712 24.536 24.2147
28.6978 25.2535 24.418
27.2793 24.7219 24.4335
27.715 24.9412 24.2069
27.6859 24.9803 24.5288
28.4154 25.7646 25.2525
25.8282 23.9993 24.358
26.4385 24.8931 24.9699
26.2136 24.6533 25.0622
27.4344 24.9851 25.2784
27.4307 24.7553 24.7505
26.9382 25.7159 26.7264
27.5924 25.3434 25.3668
25.3633 24.1657 25.0104
26.93 25.4518 25.9959
26.5934 25.1342 26.0171
26.6803 25.1729 25.7265
26.5475 25.7176 26.6756
25.3452 24.3229 25.4168
25.8264 24.6122 25.8071
25.1401 23.9128 24.952
24.7706 24.2809 25.8571
25.5896 24.7037 26.3364
26.4114 24.9795 26.1906
24.7669 24.0158 25.9061
24.8251 24.0871 25.8326
24.8675 24.4926 26.3983
26.1807 25.6609 27.4307
25.0237 24.7073 26.7228
24.7095 24.3634 26.351
24.6621 24.4291 26.6063
24.7622 24.8829 26.8946
24.3428 24.778 27.2185
23.5367 23.6502 26.3354
25.238 25.1211 27.6692
24.8506 25.0485 27.5441
24.2962 24.5247 27.3591
24.1698 24.8364 27.4647
24.2184 25.1467 28.1496
24.0242 24.6146 28.1615
24.9076 25.6665 28.6082
23.8098 24.4284 27.4182
23.3613 24.3677 28.1169
23.8726 24.7666 28.0415
23.1349 24.7228 28.3417
23.0431 24.1564 27.7886
23.2594 23.9417 27.3896
23.45 24.9096 28.7271
23.2374 24.8957 29.276
23.0835 24.1915 27.8735
22.8839 24.2592 27.8918
22.5758 24.2364 28.6427
22.5942 24.1699 28.1612
22.2604 24.3676 29.0936
22.0979 23.9622 28.1957
21.7702 24.3072 29.4404
22.6143 24.1183 28.686
20.9243 23.2774 27.8657
22.5098 24.8663 29.8146
22.3785 24.6398 29.5421
22.1104 23.8823 28.708
21.6173 24.1582 29.4812
22.15 24.7303 30.1139
21.3313 23.9231 28.8768
21.635 24.1724 29.6601
21.3398 24.0834 29.85
21.5357 23.7723 29.4301
22.0081 24.4861 30.1674
22.468 25.4331 30.9447
21.607 24.4192 30.4064
20.902 23.7508 29.5545
21.0191 24.3685 30.6735
20.8588 23.8549 29.792
21.4006 24.5306 30.8452
21.4655 24.5402 30.7565
20.6871 23.9157 30.3715
20.4248 23.8819 30.3332
21.03 24.2536 30.3975
20.0866 23.4776 30.4279
20.4715 23.8769 30.3681
19.8539 23.4811 30.2699
20.7266 24.3755 31.7278
20.1908 23.8212 31.2397
19.625 23.2271 30.8208
20.8068 24.6372 31.6962
19.9814 23.6819 30.8157
20.345 24.5088 32.0199
19.9022 24.0249 31.8727
20.105 24.4133 31.8751
19.6087 24.1038 31.9185
19.09 23.2457 31.3153
20.1384 24.1912 32.2176
20.2851 24.2191 31.9856
19.732 24.4212 32.502
19.5854 24.4316 33.3873
19.4515 23.8376 32.1008
19.6482 23.9955 32.6094
19.7196 24.1982 32.7661
19.6012 24.4759 33.5349
19.2322 23.871 32.506
18.8218 23.4018 32.0106
19.425 24.6237 33.8338
18.8723 23.8368 33.0515
18.9195 24.109 33.7316
19.6608 24.9116 34.0785
19.476 24.3071 33.8032
19.0891 24.2716 33.865
18.63 23.6978 33.0701
18.2577 23.5696 33.3937
18.2789 23.0911 32.356
17.9894 22.9947 32.6681
17.7819 22.8895 32.0505
18.1973 23.745 33.8088
17.9985 23.363 33.5355
18.2865 23.7727 33.5724
18.6842 23.9834 33.9419
17.3647 23.0528 33.6498
18.05 23.63 34.0232
18.2704 23.631 33.6416
17.3558 22.7381 33.049
17.4999 22.959 33.4586
16.9734 22.4405 32.9629
17.331 22.8105 33.0634
17.2322 22.8051 33.5038
16.997 22.6619 33.4121
16.963 22.7658 33.4679
16.7079 22.8504 34.2309
17.4415 22.8836 33.6918
16.7197 22.3212 33.2445
17.1865 23.8881 35.1242
16.8711 23.1749 34.8909
16.8765 23.3719 35.3624
17.2455 23.2134 34.4669
16.5571 22.956 35.1181
16.9291 22.8558 34.2204
16.5096 23.0946 34.9233
16.6741 23.2677 35.5068
17.0453 22.8751 34.6442
16.703 23.559 36.0181
16.2399 22.8842 35.5461
16.6918 23.366 35.6178
15.7733 22.1962 34.4023
16.4076 22.6583 34.9047
16.0966 22.9716 35.5826
16.1551 23.0435 36.0802
16.2447 22.8827 35.5349
16.2032 22.795 35.6278
15.8774 22.1832 35.0169
16.0872 23.0216 35.6604
16.1512 23.4069 37.1558
16.093 23.3008 36.6526
15.6067 22.1361 35.6113
16.0156 23.6672 37.0558
15.9087 23.346 37.2423
15.5626 22.301 35.7785
16.1214 22.5846 35.9924
15.6851 23.1932 37.2014
15.3369 22.7713 36.9772
15.4872 22.8612 37.4591
15.6385 22.7281 37.1034
15.3352 22.3387 36.153
15.5178 22.8159 37.0001
15.6397 22.9333 36.8725
15.2782 22.8612 37.7877
15.3915 22.7715 37.0634
15.1778 22.395 36.3257
14.8672 22.5749 38.1332
15.5291 23.1739 37.5796
14.921 22.8601 38.727
15.5803 23.1001 38.3593
15.3699 23.3087 38.4474
15.1298 22.7572 38.2546
14.8401 22.4589 37.7093
15.2377 23.3221 39.1817
14.9698 22.533 37.1638
14.4648 22.4164 37.6898
14.5355 22.3493 37.7883
14.2271 22.281 38.0242
14.3363 22.0216 37.7426
14.736 22.8529 39.051
14.6584 22.9379 38.9481
14.9377 23.5393 40.0251
14.6449 22.7962 39.0966
14.1003 21.9285 37.6476
13.8526 22.3058 38.5064
14.1783 22.7655 39.6697
14.2335 22.0372 38.0691
13.9931 22.4522 38.8474
13.8359 21.9594 37.7459
13.7705 22.0798 39.214
14.1598 22.4995 39.3739
13.7357 22.1062 38.5831
13.6442 21.852 38.7883
13.722 22.1805 39.0558
13.7002 22.2209 39.6645
14.1478 22.3793 39.6385
13.9323 22.4814 39.9607
13.7936 22.2561 39.483
13.6669 22.4337 40.0765
13.6572 21.2997 38.028
13.8861 22.7284 39.8337
13.5024 22.3424 40.2684
13.2807 21.7942 39.5591
12.9869 21.6472 39.638
13.2723 21.4682 39.6804
13.6877 21.762 38.7938
13.3351 21.8964 39.6888
13.0706 21.6015 39.7938
12.6977 20.8807 39.0957
13.4888 21.4802 38.7469
13.1893 22.2901 40.8104
12.8166 21.7583 40.5458
13.03 21.769 39.9059
13.1203 22.3582 41.6277
13.3457 21.7014 39.6391
12.4369 21.1017 40.3257
12.7021 21.2585 39.4255
12.613 20.8183 39.149
12.9868 22.1082 41.8039
13.4478 22.9394 42.909
12.8871 21.9375 41.9105
12.9286 22.0677 42.1099
13.3264 21.9778 40.1941
12.6311 22.0347 42.263
12.9346 21.634 41.4312
13.0349 22.1958 41.3609
12.672 22.0269 42.5662
12.3294 21.3968 41.564
12.6755 22.0382 41.5175
12.4155 22.0751 42.1217
12.319 22.1425 43.3828
12.9268 22.7045 43.399
12.5633 22.2331 43.1079
12.5344 21.6836 42.0436
12.3243 21.9813 42.648
12.2228 21.5303 41.5135
12.0033 21.5072 41.7807
12.0345 21.5118 42.5176
12.313 22.2261 43.9509
12.7669 22.3589 42.5182
11.8313 21.9425 43.7456
12.0856 21.2019 42.0152
11.9541 21.361 42.1835
12.1264 21.8876 43.3328
12.3046 22.2752 44.0136
12.1548 21.3668 42.2115
11.9413 21.0247 41.6137
11.4378 21.1752 42.261
11.4141 20.5886 41.2937
11.6164 21.2339 43.0138
11.6909 21.2719 43.2435
11.6711 21.0136 42.352
11.5704 21.2927 42.8568
12.0436 22.3836 45.3736
11.9172 21.7506 43.2931
11.4521 21.4579 44.591
11.8418 20.8718 42.1523
11.8294 22.3813 45.3898
11.9445 21.887 44.4906
11.2766 21.7146 45.0975
11.2792 20.68 42.3499
10.7236 20.6874 43.9806
11.2843 20.6634 42.6412
11.4836 21.8627 44.5515
10.9072 20.388 43.2361
11.4073 20.9096 42.9308
10.875 20.8513 43.5913
11.2263 20.9425 43.5699
11.0669 20.7435 43.8543
11.013 20.2299 41.8736
10.7093 20.8886 43.9543
10.7793 20.146 41.4148
10.6648 20.5865 43.5931
10.9572 21.3678 46.1426
11.2422 20.6728 42.7675
10.5798 20.8895 44.9399
10.8207 20.7822 44.6672
10.845 20.5799 43.1683
10.7053 20.9825 44.9418
10.6189 20.7208 44.8567
10.7239 20.6225 43.0883
10.7618 20.7122 43.9481
10.6212 21.2511 45.4899
10.4593 20.8156 45.1699
10.6394 21.2655 45.6458
10.2636 20.2843 45.1226
10.7276 21.0211 46.2376
10.849 21.4291 46.4165
10.5099 20.199 44.2013
10.7603 20.7869 45.3586
10.4789 20.6117 44.6433
10.1821 19.9963 44.7172
10.4249 20.8882 46.428
10.3814 20.0246 43.6583
10.5151 20.7345 45.0528
10.4587 20.9167 46.0203
10.3498 20.2881 44.0969
10.2308 21.0737 46.7859
10.2746 20.3094 45.1127
10.2275 20.7512 46.1512
10.3358 20.1973 45.0337
10.1366 20.392 46.1165
10.0847 20.1197 44.5614
9.82489 20.106 46.2547
10.268 20.4466 44.9957
10.1593 21.0961 47.5121
10.18 20.707 46.6308
9.9737 20.1471 45.5358
10.0559 20.6327 45.3242
9.53489 20.1365 47.1096
10.0712 20.0964 45.5105
9.6999 20.4585 47.1989
9.93369 20.3629 45.882
9.74028 20.2782 46.5076
9.70113 19.8943 45.9035
9.77007 20.0173 45.974
9.67872 19.9505 46.3575
9.68969 19.6012 44.3245
9.48808 20.1344 46.9614
9.55475 20.1773 46.9136
9.99985 20.5052 46.183
9.30114 19.6311 46.3725
9.90529 20.8967 48.182
9.46056 19.8967 46.6555
9.48326 20.4397 47.8922
9.53196 19.8409 46.5031
9.72182 20.0826 46.6671
9.46786 19.9558 46.5836
9.20005 19.4394 45.4853
9.14412 19.6254 47.5761
9.46887 19.2312 44.9379
9.36403 19.838 46.5967
9.40294 20.0498 47.4077
9.12185 19.4091 45.7385
9.1612 20.1209 47.9342
9.18925 19.8166 47.5966
9.45243 20.233 47.9079
8.95385 19.2841 46.871
9.46371 20.2727 48.4574
9.30637 19.8353 47.0395
9.12614 19.9225 47.8034
9.18878 19.341 46.6775
9.07521 19.5829 47.489
9.11088 19.6286 47.2247
8.95178 19.2202 46.3405
9.03817 19.8217 48.5577
9.38152 20.1197 48.3652
9.04406 19.8787 48.6028
9.14453 20.0645 48.6172
9.1346 19.9402 49.4186
9.18097 19.859 48.15
8.6436 19.0861 47.5798
8.70387 19.4872 47.7191
8.95168 19.4548 48.108
9.25667 20.1488 49.3065
8.99024 19.8552 49.0598
9.00443 19.6574 47.8263
8.66075 19.3192 48.5449
9.0889 20.2058 49.1986
8.77024 19.7504 48.9679
8.61352 19.2756 49.0439
8.79523 20.3087 50.0376
8.80342 19.8949 49.6899
8.63146 19.57 48.601
8.68623 19.1025 47.6992
8.52989 19.3241 49.5208
8.91544 19.7167 48.5318
8.51544 19.3244 48.4865
8.31274 18.8025 46.9385
8.18876 19.264 49.3891
8.58761 19.8099 49.8636
8.43243 18.8158 48.85
8.50399 19.0857 47.66
8.38642 19.0257 48.6151
8.54648 19.2663 48.8041
8.29704 19.0282 47.7029
8.11207 18.6734 48.508
8.29814 18.4493 47.2775
8.30122 19.2265 49.8585
8.37343 19.3657 49.2987
8.41414 19.2496 49.2515
8.60244 19.4232 49.72
8.25048 19.1248 50.0225
8.12693 19.0823 48.7055
8.02217 18.9698 49.2813
8.33534 18.95 48.4823
8.08521 18.9059 50.4653
8.38389 19.5796 49.8538
7.87106 18.8165 50.2708
8.25657 19.3759 49.9047
8.17038 18.6678 49.1746
8.05406 19.3349 51.3441
8.54869 19.9757 52.3047
8.28372 19.1228 50.8977
8.43986 19.4998 50.0449
8.13015 19.2036 49.9486
7.96646 19.586 52.1685
8.18445 19.0918 51.2058
8.15192 19.0613 49.3935
8.00986 19.4348 52.0135
8.2648 19.4248 50.5141
7.73096 18.4608 49.8784
7.98017 19.3626 51.1422
7.85268 18.9914 51.0548
7.88348 19.1605 51.6985
7.91896 18.8251 50.2487
7.75339 19.4132 51.7243
7.71543 18.235 49.4903
7.9091 19.2598 51.4339
8.02044 19.0588 50.6782
7.74994 18.8445 52.3239
7.89383 18.9267 51.8309
8.15503 19.1571 50.8791
7.82954 18.9702 49.6701
7.4212 18.3734 51.1632
7.74653 18.4984 50.0408
7.60157 18.5549 50.6962
7.64586 18.2838 50.1762
7.50665 18.2007 49.151
7.58573 18.5811 50.2323
7.42626 18.2809 50.663
7.58425 18.6706 50.8657
7.57583 18.5091 50.6253
7.5352 18.219 50.4324
7.48777 18.5484 50.5013
7.53587 18.1538 50.9953
7.63741 19.0866 51.6423
7.45264 18.4964 51.1774
7.54675 18.2728 50.1956
7.30555 18.3262 51.2435
7.57082 18.4545 50.93
7.4601 17.8265 49.2024
7.4318 18.8834 52.2913
7.31526 18.0781 50.8176
7.46856 18.5128 51.1018
7.14937 17.479 49.6053
7.3154 18.5437 52.9174
7.42792 18.036 49.1614
7.2003 18.1419 50.5357
7.04759 17.9791 51.135
7.31814 18.1848 50.2731
7.05883 17.851 51.099
7.2199 18.3886 51.239
6.99957 17.3244 48.9188
7.00363 18.2387 52.6413
7.33671 17.9937 50.0022
7.00929 18.0934 52.6561
7.30866 18.4795 52.6431
7.42545 18.366 51.9654
7.16884 18.6047 53.8051
7.38986 18.5153 52.599
7.07326 18.2692 51.7142
7.00694 18.1765 52.5783
7.12759 17.9779 51.5665
7.13074 18.5633 53.1502
7.10743 18.0743 52.1377
7.12488 18.2094 52.1938
6.80802 17.4703 51.6683
7.17576 18.1499 52.1627
7.08478 18.1585 51.9983
7.08217 18.8607 54.1164
7.01506 18.0658 53.0707
7.08616 18.3668 54.0759
7.2132 18.1299 51.6881
6.995 18.37 52.8299
6.70405 17.4166 51.3515
6.90675 17.5104 51.1212
6.82368 17.7207 52.7384
7.03672 18.1715 53.9474
6.97197 18.1581 52.6209
6.78486 17.6547 51.7802
6.90141 18.1521 53.2873
6.90241 17.8839 52.9719
6.88894 17.5577 51.1581
6.78188 17.6077 52.4336
6.73173 17.5452 52.1637
6.70717 17.4823 51.2573
6.59128 17.5169 52.0903
6.74987 18.0958 54.8289
7.02731 18.1884 53.2085
6.66904 17.4265 52.5278
6.75983 17.6074 51.7291
6.67191 17.703 52.262
6.66268 17.8155 53.426
6.76648 17.7544 52.5248
6.46624 17.6157 52.5143
6.65823 17.4315 50.6285
6.34843 17.2207 53.3052
6.67523 17.7069 52.3227
6.41691 17.4672 53.1721
6.55717 17.09 51.7379
6.70312 17.7516 52.8209
6.7072 17.9881 54.4736
6.59306 18.1702 54.6555
6.44884 17.2973 53.2724
6.66081 17.2856 52.2217
6.56591 17.8837 53.2843
6.49381 17.4037 53.2906
6.64327 18.2307 54.508
6.53601 17.543 53.6357
6.42916 17.5642 53.7564
6.45955 17.4843 52.9988
6.40299 17.3947 53.7602
6.51147 17.125 50.7816
6.30243 17.665 54.0174
6.25872 16.7517 52.8772
6.35542 17.0957 53.1201
6.3977 17.391 53.5511
6.42891 17.5823 53.5313
6.36487 17.22 52.1003
6.0981 16.9507 53.0232
6.31893 17.0028 52.879
6.47438 17.6672 53.7047
6.25528 16.9089 52.9363
6.22909 16.9591 52.1069
6.14814 17.154 54.5206
6.47761 17.8457 54.9576
6.25804 17.3095 54.6772
6.35399 17.351 53.9376
6.3378 17.1622 53.4706
6.17823 17.2405 53.5702
6.30222 17.3427 54.4279
6.35028 17.4554 55.2587
6.40922 17.5403 53.9383
6.15959 17.0453 54.3941
6.32651 17.1334 53.8628
6.23714 17.2842 52.5579
6.03577 17.0434 54.3496
6.20966 17.2034 53.5292
6.02408 16.9549 54.0632
6.20691 17.0918 54.4375
6.14174 17.0548 53.6975
6.14087 17.6142 55.8557
6.15861 17.0308 53.2431
5.9142 16.781 54.3609
6.07247 16.5956 52.5587
6.09818 17.319 55.3108
6.21589 17.5996 54.1843
6.09815 17.3271 57.0239
6.31973 17.1403 53.0463
5.95714 17.2778 55.4324
6.00126 16.8469 54.4779
5.99483 17.0187 54.4229
5.99779 16.977 54.0369
5.99907 16.6105 53.9137
5.91717 17.0609 54.6898
6.07428 16.7237 55.0487
6.16268 17.209 54.3078
5.92816 17.0806 53.9567
6.10124 17.1971 55.2508
5.91291 16.8242 54.4629
5.99529 17.3108 55.633
5.84519 16.2892 53.7208
5.91181 17.2039 54.5075
5.88275 16.7245 54.1867
5.81028 15.9915 51.4607
5.70908 17.1355 54.7736
5.73437 16.1381 53.4756
5.72108 16.7106 54.6522
5.81766 16.644 53.952
5.82529 16.6788 54.9333
5.97198 17.5474 55.8127
5.71713 16.1385 53.8212
5.72392 16.9271 56.0782
5.7295 16.0461 52.813
5.78043 17.1171 54.8218
5.63106 16.2007 52.397
5.61192 15.8369 52.7112
5.63743 16.2691 53.6859
5.63019 16.6227 54.3908
5.60006 16.2419 54.0781
5.68935 16.0948 52.4047
5.62358 17.0876 56.927
5.70902 16.6861 55.7826
5.81556 16.3172 53.2224
5.65139 16.4807 54.7909
5.59125 15.9341 53.2308
5.57421 16.4034 54.0011
5.66462 16.5958 55.338
5.78035 17.4694 56.8702
5.67897 16.3034 54.5151
5.5941 16.1511 55.0716
5.82002 17.0457 55.532
5.67043 16.6513 54.8244
5.4272 16.3381 55.0681
5.56645 16.5656 56.7844
5.91201 16.8335 55.3617
5.57598 16.6666 55.451
5.4965 16.4194 55.0047
5.50631 16.4127 54.9167
5.54016 16.7243 57.0729
5.6798 16.5237 54.1994
5.56145 16.4452 55.8427
5.547 16.639 55.4784
5.43411 16.1441 55.5389
5.72937 16.6886 56.1351
5.65515 16.7135 56.8012
5.62379 17.143 57.1666
5.55 16.5711 56.6158
5.63274 16.7147 55.8387
5.55063 16.7367 56.6417
5.431 15.969 54.3012
5.36838 16.258 56.3288
5.53069 16.5115 54.8311
5.34471 15.9235 55.6544
5.54938 16.7363 55.36
5.39607 16.1219 55.3254
5.37785 16.3039 56.3057
5.37379 16.0375 56.3962
5.61504 16.6167 53.9347
5.31162 15.5342 53.4137
5.32052 16.0492 55.8559
5.40552 16.4807 57.5391
5.5592 16.3542 56.047
5.4629 16.2986 56.3171
5.31942 15.8743 55.9329
5.3864 15.9575 54.4803
5.37812 16.9691 58.3169
5.47068 16.5475 56.2907
5.38645 16.1466 56.1758
5.41945 16.4204 56.9789
5.60192 16.4882 54.3106
5.18257 16.0011 55.69
5.22268 15.6554 54.752
5.11782 15.9268 56.0982
5.33884 15.6716 55.8498
5.34702 16.1609 56.5014
5.40015 15.7421 54.9387
5.30324 16.048 55.0175
5.33237 17.0517 58.1496
5.39937 16.141 56.7894
5.31463 15.7773 55.4452
5.36241 16.47 57.8382
5.43335 16.1339 53.8415
5.03542 15.8895 56.2553
5.21399 16.6566 57.4496
5.20379 16.0768 56.328
5.36449 16.152 54.3849
4.99517 15.4417 56.8023
5.28583 16.0914 56.7811
5.27602 16.3196 57.0368
5.30086 16.1988 54.2345
4.96678 15.7679 56.5036
5.20735 16.1483 57.7601
5.24376 16.1362 56.768
5.22944 15.8626 54.5281
5.00392 15.9495 55.8712
5.01746 15.6204 54.3991
5.03705 16.0098 58.344
5.21172 16.2522 58.7964
5.26521 15.8211 55.7347
5.1973 16.4031 58.2439
5.2019 16.0541 56.7139
5.16837 16.193 57.759
5.1731 16.5363 56.3758
5.08632 15.6092 56.0124
5.1637 16.1019 57.8007
5.27025 15.8494 55.8804
5.04281 15.8012 56.4068
5.13274 15.6691 57.4384
5.30493 16.6293 58.2066
5.16715 16.2756 56.7503
5.01111 15.8421 56.6861
5.13443 15.9437 55.2283
5.00518 15.5988 58.0475
5.14966 16.1322 58.0962
5.09836 15.6937 56.8023
5.15651 15.4249 55.4512
4.85019 15.7608 58.1019
5.21388 16.2589 58.4474
5.06775 15.9648 57.3631
5.08113 16.241 57.5442
5.03693 15.8409 56.8659
5.09309 15.9734 57.8418
5.15 16.2081 58.5192
5.13923 16.0311 57.856
5.10314 16.5053 60.763
5.28897 16.2945 59.9269
5.18455 16.2082 57.1564
4.95152 16.1961 59.4802
5.12063 16.2406 57.9239
5.12717 16.0262 59.3263
5.16105 16.903 60.8229
5.18961 16.6206 60.1588
5.20135 16.0598 57.566
4.96729 16.0804 58.6055
5.06793 15.9129 58.5822
4.98587 16.2755 58.582
5.0147 15.381 55.929
4.88014 16.5804 59.9289
4.9582 15.5642 56.2436
4.84617 15.5666 57.1192
5.06687 16.1407 57.8276
4.90931 15.3918 56.8581
4.84473 15.2713 55.3109
4.80518 15.6871 58.5225
5.02993 16.4497 59.1594
4.99677 15.9051 57.9905
4.98559 16.1898 58.8377
4.90186 15.352 56.8553
4.92361 15.5517 56.8438
4.86345 15.3259 56.7681
4.78632 15.2418 55.5388
4.81293 15.6865 58.6996
5.00885 16.3251 59.3003
4.98246 15.6363 57.6338
4.92859 15.9664 57.9976
4.84645 15.4697 56.5143
4.8453 15.4627 57.3141
4.72181 15.5281 56.6538
4.74941 15.3263 55.836
4.74299 15.5049 56.5951
4.77545 15.1892 56.4509
4.84967 15.4586 58.8805
4.9368 16.1759 58.3443
4.81009 15.5069 57.5224
4.79914 15.61 58.6272
4.84982 15.9014 58.9355
4.82167 15.5533 57.5306
4.78221 15.1238 57.8815
4.8888 15.7433 57.0804
4.75758 15.246 57.1414
4.7707 15.3205 57.1692
4.78351 15.7728 59.0675
4.8845 15.3804 56.7496
4.68636 15.2916 58.4074
4.85011 15.4431 56.7342
4.72682 15.7713 56.3093
4.6291 15.102 57.4564
4.61815 15.5508 58.4984
4.71875 15.0945 57.1029
4.67475 15.1579 55.8414
4.61623 15.141 56.2762
4.64207 14.87 56.2708
4.64088 15.372 56.3019
4.51984 15.4944 57.4605
4.67842 15.5976 58.7455
4.8336 15.307 57.7201
4.69781 14.7853 56.5172
4.63962 15.4286 57.5255
4.73162 15.4199 57.9434
4.70002 15.2199 56.9856
4.64267 15.914 59.4967
4.67676 15.2084 57.3405
4.70811 14.9504 55.7314
4.64258 15.0409 57.2906
4.81131 15.6536 58.0288
4.61189 14.9435 56.933
4.6628 14.9797 57.0517
4.65759 14.9169 56.7232
4.62239 15.2142 56.5834
4.45193 15.2932 58.3789
4.65356 15.1232 57.1038
4.6253 15.0967 56.2122
4.48149 14.5676 56.5972
4.5236 14.8889 55.6095
4.39472 14.8135 57.2307
4.49566 15.037 56.784
4.65153 15.0585 56.5998
4.58539 15.4129 57.763
4.53348 14.7404 57.4207
4.57158 15.5392 59.0175
4.62806 15.1208 57.2189
4.54544 14.8922 55.5823
4.53522 15.087 56.7595
4.47574 14.5387 55.3717
4.38313 14.8938 58.4703
4.62958 15.1762 58.8225
4.6386 15.1526 57.5537
4.54698 14.929 56.7095
4.47962 15.0261 55.6103
4.4215 14.732 56.5066
4.49347 14.9699 57.1852
4.50141 14.6427 56.4864
4.41632 14.7054 57.3615
4.52938 15.0501 58.5778
4.67649 14.8788 57.3555
4.52037 15.5058 57.3996
4.50615 14.888 56.25
4.39605 14.9825 58.8068
4.61119 15.2302 57.5774
4.50849 14.6716 55.895
4.40217 15.1188 58.0764
4.55622 15.2802 58.1454
4.5016 15.0944 58.2298
4.57752 15.0167 57.6941
4.59423 15.0065 59.5254
4.64163 15.1624 57.0791
4.49335 15.14 58.5207
4.57008 15.2921 57.6189
4.51603 15.0197 58.2992
4.5499 15.2771 59.1326
4.64926 15.3695 56.412
4.36951 14.9158 58.6649
4.55965 14.7855 57.7617
4.52337 14.7257 56.7929
4.42261 14.564 57.135
4.55294 14.6633 55.1432
4.28254 14.7462 55.0761
4.26581 13.8809 56.315
4.42979 15.2745 59.4303
4.68659 15.0422 56.5817
4.33463 14.4406 56.7427
4.46952 14.6836 56.3761
4.34481 14.5087 55.5648
4.20659 14.7139 58.3128
4.44932 15.0912 56.6602
4.33754 14.6871 56.9731
4.44847 14.3737 55.9421
4.4359 14.5408 58.034
4.55363 14.957 58.7328
4.5009 15.0761 57.2299
4.41799 14.7738 57.7223
4.45753 14.9236 59.0711
4.50847 14.9881 57.4883
4.3033 14.6683 56.125
4.25274 15.0395 59.2658
4.50567 14.967 56.9505
4.30173 14.4973 56.9217
4.32245 14.7074 58.7688
4.47983 15.1819 59.7136
4.50939 15.1453 57.2992
4.28846 14.3126 57.006
4.35733 14.9849 60.1412
4.39653 14.8385 56.6598
4.25412 14.6166 57.1699
4.32845 14.8967 56.7982
4.36162 14.3503 57.8041
4.38928 14.6445 56.6556
4.34548 15.1846 58.05
4.37006 14.4837 57.91
4.48959 15.0613 57.191
4.31385 14.9133 59.9086
4.52656 14.6011 56.8343
4.26834 14.7831 56.9685
4.34707 15.0374 60.2834
4.5846 14.8994 57.2583
4.36705 14.8216 58.2547
4.38999 14.9274 59.0441
4.48365 14.7535 57.934
4.36752 14.8782 57.0242
4.25463 14.8649 59.3885
4.39174 14.6095 57.2613
4.26118 14.3945 56.318
4.27447 14.6407 58.4153
4.36837 14.8281 57.1121
4.33168 14.8286 57.3932
4.27182 14.7716 57.5062
4.29724 14.6677 60.1677
4.53048 14.9811 56.8728
4.28676 14.705 58.5005
4.30323 15.7209 62.2544
4.54532 15.1326 61.0294
4.5917 15.3924 58.1881
4.33652 14.7309 59.619
4.40793 14.619 57.8652
4.31615 14.7731 59.4693
4.4166 14.9064 57.3473
4.27347 14.8249 57.9852
4.38574 14.6143 57.3613
4.24157 14.5637 57.5607
4.23413 14.8197 58.0381
4.35849 14.9173 58.2711
4.27348 14.1547 57.6043
4.24802 14.8634 57.9497
4.21411 14.7163 57.3357
4.31529 14.795 58.5736
4.36604 14.6857 58.5334
4.32624 14.7188 58.0157
4.22752 14.6336 57.5554
4.25493 14.6274 57.1922
4.27319 14.5664 58.9535
4.40307 14.6491 57.5312
4.34456 15.0063 57.31
4.19953 14.6489 59.6684
4.45741 15.0254 57.0803
4.23514 14.9709 59.0302
4.29605 14.0826 56.9571
4.24312 14.3222 58.0837
4.32195 15.3368 59.9638
4.48768 14.5996 57.222
4.22471 14.2096 57.8169
4.26224 14.5602 56.8892
4.20106 14.9146 59.978
4.46114 15.3002 59.917
4.48538 14.6908 58.4645
4.32861 14.338 57.7024
4.28867 14.6986 56.2149
4.06158 14.2836 59.2255
4.35593 14.7658 57.2851
4.22672 14.1016 57.2146
4.15727 14.6602 58.3576
4.23772 14.1349 56.5232
4.21506 15.0629 57.5302
4.27471 14.3823 59.0493
4.3567 14.7074 57.3863
4.20397 14.5643 56.8846
4.11754 14.5083 57.3981
4.19066 14.5868 56.8568
4.14863 14.5071 60.7721
4.37255 14.9997 58.077
4.14667 14.9195 60.1114
4.33563 14.8884 57.7556
4.29266 14.5714 57.7928
4.27915 14.7016 58.9179
4.17893 14.276 57.3383
4.10466 14.7457 59.0286
4.30895 14.8062 57.5896
4.23181 14.5917 59.0545
4.2893 14.9784 58.1388
4.14853 14.4848 58.941
4.24011 15.2953 59.1993
4.34426 14.8459 59.516
4.36129 14.8339 59.1788
4.20947 14.3969 58.0898
4.21431 14.6068 56.5952
4.16128 14.6797 60.2321
4.36475 14.3676 57.7629
4.29141 14.2518 56.6877
4.12526 14.567 57.97
4.21266 14.8943 58.6302
4.27814 14.5723 58.1624
4.29174 14.4443 58.4559
4.42461 14.6852 57.5566
4.21196 14.4797 57.8329
4.20507 14.765 58.4192
4.34371 13.9176 56.4826
4.2581 14.3216 56.6367
4.11522 14.5631 58.0483
4.1841 14.9551 59.632
4.34234 14.9297 59.0369
4.31926 14.7413 59.3838
4.25454 14.5918 58.3282
4.18007 14.4439 59.6057
4.36918 14.7413 58.5509
4.27229 14.568 58.7455
4.34764 14.592 57.8886
4.1978 14.3402 58.2889
4.19807 14.7575 57.4049
4.16944 15.2728 59.5675
4.36631 14.9181 59.776
4.31159 14.8106 59.622
4.23641 14.9422 61.714
4.43471 15.394 58.7928
4.26526 14.4003 58.9785
4.32172 14.9678 58.5631
4.24384 14.3291 57.0962
4.18643 14.6963 60.3229
4.28398 14.9724 58.4246
4.24632 14.5085 57.1963
4.21867 14.5238 56.8843
4.08559 14.6491 59.8469
4.33446 14.7536 60.5663
4.44246 15.5 59.9717
4.29082 14.8707 58.6236
4.26127 14.9687 60.598
4.31351 15.1314 60.8132
4.37934 14.8524 59.0976
4.31475 14.8704 58.0929
4.21106 14.7419 60.4666
4.34726 14.8818 61.7372
4.44046 15.0665 59.4727
4.40107 14.9844 60.1004
4.37143 15.417 62.8193
4.51488 15.3272 59.8853
4.35624 15.9334 61.9076
4.50463 15.3443 63.9197
4.74653 0 0