# pn-170911/RbIIR-58-RbIIF-1280-1959.psd
# Power spectrum* (dif=0,1,2) (really just |FT|^2)
# NOTE: only the first half! (symmetric)
# weeks: 1280-1959
# 1804 clock-days, 740 excluded
# PSD: 1441
1443.15 0.25985 0.0410617
46767.9 0.453138 0.0587828
388601 9.87824 0.0625793
20175.6 0.693383 0.0600376
118642 10.0197 0.0667885
7571.61 0.652569 0.0579095
9316.19 1.90409 0.0627186
3639.13 0.669808 0.0638998
4285.83 1.34021 0.0643577
2595.25 0.664101 0.0607159
2228.18 0.949459 0.0630168
1602.31 0.733273 0.0592141
1645.82 0.911806 0.0614309
1293.65 0.776725 0.0610664
1055.54 0.847579 0.0653232
1048.9 0.870319 0.0614607
921.643 0.948989 0.0637101
800.666 0.902888 0.0618965
836.051 1.01252 0.0645894
706.435 0.966151 0.0611498
654.004 1.04673 0.0674221
646.979 1.11158 0.0611181
570.575 1.11203 0.0630951
564.508 1.1562 0.064075
506.612 1.1977 0.0657117
457.023 1.20945 0.0634563
471.837 1.3061 0.0636901
439.838 1.29329 0.0704114
441.682 1.44151 0.0659003
421.732 1.50318 0.0711816
400.764 1.52287 0.0676709
412.336 1.65197 0.0706679
394.857 1.60505 0.0692282
368.422 1.65409 0.0714921
344.361 1.69638 0.0719457
355.544 1.85216 0.0652772
346.619 1.94534 0.0715688
348.405 2.06034 0.0774827
331.847 2.00095 0.0763829
338.73 2.18543 0.0806292
330.658 2.22625 0.0772582
300.054 2.20485 0.0795741
298.096 2.21089 0.0790173
280.038 2.30121 0.0888364
288.287 2.41854 0.0804801
283.438 2.54404 0.0879639
276.979 2.51785 0.0861162
287.559 2.76004 0.0918517
276.587 2.78789 0.0878234
275.077 2.77794 0.0988213
256.596 2.8225 0.0953495
265.076 2.92578 0.101659
264.666 3.1267 0.102969
251.924 3.11485 0.105071
238.101 3.11871 0.102432
254.734 3.36045 0.11313
254.485 3.52803 0.115273
239.918 3.42799 0.11412
247.315 3.67108 0.117266
225.013 3.49652 0.123084
248.669 3.84219 0.131857
224.246 3.67506 0.124887
243.387 4.07864 0.144753
214.07 3.83898 0.134842
216.409 3.97899 0.141518
212.453 4.10215 0.143089
208.682 4.13005 0.150217
213.393 4.36724 0.15118
206.573 4.28984 0.149193
210.956 4.52614 0.167961
213.665 4.78341 0.172753
191.944 4.37129 0.172412
201.791 4.67163 0.18088
198.163 4.64303 0.184072
202.085 5.01639 0.189439
193.751 4.85578 0.190251
194.187 5.03833 0.197247
190.157 5.08675 0.20953
200.009 5.45726 0.222718
185.361 5.23128 0.221226
187.036 5.41226 0.225558
189.878 5.73785 0.233669
178.975 5.50758 0.236999
180.21 5.66081 0.255036
183.774 5.9541 0.258014
189.189 6.23235 0.273315
177.394 5.96385 0.271233
175.523 6.07471 0.280581
183.248 6.44138 0.29645
174.473 6.4591 0.309347
173.305 6.43669 0.311989
166.888 6.28663 0.311149
167.049 6.46702 0.327605
166.565 6.73882 0.32663
167.412 6.70639 0.340909
168.912 6.9764 0.352818
191.023 8.04847 0.411793
157.647 6.7018 0.35599
164.728 7.26504 0.388589
162.155 7.19621 0.403736
162.269 7.29924 0.400629
170.651 7.89141 0.444608
163.612 7.7739 0.446663
160.721 7.61147 0.445308
155.261 7.46992 0.439356
162.421 8.21098 0.485767
159.807 8.14018 0.487921
155.228 8.14522 0.49786
148.294 7.88966 0.482982
157.974 8.68452 0.543591
154.266 8.44959 0.548057
152.486 8.68124 0.553862
146 8.34011 0.550588
154.421 9.20598 0.604624
147.733 8.80609 0.608461
149.858 9.1403 0.626846
147.654 9.23512 0.650324
141.415 8.94059 0.631432
142.891 9.20597 0.652194
140.788 9.03493 0.660325
137.929 9.07132 0.675002
137.344 9.42376 0.707382
135.881 9.39416 0.719421
145.801 10.2297 0.79916
141.156 9.86293 0.77517
147.499 10.4891 0.828184
142.228 10.5534 0.847322
134.799 9.92817 0.794961
130.84 9.9719 0.826072
136.24 10.3654 0.883459
131.092 10.1235 0.85981
134.541 10.6287 0.919546
140.236 11.147 0.969146
126.468 10.1618 0.902934
132.94 10.8531 0.979963
127.031 10.5995 0.970878
126.514 10.738 0.988038
122.148 10.3492 0.960694
124.638 10.91 1.0219
125.035 11.1408 1.07058
125.903 11.4768 1.12346
120.265 10.9897 1.09193
120.651 11.1651 1.11191
127.145 11.9736 1.20955
120.528 11.5912 1.18778
126.773 12.2422 1.2644
120.088 11.6785 1.23986
120.029 11.7872 1.26131
120.996 12.2547 1.31168
122.108 12.4642 1.35181
121.566 12.5356 1.36834
122.144 12.6806 1.4131
121.263 12.7486 1.43889
113.417 12.0205 1.36921
115.628 12.5503 1.45606
118.939 12.7983 1.50658
118.374 13.1597 1.56084
109.659 12.4926 1.50207
116.232 13.2654 1.60218
112.396 13.0453 1.59541
108.858 12.8939 1.58372
116.898 14.0738 1.78949
114.781 13.8326 1.74515
112.912 13.8036 1.75935
108.269 13.4367 1.75111
114.958 14.3459 1.89752
109.104 13.9278 1.88697
114.842 14.7751 1.98688
111.11 14.3072 1.95397
105.858 13.8859 1.91339
106.914 14.2811 1.99576
105.05 14.0744 1.95343
107.73 14.7112 2.09321
108.383 14.8742 2.13263
106.881 14.8131 2.17773
106.871 15.0271 2.21426
111.4 15.7315 2.35108
108.175 15.3726 2.29491
106.954 15.7317 2.40086
109.991 16.1087 2.46294
109.813 16.2674 2.52605
104.766 15.6545 2.44833
102.108 15.6469 2.49168
112.335 17.1308 2.73184
102.762 15.8668 2.58162
104.159 16.2777 2.66674
101.304 16.0508 2.65193
99.8108 15.7774 2.6381
101.298 16.503 2.78164
107.563 17.4038 2.97637
101.44 16.6667 2.86543
100.365 16.5165 2.87925
107.098 17.9511 3.1296
102.8 17.2595 3.05171
98.0962 17.0273 3.05326
103.645 18.1595 3.31636
103.063 18.0106 3.24233
100.085 17.764 3.27654
90.426 16.2474 3.03569
96.446 17.8188 3.36771
95.646 17.5618 3.32333
97.0391 18.0348 3.46576
95.1168 17.855 3.44768
99.0531 18.9455 3.68043
96.6798 18.459 3.66677
99.4703 19.1736 3.80689
94.1089 18.2015 3.6762
95.6678 18.8071 3.84172
99.4314 19.4957 3.94338
94.1308 18.8571 3.92622
93.828 18.8781 3.91807
94.6399 19.5562 4.11842
96.4785 19.8034 4.19883
93.3487 19.563 4.16059
87.3831 18.3852 4.04003
94.5474 20.2061 4.41394
93.0501 19.8001 4.33043
93.6851 20.3312 4.48066
91.2113 19.9972 4.50575
91.9184 20.3501 4.6299
90.6094 20.1007 4.54214
88.5313 19.8565 4.58246
87.3228 19.7736 4.6095
90.4401 20.4473 4.73116
88.7314 20.5364 4.8687
91.3743 21.1735 5.05746
87.9321 20.6408 4.96859
90.0001 21.0231 5.04779
91.4775 21.579 5.25322
88.5422 21.2808 5.23888
87.6628 21.3327 5.30591
87.6771 21.3887 5.25561
86.1061 21.2647 5.38471
89.6276 22.6269 5.79877
84.0664 21.0764 5.40599
84.9917 21.3488 5.46904
86.4954 22.1916 5.78689
83.494 21.5131 5.68114
85.4626 22.1108 5.8787
84.4705 21.9977 5.90026
83.2875 21.9627 5.92538
83.6583 22.3959 6.13402
84.9868 22.3516 6.08069
84.2793 22.9492 6.31865
85.079 23.4493 6.53658
86.2557 23.6267 6.58677
82.5307 22.8191 6.39306
83.3385 23.3887 6.68347
84.3005 24.0757 6.90039
85.2637 24.1454 7.00295
83.5117 23.7991 6.93249
80.2381 23.1522 6.88457
80.3234 23.2532 6.91474
79.9537 23.2545 6.94028
81.0404 23.6709 7.06135
80.251 23.9171 7.25036
80.285 24.1063 7.29898
78.0611 23.8105 7.34929
79.3483 24.0109 7.46713
76.5615 23.6311 7.37393
82.3089 25.4263 7.93646
79.3782 24.4871 7.69594
81.9952 25.7844 8.25392
77.8802 24.4757 7.79567
82.5207 26.8719 8.79229
77.3927 24.6931 8.02207
79.6354 25.7599 8.4862
77.9223 25.1614 8.24006
76.8478 25.3594 8.46828
74.2544 24.2613 8.05446
75.624 25.1857 8.53312
75.2283 25.3318 8.62207
75.1684 25.5381 8.79156
75.1576 25.4348 8.82646
74.9381 25.5726 8.86842
75.85 26.2224 9.23601
77.8862 26.7539 9.40593
76.2515 26.6401 9.43378
78.2101 27.5272 9.79013
71.1405 25.3105 9.21923
74.7944 26.7484 9.6766
73.9505 26.4211 9.59371
74.6197 27.1101 9.94899
74.0048 26.7776 9.91175
72.9623 26.4455 9.887
72.5169 26.6346 9.95042
73.0968 27.3631 10.4873
72.7113 27.1383 10.3705
87.9951 32.7918 12.2196
71.5387 27.9456 11.0196
74.1089 27.9811 10.7763
76.4752 29.0575 11.2524
70.3958 27.2706 10.7543
72.9458 28.2874 11.1748
70.7942 27.591 11.0102
70.0986 27.5616 11
71.3901 28.2319 11.4327
73.8893 29.2551 11.7356
71.2986 28.8668 11.864
69.2888 27.7005 11.2431
69.7643 28.74 11.9589
68.5174 27.8201 11.4391
66.8385 27.7328 11.581
66.245 27.7947 11.8744
68.9712 28.9172 12.2657
67.954 28.6869 12.3274
67.7125 28.5757 12.164
63.8145 27.5397 12.0289
66.0795 28.371 12.3735
64.9619 27.9848 12.2963
62.0631 27.3006 12.1869
63.0228 27.4885 12.3504
67.4879 29.5936 13.0922
61.9732 27.3591 12.275
64.3092 29.1555 13.4087
61.7789 27.3605 12.3905
62.7768 27.8858 12.6734
65.9344 29.7372 13.5764
64.3121 29.6093 13.7957
63.8825 29.3306 13.6682
63.0244 29.1695 13.7709
61.5344 28.3928 13.3583
61.6165 28.6928 13.5947
59.0843 27.7346 13.2886
61.1996 28.9791 13.9951
64.1768 30.3287 14.6424
62.1117 29.807 14.4405
60.3665 29.1911 14.3104
62.3604 30.2949 14.946
60.5956 29.2422 14.3144
63.1552 31.1022 15.3433
62.5188 31.0628 15.5417
62.6295 31.2204 15.8997
61.1115 30.3421 15.2233
60.012 30.0705 15.1924
57.1942 29.0103 14.9847
62.628 31.7815 16.1914
61.9508 31.6304 16.419
58.9545 30.5521 15.9875
59.2438 30.5181 16.027
60.1925 31.2347 16.3642
57.6016 30.0801 15.9504
59.4485 31.3869 16.7453
59.7174 31.5649 16.8235
58.1843 31.0889 16.8376
58.3015 30.8938 16.6642
58.1206 31.4091 17.31
59.4621 31.9068 17.4073
57.612 31.1325 17.0184
59.5435 32.7793 18.1108
56.5213 30.828 17.2334
58.7073 33.0242 18.6895
58.073 31.9137 18.0881
60.2847 32.9649 18.3399
55.1991 30.8689 17.4942
55.4901 31.1771 17.6308
55.4686 31.5098 18.0642
55.6373 31.6686 18.3029
56.3683 32.4767 18.7288
53.3413 31.0908 18.5304
55.7029 31.4443 18.1669
53.2374 31.2941 18.6666
55.2473 32.278 19.1385
56.1586 33.0983 19.8514
56.7089 33.3034 19.9297
55.8187 33.0896 19.9461
57.8853 33.8072 19.9081
54.3933 32.8059 20.0139
53.5603 32.4222 19.9705
53.5303 32.5829 20.0017
53.5558 32.4944 20.0855
54.1661 33.1248 20.4925
53.4555 32.56 20.4017
55.7894 33.8758 20.7377
55.1111 34.9489 22.2597
55.5685 34.8659 22.086
55.8778 35.3036 22.4881
52.4713 32.6068 20.6908
51.969 33.3451 21.5903
53.7884 34.303 22.11
52.079 33.3276 21.7105
53.5425 33.8369 21.8008
49.1505 31.8882 21.241
52.7531 34.3728 23.1481
58.9955 38.0662 24.3848
49.3297 32.7122 22.2449
51.1924 33.0356 21.735
49.3095 32.8774 22.1592
51.2078 34.6317 23.5595
49.7898 33.2892 22.6431
51.1807 33.82 22.7295
49.7225 33.8999 23.3629
49.5619 33.3118 22.8619
49.1856 33.2299 22.8299
48.8096 33.0832 22.6863
48.9988 34.154 24.1601
50.5132 35.0194 24.5621
49.6305 34.5697 24.536
48.1055 33.0246 23.3355
48.6762 34.4806 24.6685
50.7103 35.1173 24.473
46.5001 33.3209 24.3032
47.944 33.946 24.538
48.3043 34.2037 24.4297
47.2644 33.8713 24.4668
46.7701 34.4801 25.7064
47.7497 34.4748 25.2894
47.1103 34.3556 25.4996
46.8978 34.4393 25.7386
48.9203 36.1306 26.8372
46.1647 33.9675 25.5279
46.5456 34.0991 25.5406
47.4838 35.8134 27.2879
47.9807 35.7349 27.103
46.8984 35.2913 26.8761
45.615 34.5116 26.5419
48.191 36.0967 27.543
44.9758 33.6546 25.8173
45.6886 34.8281 26.8909
45.7975 35.8888 28.0207
46.2379 35.9406 28.3205
44.5376 34.6756 27.6147
45.2812 34.6011 26.7959
47.4788 37.2573 28.9584
43.0054 34.1916 27.6445
45.1599 35.9785 29.0714
44.1575 34.4777 27.5117
43.2098 34.8374 28.2615
42.4828 33.4073 26.8563
43.561 35.1821 28.5907
43.2687 34.6474 28.2647
43.173 34.4295 27.6664
43.5399 35.8865 29.7428
43.5828 35.4868 29.5578
43.0049 35.0167 29.172
43.9535 35.7769 29.1918
41.3541 34.5145 29.0471
41.6949 35.6985 30.6506
41.784 34.6453 29.417
42.8278 35.9191 30.611
43.5417 36.6779 30.8535
40.7266 34.1817 29.3223
40.7692 34.4226 29.4658
41.1073 35.3644 30.8942
43.2141 36.9225 31.8964
40.8471 34.9778 30.5592
39.8816 34.0694 29.3721
40.6912 36.117 32.1043
40.1137 34.8272 31.0265
39.9498 34.6975 30.7758
42.4242 37.0144 32.6114
40.0453 35.0963 31.4732
39.8636 35.175 31.7642
41.3666 36.6724 32.9523
39.4958 34.3828 31.0686
41.1328 36.5275 32.4744
40.4848 36.4505 33.1732
40.8156 37.3054 34.3906
40.0178 36.6503 34.1934
39.2138 35.454 32.9339
41.3765 36.5082 32.7076
39.0846 37.0498 35.2589
41.5377 37.8204 34.6309
38.6641 36.4659 34.516
39.4456 36.8483 34.674
38.9571 36.2557 34.314
38.641 36.2709 34.4933
38.9691 36.8827 35.3115
39.603 37.2207 35.8443
38.7904 35.8039 33.4777
37.056 35.6965 34.9314
38.187 36.4942 35.0102
36.8719 35.7285 35.5143
39.0922 36.7581 35.1791
37.2684 36.4083 36.0471
38.0864 36.5364 35.7428
37.7534 36.9612 36.6995
38.9962 37.4996 36.6428
37.4126 36.875 36.606
35.1854 34.9051 35.9897
42.243 40.4566 39.3043
39.1311 38.5034 38.183
37.5707 37.9802 38.4415
37.7794 37.8766 38.4145
35.4824 35.9846 37.179
36.39 36.1867 36.8921
36.6447 36.912 37.9152
37.2648 37.6061 38.398
37.3488 37.7467 38.6914
37.1188 37.5035 38.3805
34.8413 35.5832 37.04
34.213 35.824 38.2638
36.6857 37.2916 38.2025
34.9555 36.1633 38.0805
37.0113 38.8056 40.939
35.5313 36.6311 38.6016
34.7293 36.4506 38.8312
36.3431 38.3993 40.8
35.1575 37.4108 40.0324
34.5438 36.1645 38.8589
34.9815 37.5147 40.3909
34.9546 37.244 40.3326
34.8478 37.5821 40.8409
33.4443 36.28 40.1515
33.5729 35.4044 38.1507
32.0144 35.7598 40.812
35.5402 37.3817 40.6811
34.5357 37.0844 40.5412
33.8739 36.5172 39.9552
32.8402 36.1302 39.9712
32.004 35.4049 39.7938
33.6101 37.059 41.1558
31.9903 35.8595 41.0437
33.5572 36.0016 40.0265
32.5822 36.4776 41.5923
31.8478 34.9615 39.6434
32.7477 36.3372 40.3032
31.9823 36.2966 41.6009
32.2044 36.5338 42.082
32.8803 37.024 42.022
32.1349 37.0104 42.6829
31.9335 36.3648 41.5772
29.9279 34.7104 40.9257
30.3444 35.1531 41.7624
32.1461 36.4215 42.2966
31.5713 35.8871 41.3112
30.7115 36.3377 43.2118
30.829 35.3094 41.1894
30.6924 35.7334 41.7796
29.4768 35.5918 43.1358
31.6209 37.6875 45.4824
30.4583 36.0446 43.3447
29.8949 35.2901 43.0581
31.1622 36.7841 44.1591
30.0948 35.7136 42.9303
29.5003 35.5977 43.2981
29.3061 35.2995 43.33
30.0048 35.9489 43.8859
30.2854 37.0512 45.5575
29.2816 35.8518 44.514
29.1893 35.1801 43.5765
30.5105 37.7425 46.6517
28.6951 35.222 44.3167
28.7128 34.7961 42.8256
28.7412 36.0629 45.8997
28.3806 34.8724 44.3361
29.6171 36.6511 46.3602
30.2355 36.6961 45.4142
29.0392 36.7067 46.7241
28.7013 35.3928 44.6682
28.1672 35.0272 44.3874
28.1035 35.1329 44.5215
28.3142 35.9517 45.6127
28.644 37.3058 48.9757
28.337 35.4341 46.1685
29.9082 37.7533 48.017
28.6487 37.414 49.0489
27.5095 35.0392 45.6155
28.7741 37.601 48.7828
27.6396 35.9848 47.534
27.6329 35.652 46.6872
27.4968 36.2135 48.2243
28.8882 38.1208 50.4963
28.1521 36.6966 48.3609
26.3956 34.7374 46.7816
26.7754 35.331 47.3087
27.4692 36.6103 50.3539
28.3415 36.5351 48.029
27.5281 35.921 48.0262
26.6214 35.6549 48.3754
26.4954 35.185 48.3171
26.1926 34.8772 47.3976
26.8323 35.5336 48.9904
27.2997 36.4575 49.7386
28.1629 38.0072 52.8206
26.92 35.9178 50.9841
31.9403 41.6237 54.1599
27.5826 38.5276 52.7656
26.7798 36.6133 51.9074
26.1453 34.8932 48.1805
25.8092 35.4189 49.6482
26.2018 36.3584 50.7685
26.297 36.1965 50.8279
25.4239 35.2776 50.03
25.1316 34.8026 49.2292
25.3561 35.5012 50.3085
24.8867 35.6369 52.0437
25.9864 35.7919 50.2696
25.6236 36.2829 51.5902
26.3841 37.3282 52.4185
25.2703 36.8546 54.1573
25.8334 36.744 53.1544
25.4629 37.1452 54.5346
24.9285 35.1268 51.3595
24.3638 34.2989 50.2654
25.2166 36.3708 52.1101
24.4603 36.2295 53.9887
23.8149 33.8253 50.2728
25.1061 36.3841 52.9569
24.068 35.2209 52.9921
24.4445 35.3785 52.596
24.6102 35.9446 53.7985
24.9339 35.421 51.9803
24.7958 36.2407 52.7344
24.299 35.7643 53.2247
23.3917 34.4658 51.8641
23.4592 34.6432 52.7908
24.2426 36.1849 54.8557
24.2204 35.4687 52.5568
24.0049 36.661 55.4412
23.409 35.4726 55.0565
23.9892 36.227 55.8041
23.8819 35.8587 55.2303
24.5866 36.9613 56.5225
23.4719 35.0974 53.9652
23.0661 34.9626 53.888
22.8087 34.7092 53.9356
23.6173 36.0106 55.3817
23.0167 35.5699 55.331
22.1166 34.3789 54.7991
22.1874 33.4714 53.237
23.4301 35.4736 54.5119
23.019 36.0644 56.6305
22.7157 35.4387 56.4537
23.0913 35.8278 54.979
22.0233 35.0177 56.8492
23.0707 35.4496 55.9036
23.2076 36.7839 57.5397
21.6485 34.5875 56.1538
21.2946 33.5541 55.0361
22.0709 34.3894 55.068
21.8172 34.4944 55.3598
21.5003 34.176 55.2657
21.1085 33.2658 53.8263
21.2336 34.2201 56.3239
21.8434 34.7839 56.039
21.515 34.2247 55.7535
22.0086 35.4889 56.6667
20.4971 34.1387 57.5029
20.6974 33.0081 54.6332
20.7783 34.1287 56.9957
21.2616 34.7575 57.5323
21.8613 36.2853 60.6656
21.2944 34.345 56.9947
21.5623 34.7868 56.6055
20.082 33.3151 56.4387
21.0304 34.8934 58.3577
20.4236 34.1458 58.7779
20.5752 33.1089 55.0077
20.865 35.084 58.9452
20.4167 34.481 58.4767
20.36 34.3005 59.2791
20.1404 33.5491 57.8348
20.6518 34.3749 57.9065
20.3066 34.3391 58.4618
19.7583 33.4598 57.4737
20.2435 34.2761 58.5169
19.6648 33.9669 59.3358
20.0618 33.4456 57.6945
19.8987 33.5863 56.8036
18.8058 32.1239 55.9811
18.8033 33.1898 59.7648
20.1303 34.1081 59.3096
20.4075 35.2288 61.152
20.0666 34.7843 61.3569
20.2637 35.1133 60.4661
18.3461 32.0591 58.2604
19.63 33.7511 59.906
19.5261 34.0273 60.0353
19.3512 34.0814 60.5686
18.0643 31.3366 57.4194
19.2162 33.5671 61.3039
21.4771 37.3538 62.5778
18.0706 31.9518 57.165
17.727 31.8419 58.2195
18.7441 33.6319 61.1101
18.0732 31.8267 58.538
19.1378 33.489 58.7306
18.0084 33.1651 61.2288
18.0336 31.8914 58.2761
17.7222 31.186 58.0326
18.3824 33.2153 61.2207
18.5369 32.1453 57.3351
17.8713 32.683 59.8197
17.8705 32.497 59.6283
17.7057 32.4075 60.4373
18.072 32.5383 59.2205
17.6493 32.2119 59.3344
17.4533 32.6988 61.1862
16.6275 30.157 57.8421
17.4797 31.8121 59.1261
17.5991 32.5435 59.9834
17.3691 32.816 61.6644
16.971 31.4872 59.8901
17.7067 32.7288 62.0508
17.8478 32.7343 61.2107
17.1599 31.9486 60.5269
17.0816 32.0888 61.2702
17.5836 33.2595 64.1346
17.2561 31.0804 58.2354
16.8546 31.8954 60.3966
16.6303 31.1341 59.2559
16.8878 32.6303 62.4485
16.3497 30.9587 59.576
16.3125 31.5306 62.186
16.9286 31.9879 60.7018
16.3396 32.1882 64.208
17.0751 32.2746 62.1946
16.1416 30.5657 59.9098
16.6277 31.8045 61.3218
16.4643 32.09 63.3684
16.5257 31.3613 61.7226
15.9668 30.3489 59.3863
15.9887 29.9056 57.6102
15.1155 29.6311 60.0311
16.4299 31.4895 60.6511
15.5853 30.9805 62.5366
15.7837 30.2239 60.1214
15.7465 30.5339 60.0049
15.5451 30.8044 62.6898
16.3894 31.4958 61.6109
15.8307 31.5944 63.121
15.9184 31.613 62.9451
15.0878 29.7462 59.9015
15.1461 30.1371 60.5314
15.153 30.3764 61.7642
15.1409 30.4004 62.8403
15.4058 29.7494 60.7202
15.5034 31.2921 64.5344
16.3895 32.0964 64.1402
15.5065 31.2684 64.0684
15.3844 30.6836 62.6275
15.0884 30.8363 64.5788
15.5573 30.2029 60.8182
14.6623 29.9006 62.5873
15.0527 29.3956 59.7402
14.9305 31.019 62.806
14.6026 30.2814 63.0863
14.8826 31.1898 66.7751
15.2024 30.4326 63.7703
15.146 30.9909 63.885
14.4588 29.572 62.3471
14.9953 30.9551 64.1724
14.5807 30.2033 64.665
15.1471 31.4676 66.01
14.693 30.0495 62.7212
14.6308 30.3003 63.7995
14.6189 30.7594 65.1388
14.1731 29.0456 62.5255
14.3662 29.5847 62.5759
14.2477 29.6928 63.4952
14.5439 30.5674 64.5771
14.5569 30.7984 65.9485
14.6025 30.1843 63.6018
14.5325 30.3584 63.4786
13.8894 30.2582 65.8196
14.2631 30.3917 66.7454
14.5508 29.9828 63.7854
13.992 29.7625 64.3299
14.0325 30.0744 65.5985
14.155 29.9429 64.2551
14.035 30.2756 65.722
14.1767 30.6838 66.6314
13.96 29.7859 64.9775
13.9281 30.0394 65.6005
13.5227 29.2741 66.1103
13.6822 28.9498 63.624
13.6171 30.0569 70.3298
16.0564 33.9979 69.2228
13.2972 29.058 63.6957
13.1401 29.4018 66.2885
13.7171 29.7773 65.7861
13.6356 30.0357 67.0567
13.6391 29.6281 65.4843
13.2308 28.7406 63.7685
12.9419 28.7155 65.8548
13.4439 29.0684 65.0992
13.8827 31.0082 68.669
12.9987 28.8914 65.7351
13.1185 28.5126 64.9269
13.1697 29.3883 66.4323
12.9603 28.2054 64.9109
12.9326 28.3237 64.5812
13.3361 29.3577 64.4124
12.3794 27.5694 63.2768
12.6611 28.2949 64.2761
12.4886 28.0499 65.1744
13.1936 29.4304 67.3004
12.8816 29.3538 67.7048
12.5426 27.5693 63.9235
13.0748 29.5442 66.49
12.4172 28.3365 67.2594
12.6891 28.4279 65.6481
12.5301 27.9186 65.3493
12.7416 28.9348 67.5908
12.8343 28.9847 66.6423
12.4244 28.1028 65.517
12.6383 29.1741 67.8397
12.4921 28.2036 64.7273
12.0035 27.8787 66.4233
12.4428 28.9487 68.8204
12.6002 28.1841 65.4955
12.3873 28.6996 65.9152
11.7751 27.332 66.0095
12.3059 28.1043 64.4815
11.9015 28.4343 67.3063
12.3138 29.1361 68.8775
11.781 27.1556 66.3859
12.3097 28.365 66.9449
12.1996 28.6796 67.3665
11.9006 28.1139 68.0042
11.7311 27.0516 65.8027
12.0327 27.4003 65.0432
11.6584 27.2303 64.4668
11.5649 27.5214 65.0701
11.4302 27.9562 68.536
11.4975 27.298 69.0556
12.1682 27.7785 66.9042
12.0723 28.7438 67.34
11.7874 28.0247 67.6165
11.6861 28.9759 71.4369
11.5997 26.8933 66.552
11.6285 27.1091 64.6575
11.2241 27.564 68.5038
11.7485 27.4387 66.8476
11.5607 27.5345 67.4968
11.2623 26.5756 66.0519
11.9848 28.5654 67.3766
11.6665 29.1437 69.0947
10.9469 27.6276 70.5892
11.1433 26.716 69.9501
12.1407 28.3627 68.4481
11.6455 28.0852 67.2134
11.323 28.5005 69.1485
10.8974 27.8706 72.7448
11.3152 27.5325 71.6302
11.8107 26.8402 65.6011
11.1825 27.2713 67.7858
11.0768 27.5027 68.2604
10.9267 27.4138 70.4431
11.2026 27.2897 69.8867
11.4164 27.1007 65.8949
10.7304 26.9498 67.4191
10.8728 27.53 70.1768
11.19 27.7706 69.9535
11.1559 27.6571 69.3093
10.8336 27.1499 69.218
11.1026 28.1853 71.6906
10.6959 26.6224 70.558
11.1554 27.0362 69.0561
10.8601 26.2089 65.9401
10.8735 27.5517 68.7207
10.4765 26.8103 69.4039
10.5782 26.7826 69.7409
10.5018 25.7144 68.1242
11.0411 27.5019 68.1066
10.188 26.2654 67.6128
10.3394 26.8084 70.9349
10.4475 25.7572 67.6281
10.3595 25.7497 67.2077
10.5774 27.1204 70.1995
10.6559 26.8508 68.4991
10.4706 27.1068 69.6158
9.96157 26.4668 76.3917
11.9412 28.9121 71.857
10.5736 26.5893 68.0233
10.3327 26.8484 69.2096
9.98581 25.4156 67.5296
9.98444 25.792 68.1598
10.2023 26.0105 66.7962
9.83041 26.2015 69.6925
10.0182 25.7989 68.5285
9.9955 26.1306 70.0037
10.0972 25.2799 66.7442
9.81943 25.8209 68.5291
10.0276 26.0915 69.0251
9.79145 25.5576 69.2038
10.0345 25.6594 66.2607
9.39413 24.543 65.711
9.58485 25.5084 67.4196
9.45999 25.5043 69.8138
9.70243 24.9896 68.182
9.67764 25.2315 68.3548
9.66893 24.9282 67.1534
9.7797 25.886 68.6526
9.35834 24.072 65.5615
9.50565 24.7606 65.9437
9.40023 25.202 68.258
9.68903 25.7259 67.6371
9.3977 26.0218 70.4558
9.28071 24.0863 65.9988
9.1723 24.9167 69.4526
9.53531 25.0848 66.9371
9.35207 25.6692 70.264
9.26523 24.3478 66.1735
8.7415 23.6521 66.6876
9.26391 24.6768 67.1418
9.13263 25.0524 68.4966
9.33612 25.2338 68.0121
8.89681 24.3894 67.3612
8.80634 24.3147 69.9036
9.28428 24.197 65.6998
8.87054 24.5012 70.0274
9.34702 25.1251 70.6014
9.25664 24.0686 65.5521
8.93664 24.8797 68.0034
8.66537 23.5019 67.0343
8.96428 24.5226 68.5838
8.7689 23.7296 68.0659
9.09666 24.6237 67.4937
8.6236 23.287 66.4424
8.93171 24.3941 67.2966
8.78436 24.3354 68.7561
8.9 24.0771 68.3602
8.98141 24.3865 67.9034
8.73996 24.1405 68.8638
8.78084 24.1979 70.293
9.48957 26.187 71.1759
8.71286 23.62 66.019
8.54341 23.9637 67.0968
8.51333 24.2828 71.0063
9.04549 24.6759 68.1047
8.34885 22.789 65.5445
8.35645 23.5147 67.5839
8.34982 23.1858 65.4063
8.39651 24.1204 68.4566
8.31209 23.3507 67.9065
8.38199 22.8295 66.0993
8.20508 22.8849 66.7261
8.34723 23.8058 68.3659
8.53621 24.0944 68.037
8.38822 24.0188 70.4761
8.51981 23.5278 68.9006
8.68016 24.4934 68.1606
8.44999 24.0731 66.4305
7.73566 22.143 65.7976
7.91512 22.917 68.2727
8.16087 22.6742 66.1142
8.2803 23.6889 67.724
7.986 22.9931 67.4329
8.03405 23.1781 69.558
8.21786 22.9007 67.5222
8.03365 22.6698 67.2198
8.1622 23.2721 67.8792
8.02191 22.4863 66.594
8.02037 22.7581 67.5527
7.95819 22.7141 66.4866
7.90103 22.7313 67.7268
8.04157 22.7787 64.7853
7.41323 21.975 67.8625
7.9817 22.4855 66.5006
7.94368 22.1202 61.7048
7.27265 22.3 66.5187
7.86997 23.5981 69.8486
7.83889 22.6891 67.9129
7.73295 22.0555 66.3179
7.89633 22.8676 67.8441
7.68428 22.014 64.5692
7.53808 22.3951 66.8865
7.71098 23.6183 77.8701
9.26933 25.4884 69.9551
7.58241 22.4306 67.6963
7.78138 22.8318 67.9392
7.60472 22.1311 67.0744
7.55308 22.333 68.96
7.8111 22.3243 66.3527
7.68725 21.9725 65.3436
7.56666 22.9612 67.3789
7.24073 21.3652 67.6225
7.55382 21.2397 65.8512
7.71411 22.5292 66.9269
7.50184 22.0009 66.0243
7.38781 22.3788 68.7821
7.4457 22.199 68.2387
7.42851 20.9301 65.2206
7.44127 22.0849 66.7337
7.58783 22.5464 64.8574
6.95029 21.4875 68.1584
7.34366 21.6064 66.5291
7.29607 21.3729 65.5526
7.25871 21.3717 63.9979
7.0071 21.6547 67.8178
7.27281 21.5363 66.8882
7.27853 21.6068 66.5604
7.17302 21.4139 65.727
7.15709 21.3573 65.0813
7.09342 21.3499 64.8269
6.91871 21.075 66.7574
7.20187 21.6586 67.7793
7.24302 21.4381 66.0288
7.01422 21.0865 64.7372
6.84734 20.8032 66.288
7.22561 21.7465 66.4282
7.02682 20.7224 65.0862
6.98242 21.8808 67.641
7.0889 21.8609 68.006
7.12258 21.7892 68.8887
7.17612 21.427 66.5546
6.96508 20.9887 65.1126
6.80358 21.206 68.7789
7.18858 22.1704 68.6165
6.95363 20.5977 63.4395
6.54739 20.526 66.0832
6.87411 20.6298 63.1833
6.34971 19.5791 64.7826
6.86008 21.1027 66.1954
6.875 21.3461 67.6056
6.77113 20.1829 66.2082
6.97971 21.1175 65.5499
6.68248 20.2861 63.211
6.52658 20.0318 65.0701
6.74065 21.0276 66.5684
6.66719 20.3902 65.6832
6.81285 20.9347 64.6894
6.5539 20.7282 66.1485
6.74066 21.0873 67.0105
6.58266 20.1795 66.872
6.8081 20.8458 65.5418
6.60914 20.9036 68.2202
6.80531 20.3845 64.4667
6.55602 20.9032 68.0252
6.83412 20.9579 65.5369
6.43745 19.8952 64.9257
6.60062 20.747 66.8768
6.58202 20.5878 66.6514
6.55518 20.4276 68.3727
6.8812 21.2441 67.4048
6.63824 20.3744 66.1841
6.60073 20.8898 68.2377
6.75746 20.725 65.7225
6.34962 19.6035 62.8802
6.25111 20.3252 68.3367
6.72729 20.8572 65.2372
6.41395 20.9018 67.3005
6.37073 20.3839 67.3268
6.40177 20.0063 66.1747
6.43868 20.2729 66.6341
6.49159 20.5952 65.3922
6.37546 20.8043 68.6785
6.50295 20.6794 67.1513
6.31129 20.263 67.6045
6.45013 20.0674 64.7485
6.3043 20.7076 68.0819
6.20303 19.4768 66.2792
6.38215 20.0899 65.1453
6.14484 19.5882 64.4032
6.19712 20.7066 69.5246
6.56289 20.4321 67.0848
6.28161 19.8935 65.3472
6.28445 20.2761 67.5855
6.26346 20.2028 66.4994
6.26886 20.5849 67.1563
6.17987 20.0482 66.8063
6.26238 20.5574 69.4376
6.42057 20.2853 65.9154
6.08901 20.7491 77.3202
7.38558 22.6244 68.1721
6.14426 19.7971 65.336
6.02801 20.3883 68.7068
6.21515 19.9498 66.8238
6.22277 19.8552 64.9561
5.96086 19.7584 66.958
6.15605 20.2887 69.5939
6.36206 20.1565 65.9499
5.98833 18.8039 62.8046
5.88347 19.9483 67.1068
6.01834 19.3373 65.7946
6.06537 20.0463 68.4049
6.22105 19.7092 66.4625
6.06112 19.364 64.2405
5.85587 19.9623 69.6565
6.22522 19.9877 67.0419
5.97702 19.1985 62.8185
5.75294 19.73 66.9137
5.79641 18.7598 64.9064
5.79352 18.9043 64.902
5.96238 19.6631 66.3684
5.99519 19.5304 66.0684
5.89971 19.8087 65.7525
5.70143 19.0493 67.8929
6.11814 19.973 68.3009
6.09663 19.1342 65.5349
5.99991 20.2488 66.4118
5.7983 19.6334 68.2952
5.87605 19.0939 65.9485
5.7763 18.5825 64.6302
5.89567 19.7109 65.5103
5.73282 19.076 65.6999
5.74501 18.7196 64.2232
5.69036 19.052 65.7932
5.72067 18.5422 63.6813
5.72032 19.5653 65.9465
5.71772 19.3389 65.4084
5.64357 20.3183 72.1839
6.12506 19.4022 65.3704
5.73197 19.6407 66.8694
5.73625 19.0041 64.7294
5.56493 18.9573 66.2126
5.79633 19.7672 69.0536
5.74994 18.7673 65.8136
5.60865 18.4914 62.8034
5.40859 18.6935 64.7052
5.45427 18.7849 65.8878
5.56344 18.4458 66.2272
5.80001 19.0266 64.7135
5.45817 17.8582 62.8774
5.40867 18.2142 65.0509
5.58291 18.9191 66.2461
5.55941 18.3279 64.9561
5.65271 19.241 65.6538
5.51457 18.8982 65.4378
5.49771 18.6028 64.1674
5.33677 18.4324 65.9904
5.52553 18.6135 66.5038
5.59572 19.1088 65.7052
5.48056 18.703 65.3816
5.46501 18.3849 65.7802
5.55301 18.467 64.1904
5.33919 17.9608 64.1007
5.40971 18.0143 60.9156
5.13215 18.7425 64.9969
5.28727 17.797 64.7864
5.43221 18.1252 65.7751
5.60799 19.2536 66.423
5.5204 18.8876 62.7693
4.96903 17.0723 63.1386
5.28518 18.4434 66.3623
5.51583 18.521 66.1133
5.43234 18.5466 65.7261
5.41567 19.0748 66.4385
5.3312 18.1458 64.0934
5.20505 17.6926 63.794
5.17625 18.0377 66.8999
5.48494 18.1948 63.5048
5.30428 18.3842 63.5916
5.18337 18.2213 64.6544
5.18734 17.6293 63.7677
5.22501 18.2637 65.5643
5.29314 18.0366 63.5313
5.23923 18.5579 63.8908
4.99059 18.2518 66.8566
5.24124 17.639 66.4273
5.46645 19.0784 65.6115
5.2579 18.6328 66.9345
5.25673 18.499 67.7604
5.33489 17.6236 63.8469
5.29225 17.8723 62.8939
5.12589 17.9297 65.0656
5.26118 18.044 65.2235
5.22424 17.9789 65.9283
5.45471 18.8339 67.8907
5.35275 19.5522 76.6675
6.26464 20.182 67.6365
5.26179 18.0263 64.9258
5.39088 18.3526 66.6193
5.28194 17.9294 63.4081
5.0926 18.0463 66.8383
5.23652 18.6387 65.3041
5.20347 18.4975 67.8469
5.31487 18.4767 65.8321
5.11074 17.5028 65.5386
5.17364 17.715 63.6029
5.03864 17.8934 66.273
5.1788 17.5397 63.36
5.03999 18.5364 67.0162
5.10376 17.8135 66.5526
5.19686 18.1622 64.0907
4.89698 17.2258 64.0547
4.9421 17.2947 63.418
4.9323 17.373 66.5618
5.2306 18.3001 64.2891
5.03235 17.1164 62.3284
4.93637 17.8397 63.3576
4.81521 17.5832 67.5764
5.21762 18.0667 64.8806
4.99063 17.4732 64.0995
4.84424 17.5168 65.4764
5.09946 18.1353 63.6073
4.87711 17.1568 63.386
4.91942 17.4268 63.2403
4.86829 17.5674 64.6969
4.85869 16.9587 61.0845
4.69193 17.4082 64.0461
4.82376 17.3204 64.4979
4.89196 17.3009 64.9034
5.00849 17.107 61.4127
4.728 17.0006 62.9014
4.84965 18.0196 64.2933
4.72331 16.5652 62.9642
4.80384 16.5617 61.9799
4.67771 16.827 62.1412
4.75249 17.6268 66.0065
4.9468 17.7362 64.1204
4.82664 17.3974 64.5574
4.7694 17.1401 62.7725
4.66678 16.3659 64.5119
4.88473 17.2014 63.5578
4.76241 17.7577 65.8523
4.91748 16.6703 62.6588
4.78249 16.9859 62.772
4.78635 17.5825 64.6293
4.76198 16.7291 63.271
4.84332 17.5302 66.065
4.89482 17.5766 64.2113
4.82239 17.2947 62.8278
4.7242 17.1847 64.1346
4.64644 17.2234 66.9236
4.91269 17.4861 66.1676
4.88958 17.0635 65.6618
4.92983 16.9575 62.9907
4.71398 17.4458 63.9755
4.74324 16.6502 64.1709
4.72006 17.0902 63.3186
4.71729 17.5517 62.8499
4.57569 16.9948 63.9012
4.68139 16.4547 62.7019
4.65692 17.0085 65.055
4.80766 16.9229 63.1862
4.58445 16.7154 62.5403
4.61753 17.2962 62.3032
4.50676 16.155 61.418
4.49178 16.2829 62.232
4.51619 16.4012 61.5522
4.54321 16.7032 62.5942
4.59959 16.899 62.1943
4.48641 17.3519 67.3293
4.77539 16.6868 62.6385
4.57524 16.752 67.5438
4.91117 17.1954 61.7882
4.46098 16.807 64.8441
4.73255 17.2797 64.0904
4.52714 16.4916 64.4137
4.74692 17.4201 63.4109
4.49554 16.4551 63.3256
4.53753 16.3833 64.1956
4.67357 17.2486 63.7835
4.53536 16.3797 61.0072
4.46074 17.1033 64.5777
4.59456 16.6306 64.1117
4.62706 16.5357 63.8355
4.54678 16.828 64.5623
4.65538 16.7193 62.8747
4.51859 16.801 62.9913
4.52786 16.7172 64.55
4.52441 15.7662 60.099
4.33425 16.2527 62.9288
4.49172 16.6054 62.1993
4.48457 18.503 77.2843
5.41747 17.8763 63.2554
4.545 16.305 64.24
4.54178 16.6358 64.0973
4.62016 16.9156 63.5029
4.49347 16.7777 65.5228
4.64847 16.7226 63.0734
4.53191 16.628 63.5037
4.45745 16.0433 62.2594
4.49979 17.5666 65.0094
4.50264 15.9077 62.8623
4.51403 16.8923 64.7356
4.61483 17.2537 66.6597
4.65251 16.3989 61.1827
4.39168 16.8388 63.6938
4.49932 16.2972 62.5694
4.3425 15.6175 63.3715
4.5428 16.8015 62.8895
4.42782 16.4638 61.1089
4.24492 16.5086 65.4853
4.53837 16.0014 63.3949
4.48523 16.6367 65.4612
4.56205 16.3236 60.8155
4.27044 17.0024 66.0823
4.54888 16.6056 63.1362
4.39223 16.1537 66.0561
4.59867 16.3353 59.9054
4.20042 16.2977 64.0642
4.47542 17.5733 65.811
4.51917 16.3554 62.657
4.29225 15.6646 63.0851
4.36259 16.0088 64.267
4.4013 16.2663 63.3928
4.44541 16.6327 62.618
4.37882 16.7224 64.2319
4.36101 15.5593 62.7825
4.40004 15.9383 61.6481
4.29819 16.665 60.7847
4.17033 15.5382 62.9252
4.41857 16.4624 62.5304
4.3693 15.3799 58.5981
4.1763 15.8492 60.887
4.19985 16.3523 61.3386
4.21587 16.2322 62.1473
4.21901 15.6295 61.6647
4.27968 16.1812 62.9773
4.29135 16.1418 63.2084
4.33659 16.5842 63.3055
4.28983 15.8984 61.646
4.20606 15.9124 63.6672
4.36913 15.9319 60.4149
4.15776 15.6304 60.9981
4.19339 15.9732 62.2234
4.27341 16.513 66.1202
4.45709 16.1472 63.3748
4.32105 15.8502 60.3588
4.13368 15.4716 58.7915
4.04442 15.8762 63.767
4.30965 15.6425 62.4715
4.26013 16.5999 62.8478
4.19403 16.1754 62.0328
4.19976 15.9674 63.5526
4.28003 16.0773 62.8138
4.31834 15.9556 61.5185
4.17063 16.0429 62.6512
4.20995 16.0983 65.4413
4.40132 16.2807 62.741
4.21028 15.3998 61.8147
4.17472 16.2533 60.8873
4.04839 15.7367 62.1622
4.19712 15.6161 61.9201
4.19141 15.2395 60.2553
4.08508 15.5969 63.2603
4.32716 16.1941 62.4377
4.18233 15.2608 61.022
4.13047 15.92 61.1604
4.14331 15.4221 60.733
4.10057 15.1674 61.0295
4.13731 15.9041 61.6626
4.12348 15.602 62.2717
4.20674 15.5669 60.1054
4.06885 15.2693 59.43
3.97053 14.82 60.2521
4.11092 15.5318 59.6411
4.06998 15.7505 61.4632
4.12865 15.5842 62.9308
4.1717 15.5425 62.3929
4.22806 15.9337 59.3768
3.99388 15.8681 64.1436
4.2891 16.4533 64.7363
4.32038 16.1088 62.4737
4.26197 15.3058 59.464
3.96271 15.1486 58.0225
3.98013 15.0384 61.8567
4.12485 15.8931 60.4779
4.04904 15.7412 63.2435
4.23486 17.0454 77.1481
5.13035 17.1367 58.9374
3.92673 15.8434 62.8083
4.11565 15.7191 63.6895
4.20746 15.8163 61.6217
4.181 15.6116 60.6095
4.07836 15.5219 61.8071
4.16973 15.8907 59.8064
3.9652 14.6821 62.5698
4.20925 15.6947 61.6938
4.16623 15.8091 60.4949
4.01904 15.148 61.5268
4.1868 16.1321 64.0131
4.24624 15.4318 60.9666
4.13837 15.6769 62.2713
4.11166 15.339 62.9935
4.2901 15.7044 59.218
3.93776 15.394 60.3411
4.02238 15.4154 62.8726
4.14246 15.4974 61.3222
4.10287 15.5229 59.6122
3.96151 14.7211 59.9528
4.03231 15.9173 63.0187
4.18493 16.075 63.6388
4.16616 15.5114 62.2258
4.11493 15.7475 60.7801
4.01072 15.719 61.6477
4.04245 15.1644 60.542
4.01793 15.6778 60.6087
4.0106 14.8449 59.8456
4.00104 16.0886 61.1174
3.99383 15.6365 63.5533
4.18223 15.316 60.2592
3.9824 15.6316 63.5778
4.21097 15.2939 61.1794
3.99949 15.3641 61.8638
4.04813 15.24 61.6745
4.07977 15.6413 60.4777
3.98136 15.448 61.3496
4.04947 14.8999 61.3208
4.05228 15.3302 61.786
4.05962 14.9006 57.1525
3.79086 15.0014 58.9323
3.88232 15.134 58.0789
3.78967 14.9773 62.4724
4.09756 15.4743 61.3722
4.04586 15.2679 59.4848
3.90613 14.7879 59.3138
3.85714 15.4809 61.8342
4.0468 14.9012 59.9302
3.87324 15.0689 59.2887
3.9522 14.8962 62.8155
4.13089 16.2245 61.914
3.98477 15.4449 59.8699
3.91186 15.0992 62.1168
4.10304 15.4292 61.5838
4.09748 15.3252 57.8529
3.76925 14.8673 59.379
3.91441 15.07 61.8498
4.01523 14.6254 60.9383
4.04483 15.5788 60.5856
3.96664 15.8984 60.5221
3.98071 14.9883 60.1527
3.99396 15.1315 62.1962
4.1025 14.9539 61.3617
4.0387 15.5467 61.3412
4.02433 15.828 60.3129
3.88757 15.0901 63.5894
4.16479 15.2102 61.0384
3.97668 15.8492 62.6579
4.1374 15.8491 60.7219
4.01309 15.8494 59.9614
3.9395 14.9097 59.8826
3.90711 15.4773 62.6148
4.13191 15.6553 63.3601
4.14082 14.9697 58.0418
3.78489 15.1625 60.2986
3.91364 15.4511 61.4447
3.97546 14.9571 63.7153
4.13038 15.0945 58.5437
3.84649 15.282 61.1083
4.00594 15.4504 60.8525
3.99933 15.5451 61.5832
4.00831 14.9718 58.7582
3.83131 15.4536 61.3348
4.05619 15.2259 61.7841
4.04324 15.7917 63.0859
4.08348 15.4827 64.9083
4.19961 16.1316 61.0983
4.00344 15.3389 63.9598
4.18669 15.6039 61.4205
4.02596 16.4769 66.5046
4.32446 15.5007 61.6052
4.05511 15.8081 64.2884
4.19485 16.6293 63.8596
4.16673 16.452 67.0843
4.34729 17.3315 74.6626
4.82671 0 0