# pn-170911/RbIIR-av-WTZR-1280-1959.psd
# Power spectrum* (dif=0,1,2) (really just |FT|^2)
# NOTE: only the first half! (symmetric)
# weeks: 1280-1959
# 303 clock-days, 57 excluded
# PSD: 1441
1270.56 0.0890668 0.0510569
32459.1 0.764078 0.0792963
151208 3.03881 0.087182
18745.2 0.632785 0.0879862
45300.9 3.2543 0.0895718
7318.1 0.527637 0.0895787
5852.6 0.726447 0.0836269
3506.54 0.575134 0.0837704
3399.94 0.839289 0.102556
2117.89 0.526326 0.085368
1863.28 0.625394 0.0895848
1468.83 0.549922 0.0954204
1423.64 0.680076 0.0891738
1124.04 0.613351 0.0934161
986.141 0.744015 0.081672
890.122 0.636063 0.0907529
894.573 0.86808 0.0948763
730.717 0.705944 0.088081
742.218 0.870815 0.0847993
580.322 0.776292 0.0914546
617.504 0.995537 0.0886128
605.324 0.996475 0.0905156
606.934 1.0269 0.0823328
566.152 1.10471 0.0901041
589.233 1.40091 0.0963646
482.614 1.17902 0.0826161
546.101 1.48042 0.0946169
504.876 1.41636 0.0927551
520.661 1.603 0.108957
446.695 1.47718 0.087883
515.345 1.84716 0.0826814
515.005 2.05935 0.109711
478.712 2.02984 0.101398
401.292 1.83916 0.0957506
478.578 2.35718 0.102082
399.884 2.10007 0.100653
392.751 2.15691 0.101225
469.128 2.64694 0.102234
435.588 2.61653 0.0993845
429.842 2.7666 0.109812
431.853 3.17832 0.116846
436.745 3.22265 0.102753
412.442 3.16926 0.112133
437.14 3.474 0.107312
415.29 3.39818 0.117678
410.691 3.52714 0.103569
409.626 4.06846 0.11433
404.931 3.93541 0.12039
365.082 3.76153 0.132298
376.376 4.119 0.125351
416.675 4.89429 0.142218
369.05 4.46763 0.138623
371.131 4.48111 0.144831
360.885 4.47399 0.128753
407.651 5.20095 0.162606
339.66 4.69592 0.152621
336.625 4.57014 0.13589
361.685 5.19168 0.16342
344.941 5.19355 0.160217
350.295 5.63456 0.162614
362.446 5.82439 0.174593
360.418 5.86564 0.175102
366.791 6.17509 0.207693
284.831 5.00903 0.184426
280.923 5.30051 0.194578
305.645 5.74533 0.189836
275.014 5.3998 0.186239
289.006 5.94869 0.212751
277.251 5.76268 0.218479
290.235 6.31763 0.213351
305.75 6.6476 0.244858
311.956 7.04181 0.259492
289.737 6.97395 0.262968
290.525 7.25467 0.258346
327.732 8.3179 0.302805
287.935 7.37378 0.271128
284.143 7.23262 0.289012
297.435 7.96195 0.290925
287.913 8.17585 0.294911
236.891 6.76774 0.259231
287.796 8.50363 0.318516
273.019 8.22463 0.342672
253.409 7.58571 0.298112
291.216 9.21331 0.35771
240.38 7.87628 0.353772
236.476 7.72164 0.335704
248.379 8.62029 0.380421
250.327 8.82433 0.400401
264.331 9.26335 0.39851
259.12 9.14644 0.434644
228.082 8.64648 0.406645
251.022 9.69277 0.45722
237.63 8.91696 0.457582
233.761 9.28694 0.422867
224.895 8.90242 0.440512
239.916 10.0722 0.497765
291.112 12.5917 0.643007
203.505 8.71911 0.466999
195.239 8.74601 0.480863
214.901 9.66652 0.542687
205.782 9.47636 0.516729
217.881 10.0608 0.551959
204.941 10.0762 0.566498
189.09 9.06668 0.532663
227.537 11.569 0.648132
188.938 9.62089 0.579937
190.412 9.75686 0.58154
211.17 11.3085 0.696061
194.602 10.665 0.644026
207.41 11.3739 0.709774
198.542 10.984 0.689621
194.511 10.9623 0.718197
199.024 11.2376 0.728092
205.676 11.9255 0.758127
177.436 11.0245 0.742812
198.515 12.4541 0.823044
172.524 10.9826 0.76564
177.339 11.4652 0.774773
172.132 10.9743 0.78871
178.102 11.6084 0.813826
193.254 12.5873 0.941993
179.861 12.0915 0.927836
157.292 10.6117 0.852035
155.026 10.7973 0.838538
171.293 12.2502 0.942352
164.216 11.8441 0.932638
170.876 12.6493 1.06589
158.189 11.7523 0.974793
172.546 12.6709 1.05147
179.289 13.3534 1.13919
180.536 14.1739 1.17897
166.824 13.0159 1.08644
139.792 11.1556 0.982064
154.509 12.7927 1.17697
166.297 13.753 1.21067
153.545 13.0275 1.19768
144.301 12.5964 1.12309
147.449 12.8358 1.19533
139.405 12.1849 1.14222
150.676 13.1242 1.20447
132.245 11.9831 1.1668
132.753 12.3005 1.24095
131.048 11.8614 1.17132
144.192 13.7407 1.41995
149.448 14.4056 1.38856
147.045 14.514 1.48217
133.134 13.1678 1.398
133.702 13.4595 1.47648
135.455 13.834 1.50407
138.723 14.0531 1.50938
138.874 14.5553 1.58174
134.256 14.187 1.54056
145.484 15.4633 1.75029
128.104 13.8317 1.63761
133.32 14.0697 1.62934
131.659 14.8025 1.73539
127.012 14.1898 1.6367
115.765 13.4177 1.6223
121.3 13.6123 1.61033
122.853 14.6053 1.77608
126.655 14.3719 1.75887
118.811 14.1193 1.73244
131.482 15.7338 1.93384
134.34 16.9453 2.19691
130.278 16.2941 2.17226
119.463 14.8444 1.98487
118.544 15.1781 1.98249
124.838 15.8739 2.09506
113.583 15.0933 2.04249
127.596 17.2109 2.38162
120.212 15.7511 2.19042
114.103 14.9912 2.08244
111.281 14.7516 2.01877
112.023 15.2738 2.16352
121.768 17.4872 2.56614
130.7 18.0391 2.54469
102.101 14.5179 2.26933
100.506 14.2861 2.09478
116.98 17.5707 2.7643
107.038 15.3123 2.28578
107.58 16.2087 2.50793
106.466 16.106 2.48563
113.387 17.0083 2.66468
105.987 16.0495 2.46548
109.969 17.5402 2.85805
108.991 17.0492 2.63861
126.39 20.0944 3.27994
103.738 16.4783 2.79281
103.974 17.0869 2.94198
99.1062 16.3281 2.80139
101.98 16.5806 2.87176
91.8482 16.0135 2.88863
154.071 26.4822 4.43606
99.1762 16.9625 2.94195
89.7734 16.0098 2.82659
103.304 18.6044 3.43706
95.0673 16.1567 2.82992
91.9823 16.4323 3.07503
95.4862 16.9354 3.182
94.3657 17.0778 3.21268
97.8943 17.9985 3.33728
91.7389 16.6233 3.12476
93.7679 17.8076 3.40301
91.2848 17.3946 3.44509
96.0483 18.4575 3.56821
90.1354 17.4107 3.44687
90.8345 17.3732 3.45557
100.702 19.6438 3.97988
99.6563 19.9177 4.10054
92.6004 18.5225 3.786
92.1507 18.3123 3.81794
93.7081 19.1768 3.97911
86.88 17.6517 3.65407
94.6587 19.5581 4.14484
81.6063 16.9439 3.73809
92.6553 19.5533 4.21015
88.6448 18.5357 3.89345
96.2906 20.2638 4.51142
86.2657 19.2359 4.3932
93.0347 20.0236 4.39602
86.4068 18.9134 4.27494
77.6827 17.3724 3.93112
94.6025 21.6057 4.93495
88.2935 19.9994 4.64874
81.4993 18.7824 4.40992
80.734 18.8507 4.47929
79.5177 19.0892 4.63335
81.3333 18.8338 4.4951
79.5632 18.585 4.5704
79.0652 18.7965 4.55459
78.8285 18.8071 4.67142
85.5393 21.4239 5.39854
78.3397 19.7697 5.04076
88.6463 21.9016 5.48523
89.0589 22.3668 5.70881
82.9357 21.1906 5.40604
85.6166 22.1126 5.76098
79.8203 20.3861 5.26098
75.1367 19.9907 5.4395
82.2188 20.7254 5.38055
84.8657 22.0734 5.96995
73.9777 19.6271 5.35028
81.4992 21.8977 6.00473
75.7526 20.521 5.70195
75.024 20.4023 5.63726
80.4247 21.7797 5.82018
80.273 22.26 6.27722
71.8731 20.0132 5.61216
74.7934 21.3551 6.14258
65.8515 18.4704 5.22563
67.9532 19.7556 5.81974
78.5293 21.88 6.41257
76.7011 23.4829 7.20583
73.7471 21.2092 6.10071
68.5368 20.0378 5.99585
76.3957 21.9738 6.44177
71.6552 22.2607 6.92254
74.7009 22.9288 7.10233
64.5902 19.3562 6.09183
72.6324 22.4333 7.06859
67.128 20.6851 6.48835
73.4221 22.9031 7.18835
75.9397 24.1696 7.8351
79.4311 24.9335 7.70509
68.4063 21.6335 6.8985
69.0265 21.5041 6.927
65.8757 21.2061 6.91505
62.7414 20.9778 7.0421
66.2754 21.7572 7.35443
67.2037 21.7891 7.2739
69.5767 22.4508 7.47445
62.2632 20.5838 6.90433
67.9894 23.1595 7.87512
63.7812 21.9482 7.76702
63.8179 21.4984 7.46416
61.561 21.2085 7.4807
63.6466 22.0125 7.61932
61.996 21.7417 7.87806
62.5849 21.7681 7.63952
59.8776 21.2245 7.50108
63.1178 23.1264 8.50847
64.4838 22.8284 8.12448
64.1071 23.6192 8.76593
67.0044 24.1101 8.95092
62.69 22.9939 8.55379
58.0629 20.8632 7.86464
58.3614 22.2822 8.43883
57.8419 21.5803 8.58361
96.2238 35.9152 12.9729
61.2624 24.1729 9.6274
57.6871 22.5395 8.81144
60.9318 23.8365 9.58548
65.2999 25.2459 9.93288
61.1922 23.5319 9.07618
66.8115 26.5901 10.4414
62.5835 25.5812 10.503
80.3183 31.7198 12.3785
61.9022 24.3891 9.95595
60.246 23.9126 9.6124
59.0313 25.3039 10.8475
64.2514 25.0881 10.0291
51.3586 21.9138 9.4507
58.4372 24.0337 10.0225
54.8677 22.456 9.4549
54.4702 23.5142 10.2829
59.0551 24.3121 10.2364
59.8269 24.8498 10.3732
51.8131 22.2267 9.99088
57.1071 24.315 10.3658
52.5257 22.8448 10.1689
49.7336 21.2212 9.32145
59.0181 27.0606 12.4571
58.2856 25.2543 10.933
56.6426 24.9127 11.1525
59.351 25.3348 11.0738
60.908 28.2584 13.121
54.634 23.9338 10.7706
59.5375 26.3137 11.8086
54.0226 25.1751 11.7474
59.1976 27.3613 12.6562
53.9233 25.4533 12.0936
58.1269 27.0204 12.5462
50.4385 22.6621 10.4307
53.1719 25.9067 12.3967
53.0171 26.0395 12.8737
43.9236 20.0543 9.48691
51.8433 24.3575 11.7238
49.7028 22.6811 10.5051
50.3903 24.919 12.4755
51.2353 24.4668 11.5726
49.9869 24.1899 11.8926
50.3361 25.178 12.4648
46.434 22.9987 11.5265
45.0323 22.2857 11.4813
48.3652 23.7815 11.8987
52.8825 26.5593 13.5263
47.9958 24.3662 12.362
45.8775 23.5111 12.4963
48.65 25.0459 13.0913
50.2726 26.0405 13.7282
50.9554 26.0759 13.6601
49.7385 25.7424 13.4043
47.1238 24.6628 13.259
53.1494 27.3267 14.248
43.9693 24.5848 13.6147
43.2668 23.0674 12.7123
44.3137 24.5953 13.9243
46.8844 24.1084 13.0075
46.3242 25.4679 14.1793
44.7598 23.0874 12.3445
45.8606 25.348 14.2502
45.141 23.6148 12.812
47.0092 26.425 14.9089
42.8968 23.7642 13.5388
40.6222 22.6124 13.0023
43.6148 24.315 13.8579
46.9324 25.8949 14.4584
41.0847 23.6886 13.9578
43.4741 24.675 13.9876
41.9632 24.7394 14.5132
40.4857 23.4191 13.814
46.7371 27.2654 16.0026
40.2858 23.472 14.0254
46.3293 26.2803 15.1669
42.5552 24.7105 14.4374
41.796 24.8501 14.7978
36.685 21.4346 13.2088
46.4679 28.2997 17.3439
44.5333 27.7596 17.1228
41.0834 24.6472 15.1668
39.5005 23.4822 14.4503
42.4644 26.1587 16.4031
36.8946 22.6397 14.5068
40.1316 24.5174 15.4072
40.3158 24.6352 15.1832
41.9233 26.3051 16.2257
37.0762 23.7903 15.3074
39.8283 24.9148 16.1515
37.31 22.7855 14.5771
37.2584 24.295 16.106
38.1186 25.0076 16.6771
38.7057 24.8679 16.6967
43.7702 27.7515 18.1953
40.9918 26.2686 17.6257
57.2564 35.8525 22.2887
39.758 25.1008 16.0297
36.6099 25.037 17.1965
40.9322 27.5227 18.4896
38.2944 24.8747 16.6925
42.3225 28.3198 18.8526
39.625 26.9386 18.4816
35.4139 23.9803 16.7852
36.312 24.2476 16.2732
31.8601 21.9401 15.5084
39.754 28.4319 20.2121
38.4024 24.7982 16.828
37.124 25.4221 17.4406
36.2176 25.1132 17.8144
37.266 25.8184 18.3144
35.7357 25.4816 18.7597
39.5882 27.127 18.9963
34.5925 24.1261 17.1925
33.1681 24.0049 17.6941
37.4417 25.8097 18.1227
39.5266 29.5505 21.7383
37.3947 27.1098 19.6892
32.8534 24.3384 18.3427
35.64 26.0182 19.7
37.132 26.4976 19.1659
33.1042 24.0528 17.2392
34.5001 25.9781 19.2028
32.2314 25.6172 20.8815
42.6922 30.7876 22.5523
39.5214 30.7103 24.7706
47.239 33.6759 24.3447
36.3026 27.6321 20.7014
41.2872 31.3366 23.5852
34.1922 25.5743 19.2924
31.0367 24.5451 19.5409
34.7486 26.2257 20.0343
31.4751 24.8329 19.9421
34.5306 26.484 20.7511
38.1736 30.109 23.6299
32.5497 25.9105 20.9708
30.9387 24.6389 19.7466
31.8953 25.2331 20.8404
34.5136 26.8192 20.3321
28.8942 24.3516 20.6459
31.1956 24.2701 19.8163
30.9762 24.6665 20.011
29.592 23.8628 19.7337
29.3816 23.6402 20.1134
30.4497 23.3671 19.0107
29.2388 24.3097 20.4228
32.8558 26.596 22.0761
31.3145 24.9033 20.1581
30.1189 24.8886 20.4894
29.2888 25.3602 22.5015
35.223 29.2331 24.6064
31.594 25.6914 21.1875
29.5578 24.5873 21.1508
31.0016 25.8054 21.5469
29.7387 24.9551 21.0618
30.3555 27.333 25.1022
32.3801 26.6625 22.8092
28.5547 23.3671 19.8968
28.076 24.7921 22.2217
27.8173 24.318 21.9259
31.8128 26.4123 22.4107
30.1078 26.0548 22.87
28.1513 25.388 23.1499
32.4713 28.0273 24.1622
28.8379 26.5237 24.759
30.7643 26.5287 23.4954
29.0098 25.2988 23.7704
33.9517 27.6741 22.8071
29.0303 27.2122 25.4708
28.6409 25.2548 22.8467
29.8302 27.5715 25.583
33.3411 29.7906 26.5013
27.0464 24.621 22.9541
31.0096 28.5903 26.8105
32.134 28.8128 25.4086
25.3908 23.8979 22.6263
24.299 22.7929 21.7049
24.6502 24.0429 24.146
28.7941 25.9469 24.0534
27.3134 25.6318 24.2397
26.3864 25.3601 24.3136
26.6019 25.4731 24.799
27.8303 25.8835 24.6471
26.7162 25.8031 25.0528
28.5876 27.0026 26.0848
28.7117 26.5631 24.9903
26.7274 25.9881 25.1999
26.0569 26.1616 25.6886
25.6017 24.973 25.5332
25.8146 24.3697 24.3963
25.8618 24.4711 24.1012
26.7258 26.0376 26.9451
39.7256 37.6893 34.56
24.1662 24.1848 24.7494
25.7841 25.3141 25.8736
25.7853 25.2864 24.9291
25.2001 25.6287 26.0705
25.0006 25.1024 25.4915
22.9326 23.3798 24.1064
24.3276 24.721 25.2228
23.0098 22.8401 23.2886
24.8152 26.1857 27.5326
26.1801 25.9795 26.2825
26.9454 27.4909 28.3491
25.4332 26.416 28.021
23.9978 23.8771 24.1046
24.433 26.7579 28.9131
21.5605 22.3942 25.1502
25.9182 26.6824 27.3752
22.3848 23.298 25.1425
24.7741 25.2812 26.547
24.544 25.3205 26.1744
24.7809 26.5587 28.3507
23.0548 23.3597 24.5053
24.2051 26.9084 29.7946
23.6236 24.441 26.1695
23.3416 25.4929 27.9263
24.516 26.4324 29.0262
22.3356 23.8469 25.9094
24.2471 27.5704 31.217
24.6063 26.5519 28.8504
25.7626 29.273 32.4841
23.7243 26.6871 30.3819
23.2922 25.078 28.5048
21.9473 24.8973 29.2959
24.5903 26.9199 30.9105
26.1961 27.6659 29.4281
24.5888 28.3191 31.9225
22.2863 25.25 29.2863
22.6562 25.0226 27.9189
20.5174 23.4181 28.0125
25.3071 28.0834 31.3008
22.1454 25.1116 29.3144
22.4127 25.3036 29.2107
21.6792 25.1796 29.9466
21.0522 22.9664 26.0047
21.0096 24.633 28.6354
21.2925 24.9754 29.8981
21.2684 24.3234 28.9198
22.9984 25.874 29.9382
21.5617 25.4619 30.9684
22.6582 25.6345 29.8117
21.9062 25.4422 29.079
17.6735 20.5418 25.4832
19.7208 23.3485 27.8694
19.8514 24.4676 30.4888
21.4466 24.8956 30.1212
21.7869 26.7896 33.3268
23.3332 26.9494 31.3685
21.3714 26.2301 32.3605
19.9712 23.9941 29.5195
20.3818 24.418 30.0519
20.6713 25.8869 31.4392
19.1075 23.2828 29.8554
20.6892 24.7841 30.7658
20.2336 24.4546 30.4856
19.46 23.9885 30.213
18.4323 23.4468 30.3233
19.7509 22.8824 28.9748
21.7352 26.684 32.8859
19.604 24.1494 30.6243
20.2659 25.6306 32.5881
19.6604 24.7283 32.1356
19.7837 25.1567 33.0693
22.0363 26.5263 31.9575
20.6158 26.4153 34.0316
20.9962 27.3428 36.5468
23.7488 29.0143 35.4675
18.8455 25.0335 33.6773
20.2606 25.8911 33.826
19.1882 23.4956 29.9084
19.7873 25.7129 32.9803
16.8296 21.1091 27.8157
20.4285 27.8318 36.3582
18.3916 24.2183 33.5629
20.2002 25.7991 33.7003
18.4863 24.4483 32.7018
19.2528 25.3831 33.8687
19.0152 24.5352 32.7443
16.9623 21.9872 30.8123
20.095 27.0857 35.8214
18.614 25.3083 35.0986
19.1013 24.5402 32.4328
17.5229 23.8891 33.4415
17.1425 22.0625 30.2341
18.7844 26.1159 36.1058
16.9515 22.8874 33.1859
19.0808 26.6766 41.9405
30.4182 37.9853 45.0921
19.0231 26.6635 37.3379
18.9821 24.508 31.4566
18.4755 27.3753 38.5786
17.2033 24.4151 36.931
20.2279 25.8807 34.906
17.753 24.0418 34.5634
18.0706 24.6335 33.4333
17.0941 24.2568 34.8886
17.2532 24.2317 34.716
18.0443 25.2784 35.2839
16.1213 23.4506 34.2615
16.7302 23.8563 36.1056
18.6002 23.8222 32.1884
17.0706 24.7565 34.528
16.0592 23.1039 34.1176
18.0115 24.4703 34.4058
16.097 22.8913 32.8925
17.2727 25.2957 36.3307
16.8327 23.4073 33.2421
15.1414 22.1903 32.5906
15.8012 23.5418 35.7682
17.6973 24.8131 34.8608
14.8043 23.0872 36.6458
17.7854 24.5568 34.9003
16.4516 24.4573 36.6203
17.3184 24.9997 38.0779
19.9068 30.0749 44.8476
16.7329 23.5872 34.3844
15.955 23.7185 35.7037
15.3556 21.5683 31.9326
15.3526 24.3743 38.7844
17.2765 24.6613 36.7022
16.9782 25.5528 39.1396
17.2196 24.7764 37.1526
17.2328 25.658 36.8431
14.8594 23.558 37.465
15.5397 23.4776 36.8754
16.9554 24.9321 36.065
13.9709 21.6252 33.7493
14.2006 22.3681 36.42
16.2339 25.2879 39.117
15.2353 24.042 40.1214
16.8762 24.7345 38.9438
16.2493 24.3841 36.9087
15.2762 23.5443 36.9405
14.6326 22.428 35.2172
15.5817 24.7083 37.4887
13.8401 23.3642 38.5438
13.6301 20.3108 32.9619
15.114 23.7028 38.6098
15.8149 23.9981 37.6055
15.34 23.5503 35.4032
13.0271 21.3435 35.963
15.0979 24.0228 38.4586
14.6408 23.375 39.0255
15.2587 22.5092 34.79
14.3469 23.6763 39.5442
15.1304 24.1977 39.5561
13.2794 20.2884 33.8849
15.2763 24.9869 40.7178
15.0178 22.9735 36.5094
14.4466 23.1856 38.1588
15.7715 25.1929 41.0091
15 23.9143 39.3251
14.1531 21.1286 33.0433
14.3167 24.0734 39.2834
13.7215 22.0928 36.8223
14.1616 23.24 37.2067
13.1411 23.4165 41.0561
13.623 21.4654 37
14.2543 22.7154 36.6614
12.9677 22.7066 40.8916
16.1438 26.4017 44.3768
14.5132 23.5002 39.574
13.6612 21.9355 36.9308
13.2668 22.5261 38.4064
15.1551 26.343 44.9871
13.4966 21.3308 36.4604
13.3278 21.2546 35.9875
13.7463 23.1107 38.304
12.9361 22.2229 37.7892
11.8928 21.0673 39.0767
13.2032 20.6407 34.5989
12.7637 21.6183 37.2954
12.3996 21.2326 36.791
12.1803 21.1333 38.737
13.1189 22.2027 37.2737
11.7829 20.6642 38.2375
12.4023 20.9267 36.89
12.2967 20.194 35.1319
12.1188 21.4124 38.4259
12.2919 21.1268 36.9329
11.7614 20.9483 38.821
12.1455 20.5347 37.1345
13.0886 24.0424 48.5228
20.8314 35.853 55.0475
12.306 21.7633 40.4514
12.3138 20.9038 37.2761
12.0037 21.3276 38.2367
12.3657 21.9801 39.2524
12.1559 21.8725 40.7561
12.3554 21.8928 39.3047
11.2142 21.0085 40.826
12.6775 21.5241 40.1144
12.5317 21.2126 37.8031
12.6658 23.205 41.3457
12.381 23.3186 44.3905
12.0447 21.8409 40.1078
11.4868 20.2334 39.0766
12.6746 22.1347 40.0385
13.0308 23.4523 41.5847
12.861 23.8364 42.8651
11.8036 21.3259 41.0597
12.7707 22.7864 40.7583
12.3393 23.3926 45.0768
12.2218 21.978 41.0659
11.3976 19.889 38.5356
12.5192 22.1581 40.0036
12.6197 24.4526 46.4889
12.3427 22.6224 44.8503
12.147 20.916 39.7941
11.6988 20.038 35.5056
11.0635 21.0937 40.7373
11.762 22.1302 42.5488
12.3204 24.9691 51.8181
13.0792 21.5938 38.1467
11.3548 20.8746 39.5709
11.739 22.0743 40.8471
11.3755 21.8146 42.5424
11.5434 22.9221 45.8568
12.2114 21.6761 42.1659
11.8275 21.7254 39.9866
11.1261 21.8231 41.4933
10.9274 20.6276 38.7856
10.1737 20.0533 41.2549
11.3209 22.514 44.4028
11.0157 20.0294 38.9479
11.4898 22.7439 43.1614
9.72778 19.8792 42.9636
11.4307 21.9013 42.9442
10.384 19.5583 41.5901
11.848 20.3956 37.0291
10.2884 20.7621 42.9779
10.5722 19.9789 41.068
11.4085 20.853 39.4818
10.5151 20.5232 40.2729
10.9188 22.0317 44.4592
10.6955 20.2983 40.1606
9.50345 18.9729 40.0556
11.4101 22.8479 45.4001
10.5186 21.1713 45.431
11.0793 21.2924 41.0234
10.5492 21.3559 42.9762
10.3301 20.5303 44.0558
10.8953 20.9398 39.1649
9.02333 18.986 39.546
9.8706 20.8739 46.8148
12.396 23.0673 44.5534
9.91968 20.164 44.0136
11.0457 20.9151 41.875
11.0711 22.3509 43.7055
9.99696 21.3032 44.3067
9.73195 19.8268 42.7998
10.7567 21.9401 46.7281
10.6873 20.8546 43.9419
10.0342 19.4642 40.5779
9.98419 20.6829 44.0193
11.1616 22.5013 44.9599
9.59298 19.1014 40.0282
9.53316 19.916 41.7095
9.45363 20.3934 44.509
10.1696 20.6478 44.0841
10.2668 21.0842 43.7299
10.1578 22.6079 49.8575
10.1087 20.1764 44.1474
10.6777 22.0322 43.2642
8.99648 19.2006 42.2339
9.43728 20.3512 44.6551
9.73285 20.586 43.552
8.87802 17.3256 39.3398
10.354 21.3085 42.9091
8.7273 18.4957 41.4856
9.33081 20.8611 47.3786
10.1221 20.6918 44.9562
9.78921 19.0898 40.0977
9.62049 20.8019 45.4321
8.97053 18.8805 44.0487
9.80247 20.0438 42.2722
9.06904 20.0447 44.5232
9.10031 19.6484 42.593
8.57612 19.7814 52.3712
13.217 27.1602 50.966
8.92126 19.623 45.6755
9.19542 18.4486 41.0349
9.04336 18.8172 37.4543
7.60637 18.9217 45.4632
9.84353 20.6318 45.14
9.08875 19.3422 43.3319
8.92895 18.3973 39.2747
8.4621 18.2658 39.8922
7.85345 17.3981 42.1964
9.53596 21.1297 46.593
8.68492 19.346 44.4987
8.46291 18.4681 43.1375
8.61903 18.5425 43.3589
8.82284 18.4757 40.2362
8.18123 18.7065 43.3763
8.90046 19.2774 41.7066
7.88873 17.3869 44.1259
9.97974 21.2972 44.0225
7.73863 17.4886 44.0686
9.93711 21.562 44.7758
8.57218 19.8661 48.1394
10.0601 23.0175 50.4895
8.90242 18.9156 42.7188
7.75869 16.6995 40.3169
9.34162 21.3446 46.3402
7.88485 18.2325 43.2874
8.24677 17.8778 41.7865
8.65591 19.6495 45.0757
8.40097 18.5164 41.272
7.74643 18.4085 42.7432
7.39069 16.5233 39.914
7.73924 17.6866 41.1756
7.82658 17.7682 42.7982
7.9284 16.9755 39.5642
8.21792 20.0222 46.9834
8.44873 19.0934 45.973
8.25114 18.0357 40.3921
7.36702 17.9108 42.4819
7.3934 17.1351 42.6746
7.91019 19.1293 47.9994
8.95813 20.8677 49.2339
8.49921 18.4143 42.8982
8.11903 20.7619 52.1105
9.02196 19.7971 46.4114
8.39527 18.6894 45.1191
7.95162 17.3375 40.3222
7.93801 18.9604 44.6757
7.94928 19.2171 48.6896
8.50861 18.4382 40.9066
7.70775 18.5826 45.759
8.51076 20.0943 45.7101
6.97915 16.4304 42.8738
8.00596 18.1765 42.0156
7.44928 18.5066 46.4619
7.46022 17.0611 43.1571
7.95209 18.4902 45.2272
8.71308 21.3436 50.8686
8.70051 20.2267 49.1579
8.35338 18.7682 42.9523
7.73939 19.6183 49.3245
7.73953 18.6919 46.5178
8.42517 20.8265 50.8321
7.16541 15.9769 41.4582
7.47165 17.1307 39.702
7.19191 18.0498 44.4249
6.78885 17.4178 47.8145
7.80063 17.8106 43.5129
7.12142 16.778 42.7473
7.44304 17.6357 43.9387
7.42476 18.762 47.6892
7.52888 18.3519 47.7924
8.06179 17.8807 40.7728
6.86759 17.9824 46.4994
7.48674 19.0432 49.6877
7.8071 17.3677 42.7605
8.06365 21.6751 56.7221
8.79838 20.3948 49.5335
7.79656 19.2842 49.7296
7.97374 19.2012 50.5431
8.72489 23.0285 57.5604
8.20243 19.4493 46.6192
7.58387 20.2089 52.0187
7.40679 19.0949 53.1549
8.15948 18.0672 42.6525
6.52188 16.3777 41.6649
7.00477 17.9802 44.9014
6.66344 17.8884 51.5543
8.4275 20.0162 51.1223
8.07671 18.9727 45.2574
6.77031 16.4025 43.6421
6.34905 16.5209 45.4099
7.27043 17.0919 44.4412
6.89647 17.6004 47.6174
7.79165 19.1036 46.6359
7.09018 20.5644 66.2907
11.1145 25.4819 53.2846
7.17663 17.8667 47.6127
7.34532 19.1312 50.8448
7.2263 17.004 43.5097
6.65838 16.9077 43.2041
6.33888 16.8281 44.4783
6.58483 16.7876 45.626
7.0199 17.0448 42.8935
6.37313 15.9134 44.0049
6.3926 16.9352 45.5537
6.66235 16.3348 45.1171
7.08108 18.0885 47.0478
7.05909 18.6757 50.2064
6.80985 16.4278 42.8926
6.14274 15.7068 43.2489
6.94691 17.5179 45.6167
6.65213 17.7063 46.162
6.57757 16.9794 45.6377
6.5518 17.0309 45.4038
6.40094 16.4139 46.4919
6.69752 16.3657 43.4316
6.80999 18.1543 47.9167
6.55835 17.4303 48.9138
6.53269 16.7576 46.7896
6.34765 14.6941 40.203
6.3777 16.586 40.8795
5.80165 16.8245 46.9387
6.26486 15.8383 45.0644
6.54146 17.5037 45.2865
6.19076 17.2656 49.3252
7.37488 19.8002 50.1168
6.31846 17.4672 48.5929
6.52205 16.6017 47.871
7.18842 18.4239 49.6378
6.56723 16.6357 45.0131
6.61558 18.9535 52.3354
6.77689 17.1432 45.3375
5.98732 16.3537 46.9255
6.11496 16.0452 47.4972
6.6903 16.7965 45.9409
6.99861 20.0068 54.0573
6.74742 17.6234 51.8686
7.059 17.6662 46.9661
6.25016 16.8403 45.5468
5.98138 16.2264 44.5414
6.09213 17.5449 50.8811
6.5755 16.9079 43.988
5.71316 16.4028 45.8825
5.57215 15.0369 42.7728
5.73558 15.9239 47.9125
6.093 15.65 42.7299
5.76056 16.2778 46.547
6.31858 16.4605 46.4112
6.07666 16.8424 46.7877
5.96326 15.9793 46.8535
6.17304 16.4998 47.5847
6.31411 16.9723 47.0934
6.39476 17.7042 48.6056
6.0666 17.7361 52.4429
6.70827 17.7159 47.7406
5.8481 15.7863 44.072
5.25571 14.9288 44.761
5.6764 16.5728 52.306
6.27351 14.4631 39.5166
5.64186 16.1637 45.9079
5.93856 16.4951 44.9736
5.27705 14.7868 42.0296
5.33848 15.162 46.8684
5.9851 15.1529 41.3729
5.45969 15.6089 45.2072
5.84702 16.8835 52.8569
6.7063 18.1943 47.8578
5.64328 15.9091 45.7158
5.65411 16.9756 51.6074
5.65 14.4126 42.4999
5.47253 15.2941 42.4616
5.19105 15.2428 44.4494
5.37913 15.1837 44.892
5.11681 13.3542 40.6439
5.24855 15.2962 46.208
5.59003 14.8472 42.0445
5.15356 15.077 43.4534
5.16818 14.1446 42.7594
5.19287 14.8106 43.5175
5.07466 14.3479 47.1853
6.12928 16.5113 47.7389
5.76564 15.2341 39.8497
4.66539 14.5292 44.2826
5.57857 15.6009 47.1412
5.8771 16.7315 48.2899
5.6149 15.4589 45.0655
5.12135 14.8083 44.9752
5.1006 14.3574 41.3139
5.09426 16.4095 51.7605
5.75611 16.6814 49.382
5.83002 20.507 80.8127
9.96104 24.5531 55.5149
5.43102 15.7061 48.4212
5.67623 15.9752 45.985
5.18929 15.8342 50.1355
5.39338 14.6495 45.7578
5.20192 14.5365 44.5813
5.83058 17.3495 48.0006
4.78935 13.7451 45.0778
5.30224 15.9147 50.6609
5.80343 15.6977 43.4989
4.9222 14.2384 42.786
5.017 14.4386 43.2887
4.71192 13.9262 42.29
5.14343 15.9128 46.8023
4.87088 14.0854 46.0606
5.26341 15.4755 51.7554
6.21362 17.7183 48.5106
5.19607 15.4896 49.9075
5.26056 13.4556 40.6249
5.04893 15.5927 43.8065
4.33508 12.6459 44.143
5.32832 14.789 43.2433
4.9406 14.5164 43.3394
4.51058 12.8312 41.0469
4.55593 14.6001 46.8072
5.30272 14.5696 39.0829
4.18672 14.7699 47.5391
4.80409 13.9185 46.4701
4.98401 13.7546 43.0566
4.81526 14.16 44.2943
5.01524 13.8384 42.457
4.92566 14.9908 46.4558
5.02359 14.5954 41.7311
4.58775 14.1318 44.3358
4.7617 14.3605 42.6318
4.53578 14.3568 48.3718
5.49587 16.2233 45.8308
4.65946 14.0323 44.8976
4.73564 14.1842 44.9322
5.12589 15.4747 45.7982
4.52188 13.6709 45.1097
5.01851 15.2512 48.2943
4.95696 14.7718 47.785
5.31035 15.2583 45.4373
4.58258 13.8586 42.4613
4.44828 14.1808 48.5392
5.53016 15.0295 43.354
4.73011 14.0811 43.7542
4.45542 13.9076 43.9857
4.53834 14.7503 49.8474
5.13315 14.6242 47.338
5.25857 15.3826 45.299
4.14219 11.5599 38.9171
4.15609 12.6044 44.4311
4.98931 15.3117 43.3466
4.15276 13.3076 47.0177
4.70437 13.1168 43.8233
4.75719 13.7784 39.9303
4.08775 12.8402 40.8998
4.25027 14.6745 50.0486
5.09492 15.6701 48.5274
4.57747 12.572 44.4824
4.83084 14.5194 45.4696
4.67891 14.1206 44.2587
4.4102 13.8714 43.241
4.33151 13.3825 44.4111
4.43664 13.5602 42.6988
4.31661 13.4519 42.3755
4.37327 13.7839 44.9058
4.62994 13.0019 44.931
4.79436 15.2565 46.3238
4.6024 14.4079 45.0842
4.50342 14.6403 45.5769
4.36151 14.3316 45.7653
4.40419 13.395 43.5498
4.20563 12.135 38.6766
3.73466 13.0058 44.6476
4.37624 12.2081 38.3514
3.92028 12.5635 42.7387
4.25301 12.9005 43.2148
4.25221 12.8584 39.4608
3.89671 14.1397 50.1592
4.74385 12.7974 43.3001
4.41939 13.8358 43.0988
4.43723 14.1298 44.4108
4.24634 13.851 48.5576
4.22299 13.1855 47.2403
4.74744 13.968 46.3464
4.78668 15.0902 46.5003
4.2677 12.7546 43.9743
4.60392 14.9556 50.7418
4.60012 13.6856 43.6167
4.50678 16.0807 51.9136
4.7774 14.8885 46.9103
4.16051 13.1767 44.9237
4.22308 15.0124 65.7358
6.81268 18.706 48.2102
4.2167 14.8382 49.475
4.30029 13.3954 44.7894
4.43762 13.7475 43.7892
4.16419 13.2531 46.5737
4.32033 13.5072 43.1158
3.99851 12.6757 44.4617
4.32537 13.0929 44.9984
4.26399 13.9094 43.6629
4.04844 13.1975 46.1538
4.37279 14.6233 47.9337
4.17168 11.7002 44.2584
4.54903 14.3344 44.0285
3.87057 12.7689 44.6892
4.17387 13.3875 44.9424
3.97465 12.0226 43.8105
4.1133 12.9902 44.0134
4.35709 14.6712 48.8277
4.48277 13.9991 46.771
4.54441 15.746 51.9361
4.43291 13.7993 46.3341
4.12449 12.909 42.9024
3.85952 11.6931 41.0373
3.921 13.95 49.0209
4.15769 12.559 44.0552
4.2542 12.5366 43.2181
4.01195 12.421 41.139
3.88753 12.9756 43.7357
4.14592 13.7864 46.5876
4.18232 13.6379 46.8276
4.15017 12.9295 44.1931
4.01014 12.6111 45.7106
4.23006 13.5902 46.4126
4.30259 14.5034 45.776
4.08938 13.6486 45.9866
3.8924 12.4666 44.1971
3.96193 13.0524 45.9579
4.06111 13.326 46.5479
4.21462 13.2999 43.2667
3.81452 12.7513 43.253
3.96147 12.9737 42.4301
3.85045 13.1344 43.3534
3.39775 11.1314 40.9807
3.75645 13.0319 46.3699
3.90498 12.0721 41.8957
3.6443 12.098 40.7398
3.61749 12.8313 46.3114
4.02952 12.6221 42.3564
3.65103 12.1242 43.5999
3.78639 12.2465 45.5595
4.10178 13.363 43.6358
3.88643 13.1952 45.6232
3.85527 12.916 46.6056
4.04438 12.2639 44.8509
4.14764 13.3769 40.8371
3.51073 12.4858 48.2436
4.09368 12.7585 43.4644
3.81597 13.6924 43.6037
3.55695 11.6016 44.2775
4.01318 13.0773 43.6345
3.83916 12.7524 41.6698
3.36606 12.0251 46.0193
3.90758 12.3412 44.3735
3.80144 12.7856 46.2574
3.93463 13.7054 50.6105
4.40529 14.7056 53.0789
4.46266 12.7548 40.4197
3.66339 12.9393 46.3216
3.92263 12.7945 42.8448
3.72861 13.3118 43.3967
3.53137 12.4739 46.7289
3.93775 12.5496 46.7734
3.94771 13.2861 42.0433
3.50164 12.5623 46.0524
3.86402 12.7302 46.4425
3.79584 12.3315 45.3248
3.7772 12.6112 43.4432
3.61312 11.8483 41.063
3.34901 12.2174 44.7432
3.63706 11.1545 41.7077
3.63098 12.434 40.9516
3.39623 11.2604 44.5802
3.92247 12.753 46.1927
3.91699 12.7966 41.943
3.39289 11.5754 44.32
3.5303 12.4538 45.5945
3.9957 13.665 45.6917
3.81044 13.076 45.7623
3.61475 12.264 44.4293
3.55844 11.9514 44.8294
3.71751 12.3003 45.8575
3.71216 12.6933 45.9076
3.72198 12.0993 42.92
3.63255 13.1281 46.8772
3.80611 13.5053 48.8151
3.83825 14.5841 69.0309
5.62039 16.2034 46.3432
3.77394 13.0622 44.2669
3.63698 12.0976 43.4801
3.48283 12.2954 43.227
3.70847 12.6487 44.6841
3.64672 12.3967 43.7351
3.70161 12.4321 44.6028
3.46827 12.6398 43.9345
3.57389 11.8863 44.2709
3.62061 11.5835 46.6475
3.9932 14.0698 49.9184
4.09344 12.4193 43.772
3.65724 13.4405 47.099
3.67025 13.4475 47.2954
3.63323 13.079 45.2351
3.4459 11.0235 41.0028
3.29734 11.22 40.5325
3.15366 11.1121 47.5268
3.91859 12.4657 38.2176
3.18008 11.6713 41.8516
3.15108 12.1522 49.8324
4.09788 12.7331 43.474
3.25373 11.296 43.4511
3.43916 12.5384 42.4819
3.30293 11.8567 47.1757
3.75269 12.4014 42.431
3.35215 11.6869 44.4245
3.51579 11.7388 42.4999
3.38018 12.7246 47.4983
3.55713 11.0146 42.7558
3.55697 12.059 44.5574
3.50653 11.2199 38.9922
2.96599 11.4004 45.7644
3.66025 11.9918 44.2631
3.39597 11.9757 42.1642
3.39683 13.2498 48.2718
3.74925 12.6828 47.8991
3.6238 12.8099 49.8466
3.95293 13.7431 47.6903
3.5946 12.1406 45.0442
3.32312 11.2643 43.396
3.4396 11.4855 41.0393
3.15929 12.0369 47.4862
3.75684 12.3773 42.8162
3.23927 11.2146 40.2842
3.15375 11.3613 43.8976
3.36747 11.0348 41.2061
3.24557 12.2269 46.289
3.55815 12.2743 45.6798
3.37049 11.6182 44.103
3.54099 12.8685 41.6242
3.05973 12.52 50.3582
3.63448 10.9179 41.7749
3.12112 11.0706 43.8994
3.47181 12.5518 46.9933
3.51564 12.1236 44.1135
3.51843 12.0475 45.3562
3.39071 10.6293 39.5349
3.1383 11.1739 41.3409
3.11376 10.5327 40.7473
3.11006 10.8212 38.6764
3.00012 12.4469 45.2043
3.3678 11.2599 45.3186
3.43777 11.3646 41.8161
3.17787 11.5516 44.5214
3.39695 11.8603 43.5452
3.16891 11.8925 53.3293
4.00065 14.1497 48.9606
3.75411 13.968 46.11
3.38321 11.4821 43.7275
3.25679 12.3552 46.2111
3.50053 11.3901 42.0429
2.92514 11.0739 40.8649
2.94359 10.6185 45.5596
3.50752 12.3885 41.652
3.08768 12.7847 52.1861
3.63581 11.9219 42.3864
3.10221 11.3191 46.1133
3.33062 11.8027 45.7765
3.332 10.891 39.7307
3.05874 12.078 43.9058
3.28151 10.8899 44.4907
3.33753 12.6232 43.1044
3.10867 12.4032 49.5077
3.54036 11.8555 42.1691
3.27861 12.0668 51.1719
3.77069 12.8239 46.9976
3.30885 10.4029 42.0351
3.31952 11.9518 44.1961
3.33269 11.5433 42.327
3.22024 12.4114 42.125
3.05325 10.7231 43.0193
3.11278 11.6174 46.6397
3.48041 12.1318 42.4188
3.08384 11.5567 42.2445
3.13897 13.4782 67.148
4.67945 14.1951 41.0803
2.92524 10.8085 43.5726
3.21185 11.4528 43.5149
3.19182 11.6493 44.3928
3.1661 11.189 43.2559
3.16764 11.1343 44.7144
3.19878 11.3968 43.1969
3.19309 12.3999 47.775
3.577 11.513 42.3849
3.20125 11.7267 42.5642
3.10864 10.8228 40.7009
2.91695 10.8882 43.57
3.1517 12.488 47.609
3.36972 12.3538 44.9502
3.27992 11.6483 46.5077
3.29802 11.9544 45.9387
3.24983 11.2216 46.5374
3.53308 13.4359 49.3131
3.49754 13.1293 48.8876
3.32442 11.5946 47.7958
3.39607 11.9947 49.4045
3.61224 12.9094 48.8627
3.50362 12.913 50.9745
3.64817 13.2752 46.8377
3.1789 12.5064 58.2511
4.19445 12.7263 40.8501
3.0471 12.6724 45.385
3.32205 12.5252 47.4493
3.34629 11.5865 43.6853
3.10897 10.4521 41.0484
2.95638 10.8205 45.3131
3.30693 11.9619 45.8908
3.29475 11.696 42.6762
3.15233 11.767 46.9269
3.21411 11.687 48.8912
3.48078 11.0825 41.5077
3.01287 12.1241 49.427
3.58194 11.8455 42.055
3.0035 11.385 42.2142
2.97748 10.809 45.0176
3.27743 10.9721 38.4294
2.69149 9.8216 43.8375
3.19742 10.5211 36.6119
2.64605 10.6487 43.669
3.14293 11.5675 45.1397
3.27926 12.5396 46.0743
3.14226 11.9868 44.465
2.9345 10.6359 45.9445
3.16502 11.6869 44.5902
3.00537 10.825 44.4991
3.10313 11.0739 43.2898
3.05605 11.4191 40.0011
2.81241 11.5541 47.8397
3.31996 11.4256 44.3081
3.04755 10.8909 40.4343
2.7456 9.50924 37.0819
2.75437 11.5863 47.9726
3.30587 11.4601 41.5592
2.85636 10.8616 44.9748
3.16644 11.4872 44.7231
3.10735 11.7392 42.6782
2.88774 10.7219 43.2528
3.07419 10.7717 46.5738
3.43513 11.2775 45.3738
3.21811 12.0503 43.5641
3.02676 10.9131 41.8499
2.9477 11.0978 40.688
2.93839 10.7084 41.4737
2.8837 10.969 43.3515
3.02194 11.8198 46.8832
3.2267 10.9146 47.4489
3.26184 12.2589 46.0652
3.32107 12.3672 46.94
3.29837 10.877 41.929
3.04978 11.665 49.8231
3.44823 12.2132 43.2683
3.02462 11.7261 45.2802
3.17286 10.8852 43.8322
3.02095 10.9337 44.2325
3.14413 10.5622 42.2462
3.08194 11.1361 42.0623
2.95185 10.9161 42.8461
2.98016 11.9904 47.9878
3.22962 11.6224 43.5172
3.02307 11.0783 47.0077
3.26431 12.0151 43.0641
3.00471 11.4688 46.104
3.12289 11.6358 45.2058
3.06351 11.2118 41.6036
2.91587 10.5704 46.6238
3.26824 11.9772 45.9999
3.06478 10.4217 44.0994
2.99428 12.0145 43.5343
3.04133 12.8093 48.6998
3.25468 11.2298 45.6121
3.14064 13.5782 69.8616
4.53463 14.2224 42.7218
2.87517 10.4668 41.392
2.89921 11.1424 43.3434
2.91072 9.95835 40.5537
2.90211 10.1114 38.956
2.70237 9.35049 35.6277
2.57478 10.9175 43.0128
2.97459 10.6693 42.7198
2.9515 10.8149 45.1403
3.21648 10.8433 41.21
2.86518 10.8274 39.4994
2.64076 10.6467 43.3438
2.92923 10.6403 37.95
2.62272 8.77741 35.2211
2.53215 10.6097 43.0039
2.89234 10.2698 37.5342
2.57635 9.44883 43.1264
3.07538 11.1671 42.8349
2.81808 10.2166 43.5826
3.00119 11.1402 42.7407
2.89189 11.0494 44.4782
3.1056 10.8105 41.9848
3.04162 10.3465 40.5414
2.82423 11.3284 46.2084
3.14727 10.5979 41.3042
2.8256 10.2766 46.3898
3.23637 10.9898 39.6598
2.77142 11.1594 45.8357
3.0879 10.6164 43.8612
2.97342 10.773 43.8927
3.01154 10.5298 41.6542
2.80173 10.5276 39.9006
2.69779 10.6916 42.0815
2.89849 11.1334 42.9031
2.86069 11.5336 41.8488
2.91414 11.1794 42.4831
2.87726 10.509 40.9008
2.71658 10.5897 43.1024
2.92747 10.3581 41.9195
2.89099 9.77545 41.3804
2.72701 11.043 41.6347
2.88273 10.4121 42.8674
3.00549 9.29398 40.9957
2.91756 11.6562 47.0572
3.17053 11.5595 45.2641
3.05851 11.2551 38.3682
2.61672 10.689 40.4516
2.78269 10.5694 42.7487
2.8977 10.1711 43.4764
2.92467 11.5065 49.1964
3.29838 11.3094 44.706
2.93434 10.8235 39.2748
2.71058 10.6465 42.0153
2.90002 11.5029 44.7469
2.92801 10.6526 44.8735
3.12809 10.6455 39.5922
2.68288 10.8516 46.1135
3.14896 10.6837 44.9156
2.95399 11.4357 41.9331
2.91629 11.0738 45.6077
3.12933 11.7145 44.3983
3.00139 11.521 47.6078
3.25972 10.1898 39.249
2.63936 10.5272 43.5874
2.91222 11.0276 41.0198
2.85149 9.96339 37.4547
2.59462 9.45389 39.8014
2.7353 11.1587 42.8172
2.92737 9.90863 40.3449
2.76286 10.9672 40.717
2.70608 10.2803 44.4729
3.05406 10.6404 40.3377
2.7015 10.4873 38.5416
2.58747 10.4906 45.7274
3.10995 9.94062 42.5742
2.83175 11.2857 43.5406
2.94306 10.3124 43.1454
2.86255 11.6432 43.5504
2.76426 11.0683 42.72
2.85668 9.23413 41.2675
2.81349 10.47 38.3748
2.59242 9.88406 41.0414
2.74845 10.9635 44.6151
3.05968 10.0742 44.1941
3.11195 11.5826 42.6651
2.83171 10.3889 44.9879
3.07047 11.0921 40.854
2.6942 11.3249 42.7115
2.82378 10.5801 41.1946
2.75157 11.2581 43.1589
2.90681 10.7999 42.9127
3.03954 11.5259 49.3758
3.24276 10.2648 38.9134
2.68463 11.2201 41.0456
2.66889 11.4654 48.1036
3.15859 14.5946 80.5586
5.07762 0 0