# pn-170911/RbIIR-41-RbIIA-1280-1959.psd
# Power spectrum* (dif=0,1,2) (really just |FT|^2)
# NOTE: only the first half! (symmetric)
# weeks: 1280-1959
# 4134 clock-days, 87 excluded
# PSD: 1441
4858.41 0.186384 0.0278355
518633 10.6509 0.018506
1.61201e+06 30.5673 0.0191493
309597 9.68939 0.0186599
187149 10.5578 0.0195606
95415.4 7.07727 0.019565
64711.1 7.25152 0.0195984
43124.5 6.45536 0.0203297
34909 6.61297 0.0206287
25885 6.25486 0.020795
21547.5 6.16308 0.0212114
17224.7 5.90409 0.0220663
14432.5 5.95888 0.0228903
12066.6 5.75379 0.0240135
10611.6 5.96744 0.0241418
9093.68 5.78956 0.0254347
8218.27 5.91553 0.0261829
7057.56 5.74921 0.0263586
6479.11 5.85998 0.0273463
5464.02 5.51232 0.0278513
5202.36 5.93164 0.0297501
4702.4 5.83255 0.0315365
4312.05 6.01376 0.0326773
3855.43 5.77036 0.0339236
3681.5 5.9903 0.0356015
3279.38 5.75756 0.0363855
3089.12 5.91962 0.0378154
2787.07 5.71729 0.0391269
2737.61 6.19451 0.0423432
2510.38 6.10171 0.0430378
2423.87 6.16142 0.0457934
2182.44 5.98401 0.0458674
2094.08 6.2688 0.0499
1987.6 6.36571 0.0513197
1889.62 6.33851 0.0540903
1771.86 6.21703 0.0553111
1696.55 6.47172 0.0599255
1618.51 6.49481 0.0630447
1528.27 6.6004 0.0631688
1437.03 6.34678 0.0642221
1423.47 6.79317 0.0715391
1325.59 6.57491 0.0721163
1276.97 6.81886 0.0763868
1247.18 6.86346 0.078934
1195.26 7.00676 0.0838115
1137.94 6.91872 0.0859362
1121.66 7.24111 0.0907493
1045.47 7.06264 0.0949226
1051.43 7.4687 0.10051
990.77 7.33171 0.101826
954.01 7.50398 0.10988
930.351 7.34422 0.110948
911.722 7.68742 0.118287
869.111 7.51706 0.120902
886.171 8.16457 0.132385
821.571 7.86633 0.131281
806.098 8.10649 0.139968
772.061 7.86122 0.140421
747.431 8.08361 0.150479
733.282 8.21975 0.155648
722.188 8.42472 0.165212
699.039 8.30462 0.164716
698.031 8.75474 0.177489
662.7 8.43061 0.178377
663.908 8.96646 0.193984
651.446 8.97683 0.199121
624.507 8.93923 0.203256
606.888 8.8469 0.209576
575.674 8.93996 0.215199
588.912 9.36141 0.229448
579.029 9.23891 0.234999
553.577 9.30282 0.239202
562.194 9.76896 0.260578
532.984 9.36711 0.256979
533.87 9.54255 0.266782
510.304 9.74006 0.278875
511.235 9.95574 0.294862
488.995 9.95624 0.297332
480.378 10.0241 0.310234
476.398 10.0661 0.319211
469.909 10.1884 0.32825
459.946 10.1355 0.331167
473.295 10.764 0.361005
430.801 10.3472 0.357063
434.331 10.6326 0.376997
434.238 10.6309 0.383102
422.611 10.8937 0.403667
406.597 10.8484 0.404281
405.159 10.8957 0.418043
400.047 11.0963 0.437908
392.157 11.1338 0.448657
395.158 11.3916 0.463587
382.818 11.3012 0.472453
368.783 11.1692 0.478555
366.866 11.2111 0.489861
364.189 11.6501 0.520094
413.014 14.0998 0.639917
366.767 12.003 0.551853
348.248 11.8376 0.558532
333.369 11.5013 0.551273
328.449 11.7765 0.575801
340.435 12.4936 0.631832
333.545 12.653 0.644395
329.024 12.4306 0.642403
324.018 12.4513 0.66087
316.778 12.4462 0.663785
310.839 12.5745 0.68609
303.259 12.504 0.697683
304.28 12.8413 0.735847
301.715 12.9935 0.758523
302.416 13.2924 0.781411
285.531 12.67 0.761687
281.451 12.8412 0.781987
289.897 13.6436 0.848345
288.006 13.858 0.874995
280.015 13.5203 0.870201
269.437 13.274 0.862482
262.232 12.812 0.845891
270.078 13.9133 0.943454
266.118 13.8144 0.949757
271.988 14.4848 1.00065
262.685 14.0743 0.992585
251.64 13.5336 0.972124
250.14 14.0446 1.02689
256.283 14.4937 1.07443
242.773 14.2309 1.07474
249.04 14.5685 1.11509
240.588 14.1961 1.10006
235.982 14.4105 1.13912
235.385 14.4246 1.15395
232.073 14.4765 1.17395
238.705 15.2939 1.2601
226.51 14.8203 1.2442
226.54 14.7823 1.25582
222.089 14.8065 1.27004
222.181 15.0759 1.31655
221.572 15.3417 1.36355
220.319 15.2862 1.37724
215.143 15.3713 1.4018
210.156 15.2911 1.41653
210.236 15.6361 1.46731
208.678 15.9017 1.51311
200.167 15.083 1.44995
203.886 15.8573 1.56195
202.984 15.7819 1.5597
199.216 15.6716 1.57527
190.252 15.4028 1.56921
198.677 16.0229 1.64831
191.723 15.9303 1.67221
189.622 15.6953 1.66124
199.518 17.0424 1.8392
188.902 16.0844 1.74178
187.2 16.5493 1.82811
187.771 16.4745 1.83406
186.586 16.8951 1.902
178.425 16.3768 1.8856
184.673 17.13 1.97758
180.336 16.9194 1.99034
182.662 17.247 2.05354
178.698 17.403 2.08971
177.648 17.2136 2.0904
174.76 17.4203 2.15771
170.192 17.1648 2.12637
174.958 17.7655 2.25586
172.238 17.9966 2.28843
166.652 17.0989 2.21644
167.166 17.7202 2.31486
169.257 18.0305 2.38406
165.082 17.8014 2.39701
161.64 17.6654 2.40201
163.004 18.1096 2.46562
159.461 17.9971 2.49187
160.505 18.4784 2.58351
154.985 18.0516 2.56255
156.39 18.1693 2.61727
156.468 18.4587 2.67972
151.712 18.0859 2.64149
151.293 17.9937 2.67597
157.077 19.0573 2.86147
151.436 18.745 2.84625
150.054 18.7769 2.87339
148.708 18.7896 2.92441
146.747 18.7119 2.91901
144.41 19.0353 3.03194
146.864 19.1966 3.06159
145.126 19.4007 3.1455
141.443 18.9385 3.09299
140.099 18.7424 3.09757
141.729 19.3847 3.23741
139.004 19.0853 3.20274
135.632 18.6286 3.17912
137.023 19.5405 3.40538
160.785 23.4435 4.03104
133.101 19.0499 3.32588
130.172 19.1536 3.41086
129.387 19.2812 3.4644
129.31 19.1272 3.44448
133.011 20.0551 3.6574
131.072 20.1299 3.72193
126.062 19.3574 3.60743
122.816 19.3832 3.65373
125.739 19.7972 3.76959
129.615 20.2872 3.89107
119.582 19.2657 3.74869
125.166 20.5053 3.98888
121.831 20.1574 4.00112
121.667 20.2602 4.04648
121.169 19.9953 4.01479
119.204 20.3525 4.13007
119.185 20.3297 4.17922
117.838 20.5447 4.24639
115.571 20.4109 4.29429
117.197 20.4217 4.29199
118.152 21.0897 4.4797
114.436 20.5537 4.42775
115.992 21.2052 4.6087
115.254 21.1752 4.63028
114.545 20.8755 4.60708
111.663 20.6028 4.59498
110.914 20.9017 4.69654
110.728 21.3807 4.87527
106.245 20.0034 4.59727
110.286 21.0781 4.86058
108.483 21.1957 4.93126
106.916 21.181 4.97391
106.505 21.3028 5.02104
106.438 21.6736 5.18506
101.438 20.6093 4.9654
105.994 22.0345 5.4091
105.931 21.8619 5.35871
102.662 21.3706 5.27414
102.32 21.3356 5.31552
102.769 21.5218 5.40927
100.121 21.5566 5.51795
104.423 22.1967 5.63386
98.7065 21.3319 5.51151
100.808 21.7923 5.69697
98.3287 21.4778 5.612
96.7893 21.2381 5.60751
96.7087 21.8546 5.85124
98.2945 22.5058 6.0216
95.5854 21.7833 5.8921
95.1178 21.8294 5.99798
95.422 21.9552 6.03109
89.9027 21.3012 5.96227
95.2085 22.7199 6.35349
93.975 22.5857 6.36062
90.5703 21.8084 6.21472
90.6063 22.1824 6.33982
90.8763 22.3058 6.40086
89.3907 22.242 6.50137
90.4032 22.2711 6.52678
89.6963 22.4736 6.65796
90.0641 22.5872 6.73687
88.5266 22.4586 6.75887
86.4744 22.125 6.69614
89.2203 22.5171 6.85728
86.714 22.7497 7.0315
86.4813 22.5106 6.91909
86.3306 22.7843 7.08896
84.9306 22.6733 7.16403
85.3928 22.7881 7.16427
82.717 22.7192 7.25615
82.2928 22.6119 7.30255
82.9569 22.8316 7.38419
84.0044 22.9371 7.47866
83.7629 22.9886 7.45951
82.3844 23.3105 7.77845
82.1717 23.2423 7.78337
82.1765 23.1979 7.75437
83.481 23.9928 8.1366
80.3905 23.1039 7.82583
79.2492 23.1777 7.93036
80.4734 23.6541 8.16722
80.1942 23.2929 8.03981
77.2362 23.0244 8.08269
79.7101 24.1815 8.56729
76.8525 23.0381 8.17889
76.1504 23.0538 8.20391
78.1913 23.8767 8.61143
75.3957 23.3034 8.42134
73.924 23.1986 8.55524
77.035 24.0668 8.81477
73.9727 23.0532 8.53149
73.7254 23.2861 8.66785
71.5693 23.0549 8.69008
72.8408 23.6035 8.94438
73.1142 23.777 9.17542
89.2388 29.3643 10.8997
70.5457 23.5184 9.13425
70.7517 23.4602 9.12816
69.43 23.2197 9.07084
69.2857 23.5722 9.31327
71.6736 24.3028 9.57398
68.609 23.6223 9.43623
69.6291 24.143 9.69729
67.0313 23.1511 9.41317
68.7195 23.675 9.59721
69.2967 24.2913 9.91355
67.4519 23.8548 9.7817
67.3139 23.718 9.79892
67.08 23.9056 9.9252
65.8611 23.3366 9.7213
66.9917 24.4185 10.2517
66.129 24.1168 10.3039
66.6824 24.2546 10.3811
65.1234 24.055 10.3035
65.632 24.1494 10.4026
60.0196 22.7155 9.95581
63.1988 23.8585 10.47
64.2806 24.1503 10.6283
61.0374 23.3792 10.507
63.6855 24.1551 10.7632
64.069 24.5549 10.9816
61.7897 23.948 10.8283
62.2086 24.0965 10.9252
62.1637 24.01 11.0613
60.4605 24.1824 11.1151
61.5422 24.3221 11.2432
60.4992 24.3437 11.3861
61.0235 24.5233 11.4088
60.8803 24.8147 11.65
60.4267 24.4177 11.6102
59.177 24.4391 11.6863
57.6991 24.231 11.6214
57.0704 24.057 11.623
58.3734 24.2854 11.8374
56.4775 23.4599 11.4737
59.1197 24.8519 12.1746
57.008 23.8676 11.8369
57.7771 24.4771 12.1568
57.8471 24.7753 12.4216
56.1168 23.8081 11.8926
57.3432 24.7735 12.6187
56.0478 24.3352 12.3167
55.7616 25.001 12.7944
54.0992 23.8432 12.2839
55.1973 25.1117 13.0531
54.3162 24.046 12.3822
54.6683 25.0152 13.0789
53.4416 24.5878 13.0448
55.4251 25.2122 13.3245
54.5631 24.6896 13.0795
55.1538 25.1714 13.451
51.9469 23.9353 12.9205
53.1127 24.4737 13.1756
54.7384 25.5665 13.9444
53.4136 24.881 13.7352
52.1128 23.8154 13.1202
53.1641 24.77 13.577
51.5851 24.2101 13.5683
51.3545 24.5095 13.5084
50.7417 24.6509 13.9349
50.3246 24.3346 13.6568
51.2771 25.2079 14.2329
50.017 24.6594 14.2275
49.3487 24.5032 14.0639
50.2658 24.5538 14.0783
48.7877 24.2674 14.2596
50.0645 24.6314 14.2719
48.1164 24.531 14.3855
48.6335 24.9494 14.7257
48.021 24.3287 14.4009
48.5271 24.7943 14.7087
47.8848 24.8242 14.8546
47.9835 24.848 14.881
48.4048 25.1349 15.189
47.8566 24.738 15.0496
47.1308 24.7944 15.0341
47.3902 24.7934 15.2482
46.1694 24.5286 15.2393
46.0883 24.8043 15.3882
45.5946 24.6362 15.5371
44.9677 24.0115 14.9485
45.9855 25.3884 16.1135
45.9544 24.9781 15.93
46.2316 25.2731 15.9849
45.0989 24.9524 15.9597
44.1306 24.4138 15.7855
44.2421 24.6589 15.8633
44.4856 25.0987 16.375
44.6671 25.2816 16.6234
43.4083 24.4303 16.1339
44.4887 25.2744 17.0557
53.0724 31.2885 20.128
43.5982 24.9846 16.7382
45.2588 25.7514 17.0355
43.2925 24.9156 16.7485
43.5051 25.451 17.1089
42.375 24.5532 16.785
42.7856 25.3096 17.3621
43.2172 25.291 17.3151
42.6189 25.3323 17.4246
42.1266 25.0991 17.3836
41.7596 24.9926 17.4014
42.6614 25.6203 17.9326
41.9896 25.0817 17.5388
40.4208 24.5377 17.4078
40.2746 24.2598 17.2829
41.0955 25.0142 17.7363
41.1408 25.2992 17.992
39.3106 24.3737 17.4774
40.8351 25.7004 18.5175
39.6394 24.9029 18.1032
40.377 25.1943 18.3085
39.1123 25.0929 18.5712
40.0546 25.2228 18.5542
38.909 24.6203 18.3067
39.9773 25.4938 18.8465
38.1364 24.6094 18.3704
38.4636 24.5798 18.2615
40.0382 25.6667 19.1458
38.6099 25.1378 19.064
38.0026 24.8565 19.1011
38.2503 25.092 19.2723
38.3043 24.855 18.9985
37.1836 24.5571 18.9615
37.7868 25.3808 19.6464
36.9402 24.2179 18.7105
36.9676 25.0019 19.377
36.7812 25.0322 19.801
37.1184 24.9517 19.3132
36.1239 24.8505 19.786
36.4003 24.0769 19.0085
36.4925 25.1598 19.8968
36.8583 25.28 20.3725
36.0053 24.8789 19.9237
36.495 25.4848 20.466
36.0037 25.1921 20.5969
35.6127 25.1427 20.4675
34.7312 24.9707 20.4603
35.5239 24.7649 20.0677
35.3681 25.3197 20.9834
34.8459 24.8563 20.5936
34.8273 25.0983 20.9373
34.9798 25.4323 21.4245
35.1404 24.7304 20.8248
35.2684 25.2588 21.1643
35.4462 25.2521 21.0869
33.6075 24.6966 21.17
33.9136 24.7983 21.2188
33.7314 24.7042 21.0791
33.1035 23.9331 20.5015
33.7877 25.2212 21.9146
33.4178 24.781 21.4395
33.4992 24.8443 21.4418
32.5972 24.9891 22.0618
33.2747 24.5297 21.5851
32.9335 25.0114 21.9643
32.5248 24.9444 22.0086
32.7411 25.16 22.3782
31.9346 24.471 21.8883
31.902 24.7284 22.1795
32.7224 25.057 22.6969
31.269 24.5718 22.2345
32.344 24.864 22.5532
32.2984 25.0747 22.536
32.2231 25.4008 23.247
31.7424 25.6066 23.7494
31.5839 24.7685 22.8202
31.8743 25.3439 23.3987
31.2718 24.9188 23.2442
31.0501 24.4875 22.7735
30.1277 24.3699 23.0535
31.9905 25.5516 23.8479
30.3843 24.5104 23.0796
31.0217 25.0403 23.8895
30.4596 25.0326 23.9129
29.8298 24.6133 23.8653
30.7773 24.9711 23.6094
29.5913 24.8969 23.8482
29.8841 24.6137 23.7893
29.1415 24.393 23.737
29.3728 24.5214 23.979
29.8972 25.1368 24.5075
29.494 24.5942 24.2059
28.8739 24.3638 24.1433
28.9358 24.3587 24.1664
29.5049 25.3461 25.1456
28.3108 24.672 25.3674
34.0281 29.4953 28.3392
28.6292 25.0749 25.1868
27.8228 24.2555 24.7409
28.5736 24.6509 25.1919
28.8338 25.1765 25.5434
28.4913 24.858 25.3372
28.3537 25.0365 25.5658
27.8131 24.7378 25.3533
28.1225 24.6542 25.1203
28.1458 25.1901 26.2929
27.3028 24.3998 25.3684
27.8649 24.7419 25.8305
27.9337 25.3277 26.4022
27.3491 24.6793 26.042
28.3256 25.5255 26.4752
26.897 24.6388 26.3939
28.1563 25.4792 26.7642
25.7463 23.6312 25.4666
27.2073 24.7316 26.2844
26.8911 24.7505 26.5786
26.4018 24.5773 26.5236
26.1725 24.3695 26.5029
26.744 25.0701 27.2675
26.9107 24.7565 26.9621
26.2488 24.4171 26.5338
25.9378 24.3552 26.5933
25.8365 24.4328 26.8479
25.8185 24.5823 27.1284
26.2004 24.4323 26.9538
25.4215 24.1725 26.9018
25.2031 24.3529 27.3403
25.2576 24.2575 27.0295
25.4527 24.5203 27.4579
25.1261 24.0172 27.1072
25.0663 24.0679 27.2048
24.8468 24.2832 27.7086
25.3895 24.7506 28.2455
24.1115 23.3082 26.7013
24.81 24.174 27.7441
24.1216 23.2385 26.6694
25.1875 25.1005 28.9997
24.9905 24.5659 28.565
24.2822 24.2796 28.0339
24.4182 24.6489 28.8455
23.95 24.155 28.3774
23.6631 24.1054 28.7887
24.5439 24.514 28.64
23.6086 23.8587 28.3929
23.7722 23.9242 28.4283
23.4009 23.4706 27.8315
23.3157 23.5045 28.3203
24.0374 24.569 29.5949
23.4599 23.9834 28.6329
23.8784 24.8602 29.9106
23.5666 24.2483 29.6598
23.8815 24.5642 29.7006
23.0943 23.8818 29.347
23.2417 24.1588 29.4869
23.2444 24.4384 29.9953
22.7417 24.0122 29.6464
23.301 24.4793 29.9632
22.7778 24.1064 29.7465
22.5754 23.5077 29.4298
22.3617 23.905 29.7653
22.2206 23.936 30.0109
23.0871 25.1185 31.4238
22.3554 23.942 30.0483
22.1911 24.0837 30.798
22.3165 24.0463 30.2567
22.3158 24.2613 30.5831
22.5728 24.7206 31.3585
21.9912 24.3702 31.5994
21.7805 23.7732 30.4298
21.2937 24.0329 31.1668
21.8317 23.7822 30.6345
21.4445 23.7882 30.838
21.4666 23.8785 31.3388
21.4743 23.8163 31.2827
21.5647 23.8285 30.7595
21.4539 24.2378 31.4564
21.1629 23.6685 31.4825
20.6259 23.1795 30.5082
21.0998 24.0456 31.9212
20.3561 23.1853 31.3326
20.9462 23.9356 31.9672
20.9486 23.5397 31.1699
20.9667 24.0615 32.301
21.0703 24.1156 32.3792
20.6135 23.7625 31.9432
21.0603 24.1854 32.492
20.6233 23.9085 32.2537
20.804 24.4116 33.2161
20.2322 23.6821 32.2458
20.2338 23.8107 32.8901
20.8971 24.8698 34.4133
20.4141 24.5421 35.6773
24.4052 28.7542 37.2989
20.2048 23.8882 32.7448
19.7813 23.6547 33.3204
20.3189 24.1929 33.894
19.8009 23.6839 33.3377
20.1571 24.2929 34.009
19.3356 23.2045 32.8123
19.6708 23.6368 33.4309
19.5008 23.4933 34.1093
19.9989 23.8964 33.8039
19.24 22.7272 32.2414
19.7763 23.7498 33.8274
19.4359 23.7027 33.8794
19.4518 23.3979 32.9681
18.7277 23.2092 33.5827
18.4758 23.029 33.4645
19.2217 23.623 33.8063
18.7517 23.2138 33.912
19.1555 23.7967 34.3523
18.5559 23.2716 34.4383
18.6237 23.4613 34.1198
18.5979 23.3891 34.6861
18.7012 23.2576 34.1451
18.7306 24.0381 35.8573
18.7189 23.2723 34.1449
18.5973 23.4359 34.4848
18.2029 22.8029 33.8314
18.2497 22.8622 34.4593
18.5565 23.5867 35.2518
18.1176 22.852 34.5563
17.8473 23.1095 35.0196
18.1232 23.3953 35.2405
18.264 23.5922 35.8394
18.0833 23.2841 35.1471
17.4622 22.6751 34.8601
17.8449 22.7397 35.0416
18.3035 23.7098 35.9021
17.4165 22.5513 34.8769
17.7187 23.1026 35.5556
17.567 23.2336 35.9255
17.3758 22.9977 36.2582
17.9578 23.3064 35.4485
17.1763 22.8729 35.7587
17.0016 22.4034 35.107
17.3954 23.35 36.6444
17.0895 22.537 35.507
17.1397 22.7399 35.8995
17.2928 23.3315 36.8093
17.1246 23.0258 36.3107
17.0305 22.7818 36.2963
17.0289 23.0202 36.274
17.3655 23.6684 37.4254
16.8505 23.5059 37.7324
16.9624 22.6264 36.2378
16.4998 22.4267 35.8709
16.2213 22.9434 37.6802
16.3 22.5395 36.6561
16.4756 22.3001 36.1178
15.925 22.0898 36.3238
16.4338 22.8899 37.2871
16.4354 22.7469 37.1824
16.2714 22.787 37.6537
16.2685 22.3782 36.886
16.4998 23.0388 38.0284
16.1597 22.338 36.9837
16.5087 23.2029 38.1952
16.4253 22.7039 37.5057
16.2039 22.4198 37.3703
15.9712 22.3341 37.305
15.6073 22.4529 37.3494
15.5073 21.9821 36.6735
15.554 22.6788 38.5462
15.6177 21.714 36.6772
15.7335 22.5495 37.5835
15.0597 21.983 37.7149
15.5353 22.1824 37.8164
15.6389 21.9122 37.2043
14.9628 21.7904 37.4108
15.513 22.6969 39.1809
15.4263 22.1131 37.8163
15.2767 22.4879 38.6253
15.2682 21.9337 37.9444
15.4185 23.0557 40.5723
15.079 21.945 38.1872
15.2543 22.0072 38.1566
15.0152 22.1939 38.5165
14.8705 21.6907 37.8821
14.8171 22.207 39.2317
15.0698 22.5398 39.3189
14.7263 21.759 38.4481
14.974 21.8574 38.4441
14.917 22.4529 39.5165
14.479 21.8047 39.1559
14.8343 21.848 38.5677
14.7268 22.011 39.0149
14.4033 22.2053 43.0313
17.8255 27.1195 45.085
14.9801 22.3974 39.5586
14.0567 21.6597 39.2346
14.2067 21.5552 39.3556
14.1307 21.6492 39.1957
14.0247 20.838 37.7609
14.1412 21.6096 39.5584
14.2196 21.5948 38.7898
14.0393 21.4566 39.2588
14.1463 21.8485 39.9678
13.9123 21.3782 39.4718
14.0588 21.2618 38.6203
13.9245 21.8826 40.2179
13.7314 21.5776 40.0391
13.8962 21.513 40.2207
14.0659 21.7571 39.7846
13.6642 21.3684 39.7152
13.675 21.2966 40.4336
14.2024 22.4023 42.1293
13.8187 21.7469 40.609
13.648 21.1633 39.9994
13.7445 21.7394 40.9336
13.2737 21.1956 40.0151
13.6427 21.6096 40.7415
13.3766 21.1673 40.1308
13.4086 21.1989 40.5489
13.524 21.6971 41.3199
13.3612 21.1479 40.4205
13.532 21.3676 40.0068
13.3259 21.1379 40.6866
13.3451 21.4933 41.2118
13.0917 21.292 41.1635
12.9984 21.1487 40.0618
13.1068 21.4772 41.4575
12.9135 21.0181 40.7954
12.6163 21.0223 40.9558
13.1047 21.3564 41.8501
12.7645 20.9873 41.8731
13.1694 21.6831 41.9561
12.8131 21.1601 41.6891
12.7791 21.3146 41.683
12.5542 20.5989 40.8908
13.035 21.281 41.5774
12.7554 21.3608 41.7987
12.9383 21.0061 41.0947
12.5185 21.0831 41.3235
12.0764 19.9135 40.3327
12.4749 20.865 42.2895
12.9272 21.6888 42.4908
12.1859 20.9686 42.6739
12.3089 20.3506 41.4566
12.6201 20.6107 41.3017
12.5303 21.438 42.6848
12.4809 21.196 42.6889
12.4828 21.3923 42.877
12.1708 20.6719 42.7388
12.3985 20.9879 42.3594
12.28 20.7929 43.2194
12.6 21.748 44.2903
12.3506 21.2214 42.9896
12.253 20.9526 43.0081
12.0692 20.7866 43.0213
12.0623 20.4516 41.9384
12.0166 20.6577 42.7384
12.0779 20.9658 42.9973
12.0335 20.8501 43.4736
12.1929 21.1183 42.8404
11.6776 20.0815 42.3923
11.786 20.5969 42.7496
11.4332 20.4336 42.5603
11.5506 20.2464 42.972
11.7991 21.0045 44.0241
11.8298 20.6677 43.3955
11.5872 20.0027 41.5884
11.3326 20.1459 42.7598
11.3546 19.8422 42.476
11.3232 19.8726 42.2047
11.0293 19.4476 41.8221
11.3103 20.0275 42.6375
11.2401 19.9056 42.734
11.2901 19.9551 42.9775
11.4349 20.2994 43.5206
11.2359 20.216 43.2048
11.113 19.9261 43.1077
11.295 19.9391 42.6692
11.2033 20.0598 43.178
11.2812 20.7302 44.5793
11.0492 20.039 43.2598
10.9442 20.2719 44.9677
11.2689 20.3699 44.7549
11.2779 20.2774 44.0307
11.2974 20.5684 44.8169
10.8002 19.766 43.9233
11.0047 19.6706 43.2334
11.0825 20.6637 44.8009
10.8256 20.5886 50.3473
13.2623 24.0317 48.2859
11.2616 20.5767 45.4783
11.1924 20.2778 44.6912
10.8828 20.1119 44.6497
10.8105 19.2266 42.841
10.7254 19.9557 44.0024
10.7455 20.2936 45.3231
10.5925 19.29 43.1192
10.4336 19.7838 44.7928
10.7563 19.9596 44.3183
10.5007 19.6655 44.8446
10.7098 20.2525 45.1036
10.3965 19.0293 43.3362
10.3349 19.6345 44.5515
10.4652 19.6695 45.0341
10.8644 20.5022 46.5201
10.7777 20.3526 45.7518
10.2405 19.6432 44.9076
10.1803 19.0604 44.208
10.2052 18.9559 42.2803
9.93883 18.8962 43.1109
10.1922 19.8338 45.6303
10.2661 19.234 44.8361
10.277 19.3634 44.8561
10.4441 19.8589 45.0412
10.0337 19.3203 45.1749
10.2389 19.6884 46.2082
10.2422 19.9757 46.6041
10.61 20.0229 46.3347
10.0494 19.3999 45.3447
10.107 19.3944 44.9406
10.0968 19.839 46.5387
10.0475 19.3389 45.6145
9.80613 19.3341 46.4936
10.0075 19.6821 46.3611
10.1658 19.4739 45.5113
9.81686 19.4291 46.2052
10.0912 19.5757 46.4393
9.94546 19.6273 46.3062
9.72212 18.8156 44.7117
9.76469 19.1682 45.517
9.7674 19.5698 47.0062
9.775 19.1931 45.7256
9.62418 19.1233 46.5071
9.74131 19.1933 46.4855
9.9516 19.7021 46.6956
9.58276 18.7113 45.0195
9.64586 19.2306 46.0254
9.75197 19.2804 46.1325
9.66557 19.4907 46.0364
9.27493 18.4804 45.9744
9.46798 18.7062 45.4453
9.37242 18.7784 45.9677
9.40343 18.7271 45.998
9.70196 19.3216 46.7757
9.43351 19.316 47.856
9.7981 19.611 47.4413
9.69349 19.2873 46.7631
9.33826 19.12 46.9149
9.28811 18.6174 46.1008
9.41611 19.1406 47.0311
9.11782 18.364 45.1219
9.2056 18.8528 46.6361
9.15924 18.9702 47.0293
9.30787 18.8135 46.3629
9.24969 19.0336 47.9764
9.30128 19.3482 48.2776
9.29727 18.7134 46.1064
9.05245 18.6635 46.8535
9.29546 18.9102 46.8477
9.08827 19.2689 48.8242
9.44956 18.8489 46.2866
8.87638 18.7592 48.0338
9.31049 18.8782 47.4495
9.0233 18.6327 46.6952
8.89628 18.8533 47.9873
8.82753 18.3131 47.7036
9.19587 18.7635 46.7053
8.87651 18.4344 47.2592
9.07546 18.8407 47.6582
8.8558 18.3419 47.3691
8.92083 18.725 48.1477
9.04912 18.7272 47.7251
8.90588 18.4486 47.4238
8.80126 18.5447 47.2428
8.65888 18.6863 48.1678
8.81642 18.8185 48.2183
8.71973 18.9224 49.0655
8.89992 18.861 48.8314
8.74976 18.5449 48.4087
8.99705 18.9855 48.9472
8.86711 18.5446 47.4091
8.59725 18.5457 48.1292
8.47675 18.3566 49.0781
8.78945 18.8275 48.3651
8.68587 19.4542 56.6438
10.3848 21.6953 51.6511
8.79206 19.0591 50.2353
8.93695 19.2081 49.7593
8.75614 18.8934 49.747
8.82368 18.8003 48.8591
8.73351 19.0668 49.7283
8.46484 18.2401 48.1673
8.42823 18.6929 49.5811
8.35513 17.9899 49.0315
8.79771 18.7558 49.5591
8.5422 18.6155 48.7621
8.29726 17.8551 48.187
8.48994 18.3677 48.9895
8.53794 18.52 48.6717
8.31899 18.2245 49.0516
8.26595 17.4548 46.5797
8.21923 18.4338 49.5035
8.24187 17.9381 47.981
8.16161 18.4258 50.0751
8.31902 17.8206 47.7393
8.14436 18.0443 48.3351
8.02691 17.6499 48.3625
8.11759 18.1093 48.1601
8.07977 18.0317 49.986
8.22324 17.7922 49.0223
8.1849 17.6764 48.1318
8.19347 17.9126 48.0648
8.05441 17.746 48.1861
7.93226 17.5285 48.1347
8.10141 18.2387 49.402
7.97788 17.974 49.4006
7.9026 17.5074 49.1043
8.05552 17.6351 47.0891
7.78014 17.6521 49.2121
7.81933 17.4522 48.309
7.82531 17.4163 48.5869
8.08868 17.7054 48.2058
7.79101 17.2353 48.1355
7.79163 17.5963 49.1778
7.8382 17.3502 47.73
7.72673 17.3688 47.8597
7.75795 17.7137 49.5831
7.69521 17.4761 48.4361
7.69042 18.0384 50.7488
7.69301 16.8182 48.2272
7.93262 18.0703 50.0478
7.73912 17.8827 49.5189
7.68419 17.3168 49.5731
7.76385 17.4432 48.4353
7.59041 17.4491 49.1276
7.67962 17.32 48.397
7.65205 17.5445 48.9676
7.49125 17.2349 49.0206
7.55196 17.0167 48.0015
7.40629 17.1694 49.258
7.64287 17.7911 49.4941
7.50873 17.2208 49.9537
7.64256 17.5351 48.9716
7.30727 16.5694 48.2571
7.49437 17.4912 50.447
7.47936 16.9328 48.3902
7.49273 17.7061 50.2211
7.54339 17.6019 50.3055
7.36083 17.0055 48.9622
7.35555 17.0044 48.5532
7.45128 17.6372 50.5799
7.26405 16.7835 49.2142
7.53736 17.6618 50.8023
7.31589 17.5885 50.1369
7.37079 16.8112 48.686
7.28742 17.1401 49.9175
7.3236 17.0881 49.3195
7.15597 16.9007 49.1582
7.29466 17.349 50.5371
7.24003 16.8716 49.6608
7.18688 17.0926 50.4569
7.2573 17.1459 50.9345
7.31679 17.0178 50.3325
7.36538 17.6216 50.2726
7.17251 16.9631 49.3854
7.18042 16.7899 49.4641
7.14398 17.3024 50.1514
7.03117 16.7523 49.3912
7.1593 17.1187 50.6042
6.98477 16.5328 50.1336
7.25761 17.2906 50.2853
6.9809 16.5117 49.4105
7.09767 17.0461 50.0866
7.20317 16.9446 49.3395
6.95484 16.4049 49.6862
7.20046 17.6424 52.4485
7.23939 17.1255 50.6737
7.01713 17.5874 51.8535
6.90704 16.3733 50.1677
7.19883 17.3811 51.8894
7.13126 17.5694 58.4111
8.39185 19.6925 52.9273
7.09985 16.944 50.1663
6.83712 16.7474 51.7029
6.97615 16.6097 50.3356
6.90848 16.4152 48.3806
6.75326 16.6308 50.1156
6.79962 16.2944 49.1657
6.86566 16.566 49.0029
6.56588 16.118 49.456
6.91039 16.8593 50.5291
6.89083 16.9553 51.7025
6.84968 16.92 50.9817
6.78896 16.7361 50.9132
6.6448 16.0371 49.7621
6.7457 16.8643 51.4483
6.82212 17.1898 52.5223
6.85201 16.5935 50.5868
6.78728 17.0012 51.6279
6.70626 16.4237 50.9691
6.82758 16.9355 50.8428
6.72813 16.7823 52.5044
6.93402 17.005 52.1783
6.72959 16.6505 51.6247
6.72192 16.6163 52.1037
6.9209 16.4769 49.5364
6.50481 16.1205 50.0016
6.64226 16.4943 51.45
6.63267 16.6641 50.6688
6.59913 16.1138 50.9725
6.6764 16.5492 50.8682
6.49723 16.1814 50.6607
6.511 16.1208 50.6937
6.63454 16.4008 50.5867
6.5633 16.6261 51.2472
6.44971 16.1899 51.9389
6.52425 16.3055 51.0767
6.69211 16.8568 53.1282
6.6172 16.4494 52.0729
6.75737 16.4856 50.4367
6.5362 16.3853 51.289
6.34429 16.1259 50.9399
6.52047 15.9381 49.7201
6.47877 16.5642 51.386
6.44807 16.2008 51.4609
6.27462 15.6919 49.3733
6.22038 15.742 51.0654
6.55547 16.3515 51.3406
6.5268 16.3623 51.1866
6.41845 15.9457 50.3036
6.18552 16.1155 51.3347
6.36883 16.1375 52.1628
6.4476 16.2709 52.5085
6.47987 16.1548 50.8658
6.22515 15.8905 51.5326
6.38042 16.096 51.4443
6.41991 16.8653 53.3379
6.26743 15.6968 50.4829
6.24091 15.6539 51.3799
6.34744 15.7144 50.5803
6.36141 16.1787 51.0373
6.27936 16.0701 51.8318
6.2677 16.3617 53.5257
6.4517 16.1314 51.9466
6.25999 15.9213 51.9052
6.3356 16.2901 51.8825
6.23358 16.1933 51.2225
6.08354 15.5697 49.92
6.08909 16.1002 52.2867
6.19175 15.7507 51.9195
6.29519 16.5422 53.1374
6.20635 15.7096 51.9568
6.26019 16.1717 52.7896
6.25866 15.7318 51.4304
6.2635 16.2891 52.5906
6.13985 15.9629 52.5056
6.18553 16.0695 51.7599
6.12826 15.8116 51.5524
6.05745 15.7839 51.8427
6.05195 15.8739 51.3377
6.03468 15.751 51.1675
5.90401 15.9412 53.2137
6.08896 15.4857 51.8701
6.17286 16.0419 52.6321
6.11609 15.9902 52.1553
6.12079 15.8659 52.0352
5.97242 16.2427 53.797
6.10085 16.0514 53.1319
6.04526 16.2671 53.507
6.14324 15.7967 52.2656
6.00598 15.4674 52.1609
6.09799 16.2567 53.3476
6.07712 15.6525 51.8474
5.96972 15.7745 52.3208
6.02047 15.5009 50.9373
5.87589 16.1346 53.2925
5.95239 16.6152 62.389
7.11795 18.1197 54.7689
6.04733 15.8417 52.7319
5.93685 15.7062 52.7075
5.93986 15.7396 51.3442
5.6844 15.476 52.0911
5.85577 15.7847 53.8911
6.06621 15.8094 52.1426
5.7532 15.3451 51.4813
5.78418 15.4857 51.8879
5.80718 15.6796 53.2509
5.73767 15.4833 52.5578
5.91226 15.6449 52.4554
5.81099 15.6363 52.585
5.84788 15.3916 53.0914
5.88488 15.4789 52.1106
5.79432 14.9467 50.2577
5.70171 16.1474 54.186
5.77667 15.2515 52.2723
5.72818 15.2188 51.8952
5.7487 15.4962 53.0846
5.8738 15.828 53.7217
5.75639 15.4327 52.5439
5.70568 15.1541 52.6602
5.8015 15.3306 52.8641
5.85241 16.1468 53.2369
5.69387 15.4191 52.4864
5.67819 15.8154 53.812
5.71006 15.2631 51.9363
5.6315 15.2595 52.8875
5.72467 15.7635 53.3078
5.63601 15.143 52.7327
5.74922 15.1055 51.6567
5.65227 15.3113 53.146
5.74416 15.5537 51.9485
5.6427 14.8583 53.1844
5.76375 15.7723 52.9407
5.5167 15.1197 52.22
5.53018 14.8685 52.2359
5.66273 15.6327 52.8616
5.5188 15.4616 52.7768
5.47447 14.9685 53.1307
5.69979 15.7649 52.8649
5.43877 14.6574 52.6537
5.62313 15.0233 51.3855
5.54751 15.3027 53.1739
5.43823 15.1286 52.114
5.42791 15.4142 54.0052
5.60744 15.4806 53.632
5.52184 14.9736 52.2427
5.52947 15.3816 54.4776
5.67472 15.4933 53.7812
5.55492 15.3467 53.6354
5.5599 15.4468 53.3427
5.44128 14.9513 52.0179
5.54578 15.0075 52.3907
5.39572 15.3932 54.4756
5.5703 15.004 52.9195
5.52688 15.3415 52.8207
5.40451 14.9408 53.6347
5.42458 14.7866 52.7506
5.43643 14.6589 51.2725
5.31085 15.4213 54.0996
5.45249 14.7121 53.5711
5.57222 15.4698 53.6422
5.35686 14.9408 52.624
5.34219 14.9861 53.8158
5.49118 15.2026 52.3066
5.36138 14.8087 52.9659
5.39952 14.8322 52.9883
5.48052 15.334 52.8005
5.34911 15.1076 53.9242
5.43705 15.3594 54.8097
5.51123 14.9242 53.3637
5.38511 14.5847 52.1177
5.37735 15.0378 53.1552
5.39789 14.8345 52.3627
5.33114 14.6095 52.2043
5.34805 15.3827 54.6701
5.39548 14.7006 53.093
5.32962 15.2053 54.7813
5.34402 15.0461 53.4362
5.3772 15.1989 54.6114
5.38274 15.0061 52.8739
5.28627 14.9541 53.6357
5.37094 15.1579 53.7443
5.33802 14.7934 54.4734
5.51516 15.5219 54.6547
5.3166 15.3999 54.223
5.26848 14.871 55.1806
5.48232 14.9665 53.2183
5.34969 15.2597 54.7045
5.42435 15.3481 54.8899
5.26196 15.138 55.6027
5.51892 15.443 55.8315
5.48915 15.9127 57.3744
5.5011 16.1625 64.3203
6.23393 16.8785 55.0727
5.2708 15.4704 57.3748
5.62985 15.3391 54.8482
5.3187 15.1767 53.8105
5.21805 14.7526 54.8434
5.31268 15.1968 54.3676
5.36328 14.909 54.8525
5.3508 15.6711 55.7909
5.31469 15.0236 54.3129
5.29432 15.1359 54.0687
5.16284 14.875 53.7533
5.13331 14.596 54.5942
5.27569 14.9857 54.4879
5.23836 15.0303 53.6725
5.05475 14.4651 54.6682
5.36621 14.5466 53.2435
5.21877 14.9165 55.4937
5.22242 14.8003 54.0515
5.30468 14.8385 53.6636
5.07517 14.7184 53.1733
5.06812 14.5527 52.3315
5.06642 14.6521 53.8431
5.07587 14.5517 53.5485
5.114 14.5883 54.2032
5.15296 14.4526 53.6052
5.07185 14.6381 52.158
4.97956 13.9741 53.1944
5.13379 15.0148 54.824
5.0469 14.5563 53.2474
5.0976 14.6833 53.2141
4.93022 14.5783 53.9869
5.07303 14.5404 54.3888
5.04836 14.2465 52.7735
4.98847 14.4826 53.1429
5.03237 14.6068 53.784
5.06261 14.5886 54.2508
5 14.3306 52.9226
5.00492 14.1547 52.9776
5.0321 14.7107 54.8094
5.08141 14.9437 54.9577
5.13458 14.9029 55.3024
5.06334 14.3894 53.5457
5.00435 14.9441 54.6162
5.04418 14.2497 53.5408
4.9919 14.188 53.2668
4.9814 14.4368 53.5118
5.04387 14.4371 53.0581
4.90288 14.2461 53.9989
4.96153 14.2643 52.8746
4.9828 14.7187 54.4815
4.98654 14.295 53.6897
5.01544 14.3693 54.0203
5.05716 14.4411 52.1803
4.8942 14.2746 54.0967
4.92481 14.5537 54.1623
4.93318 14.3723 54.497
4.91477 14.1965 53.4302
4.87764 14.0958 53.6497
4.9253 14.4369 53.9621
4.97094 14.3507 53.4647
4.92843 14.4602 55.1241
4.90521 14.4111 53.6434
4.83183 14.1377 52.7001
4.76734 14.2459 52.9877
4.79171 14.0133 53.2679
4.80418 14.0113 52.6938
4.79958 14.0976 53.696
4.91004 14.3353 54.7925
4.88238 14.3382 55.1575
5.03702 14.4458 53.1172
4.82335 13.9045 52.8087
4.85192 14.1454 53.3978
4.84194 13.9019 53.1044
4.86162 14.3717 54.1542
4.9047 14.2598 53.3325
4.82394 14.2832 54.7294
4.93605 14.6662 55.1006
4.91984 14.3901 54.9528
4.8686 13.9648 52.9077
4.89964 14.5519 53.8528
4.85218 14.2133 54.2019
4.83068 13.8011 51.636
4.68837 13.6315 51.557
4.69062 13.7123 52.1988
4.70853 13.8888 53.9748
4.78028 14.549 56.4117
5.0193 14.2813 52.4405
4.75013 13.8539 53.5559
4.75811 14.0732 53.8425
4.76706 14.2902 54.2952
4.78697 14.1356 53.7242
4.78789 14.3191 54.3596
4.69788 13.8369 53.0293
4.75728 14.1495 53.3579
4.6649 14.1278 53.7276
4.74212 14.9368 65.7184
5.66462 16.0301 54.6217
4.81498 13.7914 53.8996
4.78789 14.2183 53.0662
4.71524 14.1341 53.5059
4.63303 14.0472 54.7879
4.78677 14.1453 53.5032
4.71531 13.962 53.3539
4.67884 13.7046 52.915
4.65115 13.7073 52.1476
4.67734 14.3629 54.6126
4.73464 13.8062 53.7611
4.72854 14.2655 54.7887
4.82192 14.1365 54.5587
4.74727 13.783 53.0657
4.68468 14.0689 54.5479
4.70313 13.9369 52.8
4.66105 14.6209 54.9099
4.65057 13.7823 54.0963
4.743 13.8349 52.2756
4.57724 13.8483 54.0495
4.69159 13.9138 52.9894
4.57718 13.5882 52.8932
4.62227 13.5441 52.8033
4.60255 13.8055 53.4932
4.63141 13.7508 52.5685
4.66728 13.9973 53.2217
4.59067 13.7061 52.8442
4.64297 13.7135 54.4246
4.70904 13.9499 53.9854
4.69099 13.8117 52.4729
4.5259 13.7209 53.9556
4.60873 13.9168 53.6921
4.54867 13.6532 53.3368
4.61016 13.2912 52.3548
4.55122 13.9115 53.6153
4.56336 13.7161 54.7196
4.74217 14.1232 53.0141
4.51207 13.8903 54.7768
4.6989 13.9755 55.0828
4.65209 14.1737 53.9483
4.63584 13.7861 53.2409
4.60546 13.6054 53.8211
4.64986 14.2089 54.3837
4.64444 13.7406 53.5441
4.63551 13.9272 53.5538
4.65777 13.7288 53.9701
4.63997 13.4764 51.2464
4.45789 14.0256 54.9254
4.64621 13.9619 53.8235
4.47551 13.6666 53.39
4.59209 13.7563 53.1834
4.51425 13.9091 54.1421
4.58246 13.8652 54.829
4.63314 13.8101 53.5931
4.58683 13.9947 53.9271
4.55745 13.5887 54.1239
4.52784 13.4898 53.391
4.64916 13.761 53.8184
4.53762 13.8956 54.8644
4.69492 14.0183 54.4923
4.69188 14.1017 54.1747
4.60493 13.522 54.0899
4.61906 13.9055 52.6333
4.48358 13.8576 55.6382
4.70223 13.9147 54.7503
4.62585 14.2419 53.7173
4.55462 13.6789 54.3599
4.57292 13.6938 53.6287
4.52213 13.971 55.7235
4.68171 13.7629 54.7768
4.67718 14.1102 53.8208
4.56454 13.7853 54.5477
4.62709 13.9676 54.4029
4.43443 13.9903 56.1776
4.73083 13.7822 53.71
4.56614 13.8571 54.7467
4.66266 14.0524 55.294
4.68205 13.889 55.5673
4.73546 13.9751 53.4241
4.41379 13.9311 55.253
4.58459 13.9749 55.0868
4.53358 13.7828 54.0997
4.55751 13.7684 54.2979
4.52305 13.9601 54.4052
4.58285 13.8153 55.9061
4.63607 14.0479 54.4466
4.60174 13.8333 54.0452
4.50595 13.5818 53.6463
4.49135 13.5737 53.1273
4.36897 13.3991 53.2039
4.44 13.6734 53.1591
4.44372 13.3229 52.5672
4.4622 13.4008 52.8629
4.43362 13.4596 54.1378
4.54805 13.8365 55.4754
4.67598 15.0011 66.9783
5.33771 15.2064 54.8982
4.56795 14.1855 53.8549
4.46176 13.7557 53.9157
4.43868 13.8322 55.3945
4.63304 13.6659 55.1715
4.59206 13.8367 54.183
4.49774 13.6895 52.5881
4.38803 13.3853 53.6078
4.41527 13.4583 52.3927
4.40655 13.6611 53.2535
4.39667 13.419 53.7975
4.47198 13.7544 54.92
4.5055 13.8928 54.7115
4.55473 14.1787 54.9397
4.56477 13.5563 54.5761
4.5149 14.0512 54.3295
4.42185 13.5133 54.5691
4.47338 13.659 54.8974
4.4961 13.7909 54.2439
4.48671 13.5767 53.3598
4.37641 13.3247 55.14
4.44228 13.6654 54.5223
4.57114 13.6513 52.9407
4.40976 13.4372 53.195
4.40323 13.4006 53.4965
4.38916 13.4561 53.438
4.41532 13.5939 52.6662
4.29822 13.3173 55.1159
4.5329 13.8438 55.8857
4.57244 13.8355 55.4493
4.54985 14.0978 54.4884
4.49399 13.6285 54.9694
4.41761 13.9975 54.2459
4.44468 13.3159 54.404
4.29201 13.9598 53.6691
4.45511 13.7849 54.6079
4.4724 13.0961 52.9139
4.3736 13.3991 53.2827
4.37512 13.3137 53.4824
4.40271 13.6787 54.4064
4.42832 13.996 54.2832
4.48995 13.5482 54.5682
4.50179 13.5313 54.8021
4.42781 13.4763 53.0893
4.34452 13.7151 54.3471
4.41055 13.8365 55.2754
4.52728 13.6848 55.4751
4.51494 14.0092 55.1371
4.46179 13.6502 55.2118
4.48496 13.5794 53.3752
4.3632 13.7986 55.6048
4.47757 14.0089 55.5348
4.50982 13.8517 54.9686
4.49025 13.7167 53.9701
4.39326 13.5999 53.9072
4.41631 13.5559 53.7773
4.40208 13.8271 54.7323
4.48624 13.5913 54.4494
4.49267 13.5838 55.284
4.5268 13.75 54.9376
4.4864 13.7836 55.096
4.49326 13.495 53.6501
4.44357 13.7926 55.2472
4.46035 13.9563 54.4606
4.47498 13.4656 55.3629
4.50717 13.7171 54.0488
4.44002 13.9077 55.1348
4.47703 13.6728 53.9139
4.43941 13.7235 55.8928
4.55867 13.6773 53.8129
4.42765 13.7841 55.3333
4.51794 13.6615 54.96
4.52745 13.8016 54.5846
4.38858 13.7665 55.6494
4.54357 13.8619 55.7103
4.47635 13.8365 55.3262
4.46054 13.5883 54.0094
4.41159 13.6155 55.0938
4.49525 13.6828 54.4354
4.49113 13.294 53.8323
4.34635 13.7427 55.3955
4.51394 13.8637 55.8247
4.50655 13.8819 54.6819
4.48539 13.7821 53.9031
4.47015 13.9383 55.6074
4.54233 13.4131 54.2
4.38186 13.8481 54.5283
4.40438 13.9909 55.0701
4.46796 14.0642 56.4255
4.58682 13.7459 56.2306
4.60303 14.0739 56.7512
4.6045 14.0998 56.8552
4.56206 14.4782 57.4184
4.61231 14.2977 57.1116
4.59228 14.5888 58.5699
4.70921 15.9239 69.5822
5.46711 0 0