# pn-170911/RbIIR-46-RbIIR-1280-1959.psd
# Power spectrum* (dif=0,1,2) (really just |FT|^2)
# NOTE: only the first half! (symmetric)
# weeks: 1280-1959
# 4432 clock-days, 309 excluded
# PSD: 1441
218.455 0.112847 0.0422918
61116.1 1.04623 0.0467918
345323 7.17673 0.0446386
37574.9 1.35217 0.0469105
47122.6 3.31047 0.0473175
12928.9 1.19048 0.0460858
9059.03 1.24153 0.0456618
6523.32 1.15257 0.0459687
5771.82 1.41575 0.0466141
4065.28 1.22252 0.0464365
3270 1.23326 0.0459281
2721.83 1.23796 0.0453641
2441.42 1.29745 0.0475208
2079.79 1.32826 0.0469283
1859.34 1.37511 0.0473324
1579.39 1.35355 0.047904
1390.6 1.3646 0.047581
1303.32 1.44604 0.0500785
1177.13 1.47743 0.0493472
1108.3 1.55041 0.0473354
1024.44 1.60282 0.0479837
948.192 1.67314 0.0498257
891.475 1.70976 0.0504681
859.491 1.78873 0.05072
832.673 1.91507 0.0507095
771.402 1.94449 0.0510775
788.136 2.18259 0.0539596
713.654 2.16791 0.0528747
721.793 2.32858 0.0561969
695.558 2.42744 0.0559467
682.41 2.55694 0.0584039
671.366 2.70734 0.0569753
655.365 2.85504 0.0599132
626.164 2.91327 0.0615273
639.717 3.18906 0.0639737
624.443 3.30424 0.0661364
620.9 3.4655 0.0664294
600.014 3.54813 0.0686273
623.144 3.90181 0.0734744
610.163 4.02768 0.0770799
595.099 4.18624 0.0803126
597.401 4.40583 0.0821821
590.219 4.60718 0.0843607
588.055 4.81013 0.0889789
590.593 5.0521 0.0944905
568.778 5.1953 0.0959361
542.058 5.09313 0.0986078
575.586 5.6883 0.10508
583.166 6.02918 0.111598
554.775 6.01592 0.113663
552.459 6.17194 0.118503
575.061 6.75848 0.129415
565.754 6.93467 0.134317
569.128 7.18178 0.139938
557.359 7.3677 0.148045
549.251 7.51655 0.15695
544.422 7.70892 0.164669
534.768 7.90794 0.166823
536.658 8.2505 0.179517
533.973 8.46708 0.187798
513.686 8.39841 0.188865
530.806 9.03355 0.204961
522.711 9.23234 0.214553
523.609 9.46719 0.226944
504.04 9.42789 0.230866
512.97 9.90481 0.245574
507.941 10.1755 0.259229
514.214 10.5447 0.267508
519.381 11.0033 0.291
501.37 11.0249 0.30058
498.102 11.1578 0.31
474.345 11.0221 0.309556
501.768 11.9402 0.338019
479.052 11.8242 0.345449
480.206 12.0562 0.358415
494.769 12.864 0.397679
486.61 12.9809 0.403336
482.65 13.1469 0.4151
466.977 13.1666 0.424879
459.108 13.3273 0.436531
452.367 13.4073 0.451569
447.197 13.4824 0.463543
441.698 13.762 0.484473
432.715 13.735 0.49286
429.554 13.9831 0.511938
433.311 14.4018 0.539573
426.785 14.6195 0.553765
435.3 15.1849 0.581106
434.507 15.5285 0.61704
433.45 15.8848 0.642726
421.585 15.8773 0.648783
429.045 16.5569 0.689559
404.378 15.7942 0.680042
394.93 15.7397 0.688496
395.1 16.2041 0.719203
392.033 16.3668 0.743444
506.726 21.8808 0.98798
398.389 17.1985 0.810226
378.736 16.8127 0.806716
373.029 17.015 0.834198
383.641 17.6631 0.889927
368.856 17.5505 0.891951
401.537 19.3012 1.00305
371.808 18.2201 0.957344
367.247 18.3558 0.977122
357.5 18.2377 0.985083
347.923 18.2602 1.01561
357.541 19.0257 1.06569
354.752 19.2749 1.11669
349.637 19.2388 1.1265
344.651 19.4204 1.14964
340.617 19.5552 1.17797
348.406 20.457 1.24305
340.337 20.2909 1.26474
353.445 21.2876 1.34169
336.845 20.7042 1.3316
321.925 20.1593 1.32229
316.324 20.2414 1.34956
322.998 20.9761 1.41978
322.206 21.275 1.46182
324.505 21.8004 1.53503
313.689 21.14 1.50129
309.936 21.2887 1.53322
303.476 21.3233 1.55476
313.504 22.361 1.66752
313.906 22.8802 1.73911
305.921 22.6595 1.74551
291.716 21.7829 1.70338
301.05 22.9011 1.82186
288.88 22.3618 1.7954
281.821 22.0662 1.80127
289.051 23.2459 1.92513
291.504 23.6075 1.97036
284.343 23.3206 2.00526
279.795 23.2955 2.01279
279.105 23.6282 2.07635
271.208 23.2119 2.06207
274.082 23.7935 2.14926
277.588 24.4855 2.23894
267.673 23.9266 2.21488
271.95 24.7979 2.32174
266.142 24.5776 2.35812
258.26 24.0219 2.31644
268.44 25.5398 2.51313
270.975 26.1654 2.58922
258.284 25.07 2.51462
244.279 24.1975 2.46874
249.74 25.0692 2.58426
247.536 25.2084 2.64178
253.699 26.0958 2.75882
250.64 26.4647 2.84214
254.468 26.9391 2.93091
239.965 25.7016 2.84035
238.174 26.0548 2.91916
235.892 26.0291 2.94868
243.465 27.3011 3.15299
235.965 26.7477 3.11231
234.168 26.9528 3.17505
234.359 26.831 3.17384
232.918 27.3384 3.28774
224.722 26.838 3.26489
226.782 27.4954 3.41389
219.782 26.6563 3.31656
234.209 28.683 3.62475
222.693 27.5832 3.52552
223.556 28.2268 3.6546
216.211 27.7104 3.63269
225.095 29.1785 3.86074
217.19 28.621 3.83827
215.091 28.2316 3.80377
208.569 28.0967 3.84711
211.341 28.8105 3.99397
216.879 29.7526 4.16109
209.317 29.0748 4.11557
206.869 29.0938 4.17154
207.783 29.6234 4.27706
206.188 29.7398 4.3444
200.749 29.3666 4.3835
203.574 29.9784 4.49027
200.957 29.8612 4.5256
200.379 29.9259 4.58203
193.446 29.457 4.59628
199.444 30.4561 4.75522
202.078 31.256 4.96879
194.514 30.312 4.84132
194.807 30.9323 5.01625
195.865 31.2777 5.07365
190.536 30.8818 5.12923
191.321 31.3483 5.23719
190.52 31.5029 5.28158
183.329 30.6898 5.24093
190.763 32.7077 5.72109
270.466 45.9425 7.83279
183.13 31.3059 5.49147
174.873 30.5348 5.45871
179.75 31.5331 5.62725
181.11 32.0256 5.8081
175.195 31.2625 5.65599
172.784 31.699 5.91829
173.47 31.6057 5.87796
173.903 32.1059 6.07164
171.807 32.1857 6.12335
172.369 32.3315 6.18301
166.951 31.9872 6.22119
173.111 33.1251 6.45144
165.219 32.1089 6.35539
165.804 32.5574 6.50538
163.707 32.2773 6.47103
165.116 32.9376 6.69232
162.042 32.9408 6.80487
163.765 33.1257 6.78038
163.153 33.7398 7.08024
160.599 33.4011 7.02999
160.039 33.159 7.05758
158.402 33.7325 7.26402
158.276 34.1953 7.45277
157.54 33.5898 7.30836
157.989 34.3279 7.56016
152.886 33.7431 7.57501
154.011 34.2264 7.67539
153.607 34.2594 7.78277
150.096 33.5052 7.61656
153.527 34.7968 8.00696
147.471 33.6755 7.79864
148.729 34.4332 8.09297
145.431 33.923 8.03888
143.422 33.8337 8.13439
143.86 34.0265 8.19288
146.21 35.2032 8.59719
149.703 35.9631 8.75274
144.576 34.8823 8.58161
142.075 34.8595 8.6764
143.576 35.3683 8.85353
140.341 35.4732 9.07356
145.54 36.3898 9.2304
140.415 35.9857 9.32982
143.141 36.4789 9.42104
136.245 35.2286 9.28336
133.725 34.7682 9.22121
138.882 36.5907 9.80616
135.575 35.8752 9.59894
132.073 35.1984 9.48278
133.598 36.0713 9.87571
132.686 36.1213 9.95838
131.718 35.9225 9.93896
133.715 36.9204 10.3086
130.591 36.2218 10.2094
133.432 37.0487 10.4545
134.338 37.9369 10.8621
128.403 36.5229 10.6111
127.531 36.5498 10.6296
127.505 37.2046 11.0567
130.865 37.9826 11.1927
127.054 37.0441 10.9992
122.709 36.2174 10.8175
124.924 37.113 11.154
126.694 38.118 11.5393
124.875 37.9055 11.6488
124.935 37.9826 11.6772
122.115 37.961 11.9847
121.031 37.3166 11.7013
123.166 38.2583 12.1164
120.204 37.3888 11.8362
118.815 37.7154 12.153
124.61 39.5407 12.683
116.529 37.4154 12.2133
117.385 38.0266 12.4513
112.262 36.8504 12.2153
115.663 38.0036 12.6943
117.061 38.6365 12.9719
118.166 39.3078 13.2563
111.993 37.3133 12.6118
113.249 38.4163 13.2301
112.474 38.2648 13.2816
113.579 38.8871 13.4585
108.489 37.4691 13.1356
110.194 38.3523 13.4864
108.069 37.3627 13.1428
106.3 37.7339 13.5014
108.88 38.7137 13.9258
107.993 38.6096 13.9859
106.668 38.512 14.1226
109.273 39.6155 14.559
106.042 38.5863 14.1966
102.93 37.7831 14.1245
106.331 39.2369 14.7353
102.937 38.3512 14.5629
105.729 40.4647 15.9166
160.41 59.5101 21.8687
101.998 38.9939 15.1854
100.625 38.5618 15.0674
100.579 38.4837 14.9339
100.237 38.8523 15.2848
99.4938 38.9297 15.421
97.3661 38.3597 15.3483
98.688 38.8573 15.4723
97.8035 39.0251 15.789
96.9331 38.7295 15.6461
97.7637 39.6847 16.2351
97.6593 39.6321 16.4052
97.0377 39.5138 16.3185
96.4635 39.8593 16.6707
97.5178 40.1405 16.7593
96.8829 40.2792 16.8843
93.5809 39.2226 16.637
95.7795 40.7025 17.4522
95.0116 40.0523 17.1475
90.5445 38.6348 16.7262
91.0686 39.2842 17.134
91.8824 39.6035 17.3873
94.0028 40.724 17.9047
89.3857 39.2542 17.4322
90.8033 39.881 17.7825
87.2863 38.8735 17.5581
89.9871 39.6634 17.725
88.5842 39.7261 18.1018
88.8947 40.2339 18.4601
87.1247 39.4243 18.0399
88.703 40.5144 18.8124
86.5499 39.6303 18.3212
82.8106 38.7391 18.2562
87.1112 40.5569 19.049
85.4246 40.1464 19.091
85.6966 40.0294 18.9923
84.3703 39.9884 19.0377
84.3602 40.4248 19.52
83.5388 40.269 19.7038
83.1372 40.4113 19.9162
84.939 41.0705 20.1041
81.7779 40.1781 19.9552
83.8925 41.0165 20.364
80.2603 39.9637 20.2171
83.4432 40.6998 20.1437
80.6746 40.6021 20.6643
79.2325 39.543 20.1392
80.738 40.6544 20.7358
82.9672 42.3054 21.7189
79.4048 40.5422 20.993
80.8701 41.5929 21.5688
77.3703 39.7351 20.8075
81.1411 41.8819 21.9594
76.9737 39.8649 21.0121
76.7123 40.395 21.4615
77.238 40.8687 21.7866
74.7517 39.8477 21.579
77.078 40.9692 22.0754
74.1878 39.8967 21.8075
76.8117 41.3837 22.5077
74.7161 40.632 22.4321
72.5155 39.5349 21.9671
73.8355 40.2933 22.3268
73.3549 40.5413 22.6716
75.0927 41.694 23.3909
72.7463 40.6741 23.0142
71.7703 40.1817 22.7622
71.2035 40.3096 23.1249
71.6134 40.4606 23.2824
72.4151 41.2949 23.855
70.214 40.101 23.4238
70.2485 40.0775 23.3515
72.3512 41.4709 24.1251
70.8624 41.0597 24.0986
68.1556 40.2093 24.0983
69.7017 40.9932 24.5276
70.7254 41.2665 24.6142
69.4473 40.9153 24.4659
68.2115 40.8269 24.7475
68.6937 41.5672 25.4435
68.5874 40.8697 24.862
68.6881 41.6077 25.3604
65.5267 39.8216 24.5242
65.7866 40.5362 25.1122
65.9478 40.8699 25.5062
64.3233 39.9371 25.2702
65.597 40.6894 25.5489
66.9098 42.1418 26.667
64.7409 40.851 26.1767
65.7225 41.4855 26.493
63.2679 40.0945 25.8185
65.1752 41.2277 26.5239
63.1964 40.9354 26.8481
63.1379 40.5773 26.5572
63.2938 41.1836 27.242
63.7641 42.5381 29.714
99.4093 63.6557 39.5206
61.4554 40.6333 27.3365
61.2276 40.5957 27.4251
62.4968 41.0609 27.361
62.0181 41.3566 27.8015
59.1511 39.6555 27.0875
61.0096 40.9789 27.8129
62.1781 42.2287 28.8474
59.9539 40.6543 28.0434
60.9283 41.4758 28.4463
58.5386 40.4547 28.3919
59.6419 40.7917 28.3738
59.6287 41.664 29.2368
59.3454 41.1809 29.018
58.567 40.8616 28.9181
56.9267 39.6584 28.0822
58.0613 41.4453 29.9558
58.3799 41.337 29.5519
56.4708 40.2124 28.9756
56.7046 40.7538 29.65
55.3824 40.0902 29.4184
56.7658 40.7264 29.7345
56.1831 40.5948 29.74
57.3559 41.9707 30.9808
56.1579 41.1794 30.5103
56.4173 41.488 30.968
55.3512 40.5837 30.1533
54.8579 40.9632 30.9577
54.8337 40.8054 30.9166
54.9128 41.0605 31.0565
54.9443 41.3941 31.6988
53.8718 40.4221 30.7748
54.3043 41.3017 31.8474
55.1621 42.1083 32.4944
53.8727 41.3751 32.2577
53.2472 40.9429 31.9692
54.1141 41.5519 32.4046
53.9926 41.6424 32.5624
51.5852 40.3741 32.1416
52.8976 41.1853 32.7136
52.8793 41.753 33.2779
52.4221 41.1237 32.6901
51.4068 40.8361 32.8787
51.2556 41.1385 33.4058
53.122 42.7145 34.7255
52.9461 42.3229 34.1596
50.8805 41.3659 33.9197
49.3939 40.0937 33.2243
50.5678 40.9614 33.5914
50.2962 40.7928 33.5291
50.3657 41.067 33.9385
48.8155 40.3505 33.9315
50.4381 41.676 34.7966
50.4122 41.8407 35.0771
49.0802 41.3131 35.3081
49.0088 40.9771 34.801
49.1749 41.45 35.6436
49.5473 41.5426 35.2716
46.9368 39.6636 34.2579
48.4522 41.1258 35.2463
47.6931 41.1434 36.0181
49.0261 41.8883 36.1733
47.4827 41.1194 35.9676
46.834 40.3959 35.3709
46.9457 41.3104 36.5732
48.2042 42.1693 37.1702
46.4098 40.6436 36.1705
45.8922 40.5975 36.4698
46.4376 40.8685 36.5644
45.733 40.8046 36.862
44.512 39.8103 36.1883
45.8923 40.9154 37.0781
45.1228 40.8776 37.7911
46.697 41.5112 37.608
45.4378 40.8506 37.1669
44.5726 41.0168 37.9041
43.868 40.075 37.4038
45.3073 41.4826 38.5893
44.5068 40.7015 37.9075
43.9998 40.1076 36.9642
43.041 40.4355 38.1866
43.3375 40.4845 38.0505
42.7074 40.3032 38.551
43.7329 41.1332 39.1652
42.9963 40.7017 39.1774
43.1549 40.5875 39.026
42.8483 40.3946 38.5512
41.5076 39.9567 38.9988
42.4246 40.4161 38.9228
41.6412 40.4194 39.6773
42.9456 41.0729 40.1411
42.0898 40.7093 39.8919
40.8977 39.9051 39.5438
41.4416 40.1255 39.4881
39.8652 39.0972 39.2965
40.0592 40.178 43.2657
65.4597 63.3183 57.7407
40.8624 41.0772 41.7028
40.0497 39.8032 40.3318
40.4418 40.5809 41.3511
40.3882 41.1784 42.484
40.9456 40.6378 41.1871
40.1326 40.4109 41.3247
39.1294 39.5249 40.664
39.7504 40.1172 41.1069
38.759 39.3192 40.3892
39.0767 40.3661 42.1658
38.8648 40.2405 42.0466
38.5469 39.9916 42.0926
38.2212 39.106 40.6764
37.7986 39.4475 41.5671
37.9694 39.8958 42.6657
39.0055 40.6229 42.7495
37.089 39.3352 42.4163
37.5993 39.303 41.9102
37.294 39.1889 41.9277
37.6438 39.75 42.4503
38.2533 41.0652 44.3909
36.4173 38.9508 42.2586
36.4318 38.8821 42.1118
36.0982 38.943 42.6235
36.6097 39.9108 43.9647
36.2017 39.5624 43.9004
36.9178 39.6754 43.2861
35.8657 39.429 43.6698
35.9034 39.7451 44.4182
36.7422 40.2148 44.6564
36.0919 39.8476 44.4278
35.4936 39.4658 44.5632
35.9634 39.7277 44.686
35.1532 39.2111 44.4384
35.4318 39.5472 44.7467
35.4169 39.8174 45.1203
34.1965 38.4684 44.0069
34.0082 38.4977 44.2219
33.587 37.9829 43.7278
34.6073 39.6865 45.9349
35.1985 40.4119 46.6555
34.1972 39.0047 45.0096
33.2989 38.4746 44.7503
32.7694 38.5412 45.9611
34.0919 39.0611 45.6231
33.3094 38.0673 44.5652
32.593 38.6339 46.1115
33.1946 39.4139 47.3782
33.5115 38.6626 45.5951
31.6373 37.2315 44.5352
32.6792 38.7536 46.8149
32.9477 38.7685 46.4052
32.9202 39.1756 46.8801
32.2932 38.5966 47.0204
33.059 39.3145 47.1958
32.3451 39.2658 48.0371
32.1164 38.7526 47.2105
31.7599 39.1366 48.7769
32.4858 39.1318 48.1741
31.6503 38.4101 47.4727
31.8972 39.0934 48.3559
32.0517 38.8811 47.7885
31.1934 38.6513 48.4922
31.2249 38.2155 47.6247
30.9965 38.3716 48.0815
30.6853 38.1837 48.1105
31.0844 38.4986 48.6355
30.7063 38.0754 48.0312
30.8734 38.546 48.8389
30.7717 38.3821 48.2942
30.2306 38.8498 50.1777
29.4856 37.1049 48.0701
30.3896 38.6254 49.549
29.8449 37.7575 48.3182
28.9852 37.4634 49.3395
29.0027 36.6856 47.7457
29.1521 37.6046 49.3879
30.2724 38.7917 50.4607
29.3597 37.8622 49.562
29.5047 38.0879 49.6634
29.7382 39.2552 52.2942
29.8362 38.4613 50.4388
29.067 38.4898 51.3791
28.9057 37.7881 50.6506
29.8407 39.0582 51.4316
28.2439 37.5307 50.477
28.7625 38.5689 52.2909
28.1979 37.1682 50.343
28.2951 37.6314 50.9448
28.3171 37.9605 51.6581
27.7516 37.0304 51.0425
28.8153 38.279 51.7054
27.5962 37.5916 52.0405
27.5591 37.6012 52.9056
27.278 38.6229 61.2866
47.3992 61.0604 72.6569
28.1913 39.0942 54.4379
27.0403 37.5638 53.0167
27.3428 37.7324 53.3863
28.2117 38.4294 53.3119
27.1857 37.4819 52.3888
26.1771 36.4107 51.8965
26.7378 36.8673 51.4369
26.0962 36.5444 51.7142
26.0537 36.4772 52.2623
26.9412 37.8251 53.6885
25.9837 36.3062 52.0758
26.5841 37.6785 53.5559
26.3988 37.4582 53.4658
25.5903 36.8581 53.7943
25.5318 35.8486 52.1537
26.2018 37.2417 53.7948
25.5952 36.8204 53.5302
25.2262 36.2375 53.1179
25.4762 36.3966 53.1514
25.8121 37.249 54.3551
25.9006 37.5457 54.7858
24.7981 36.0627 53.5763
25.19 36.4222 54.2961
25.3807 37.0217 54.747
24.944 36.0627 53.2893
25.0376 37.4071 56.1506
25.2567 36.8193 55.0066
24.9671 36.9462 55.7985
25.3084 36.9797 54.9106
24.5445 36.5877 55.1691
24.1681 36.1134 54.9618
24.3926 36.129 54.6332
23.9545 36.1509 55.8707
24.7443 36.3286 54.5374
24.259 36.7745 56.1235
23.9635 36.2689 55.7644
24.0078 36.3582 55.8698
23.6928 35.7084 55.1496
24.0505 36.3073 55.4348
23.4753 35.7648 55.1177
23.1102 35.9344 56.8311
23.9651 36.2849 56.0523
23.3034 35.7628 55.6276
22.8604 35.237 55.5814
23.5844 36.5377 56.6507
22.8033 35.5286 56.6105
23.0836 35.426 55.774
22.6504 35.3966 56.3551
23.2014 36.0514 56.5517
22.9562 36.3049 57.9483
22.0192 34.4384 55.0024
21.7531 34.1657 55.1826
22.864 36.4261 58.4601
22.1023 34.6749 56.184
22.3077 35.0537 56.148
22.3205 35.7103 57.7946
21.9897 34.8971 56.9333
22.4812 35.6328 57.4428
22.2243 35.6464 57.3953
22.0121 36.2896 60.4343
22.7226 36.0488 58.271
21.8178 35.3526 57.7621
21.206 34.756 58.5731
21.7443 34.5002 55.9803
21.1485 35.1856 58.8988
21.3929 34.8163 58.388
21.9285 35.9866 59.7949
21.5683 35.2769 58.666
21.6998 35.8172 59.9005
21.8598 36.2518 60.7216
21.3359 35.2178 59.2109
21.0498 34.5157 57.4582
20.28 33.9166 57.726
20.637 34.5398 58.8061
20.6298 34.1669 57.2623
20.3765 34.9291 60.5408
21.047 34.972 59.0606
20.0823 34.2554 59.4064
20.7213 34.8541 59.8164
20.3514 34.4075 59.7778
20.5547 34.5785 59.4482
20.7727 35.2923 60.0729
20.1729 34.9394 60.9216
19.9588 33.9596 59.2687
19.9443 34.3663 60.1976
20.0841 34.7034 60.8478
19.3553 33.142 58.9797
20.0604 34.1896 59.1218
19.5085 33.829 59.3442
19.3425 34.1036 60.9293
19.666 34.0993 60.7435
19.6458 34.3158 61.24
19.9295 35.0362 62.1543
19.4239 34.2508 62.2992
19.3363 36.003 77.0868
32.9916 53.6008 78.5982
19.2852 35.2145 63.6503
19.2286 34.4737 62.7561
19.4065 34.5566 62.4219
19.3328 34.66 62.8856
19.1135 33.9169 61.3877
18.9571 34.0406 61.8798
18.8273 33.8895 62.2504
18.9089 33.3791 59.9866
18.3975 33.6266 62.5544
18.9053 33.3414 60.3656
18.9077 34.4045 62.1786
18.6962 33.9658 61.6852
17.7911 32.6569 60.6892
17.928 33.023 62.0135
18.6954 34.4388 64.0284
18.5098 33.4588 61.9988
18.1203 33.2279 62.0716
17.9614 33.2505 63.244
18.1583 32.7903 61.4203
18.3051 34.1959 64.2356
18.0196 33.0352 62.6855
18.0417 33.157 62.0128
17.6251 32.6013 62.4786
18.2448 34.034 64.4991
17.921 32.7885 61.6249
17.5094 32.6968 61.9573
17.6244 33.6003 64.2576
17.5354 32.3299 61.6349
17.5223 35.2215 72.7794
20.2471 35.2786 63.4502
17.376 33.1435 63.5866
17.4839 33.2777 64.8915
17.7445 32.9227 62.7037
17.5096 33.4943 64.2856
17.1041 33.2296 65.5642
17.3034 32.2445 61.8814
16.8528 32.3205 62.6961
16.6269 31.9712 62.442
16.9241 33.0633 65.3777
16.766 31.49 60.8322
16.5792 32.8726 65.6896
16.7985 32.274 63.2394
16.33 31.7288 63.3004
16.6404 32.5378 64.3171
16.3968 31.6873 62.7409
16.2575 31.8471 63.7692
16.2112 32.0222 65.9744
17.6251 33.8029 65.5374
16.2872 31.7619 63.0993
15.9522 31.9616 65.5705
16.3424 31.5489 63.1404
16.0561 31.4061 62.1998
15.8148 31.6468 63.9102
15.965 32.0268 64.8951
16.0061 32.1517 65.9413
16.2794 31.9108 64.1181
15.751 31.4986 63.6675
15.7046 31.7675 64.8908
15.4228 30.8595 63.0884
15.3855 31.1236 63.8772
15.2937 31.0064 63.8538
15.3255 31.6991 66.5778
15.6461 31.3553 65.1914
16.1434 32.7696 66.682
15.3356 31.1664 64.9647
15.1753 30.7583 64.2731
15.4473 31.7042 65.3808
15.0513 30.7316 64.4469
15.1574 31.4175 66.3696
15.1878 30.7356 64.2019
14.7626 30.1791 64.1342
15.1777 30.8042 63.8888
15.0392 31.3055 65.7538
15.1588 31.66 66.8302
14.8 30.3962 63.704
14.5844 31.2996 67.8522
15.1603 31.3964 66.7286
14.9932 31.3688 66.2991
14.5844 30.7089 66.0176
14.3412 30.1701 65.2413
14.4099 29.8129 64.0396
14.5834 30.6633 65.2846
14.4062 30.5836 66.1003
14.4609 30.3455 65.9431
14.7645 31.1098 65.8834
13.9513 29.3608 64.9406
14.4993 30.4931 64.9061
14.0888 30.3618 66.3841
14.4878 30.9317 66.9438
14.1792 30.173 65.9659
14.1874 29.932 64.1781
13.5756 29.4874 65.4946
13.9378 30.5146 67.5171
13.8699 30.1819 68.042
13.8688 32.317 89.7511
24.4962 48.6248 84.6889
13.5621 29.7209 66.2817
13.8013 30.1647 66.2626
13.5217 29.905 66.2839
13.5094 30.0887 67.449
13.7122 29.9517 66.9889
13.3976 29.0434 64.9074
13.1749 28.8703 64.7341
13.3072 29.4018 65.4253
12.6872 27.8296 64.2143
13.8517 30.6098 66.8179
12.9569 28.6694 65.2172
13.1175 29.5031 68.1735
13.8258 30.2484 67.151
13.246 29.8095 67.5419
13.1026 29.5024 66.9179
12.7548 28.5758 66.5258
13.1722 29.1712 65.9551
12.8991 29.2079 67.2392
12.8069 28.1996 64.6566
13.1567 29.81 68.0041
12.9389 28.8759 65.894
12.7789 29.1721 67.0926
12.6679 28.428 65.5267
12.7372 29.1686 67.1627
12.6972 29.015 67.2442
12.669 29.1279 68.7537
13.0342 29.3456 67.7467
12.8337 29.21 67.1981
12.4387 28.7965 68.3248
12.6878 28.5911 66.3219
12.541 29.3023 69.2914
12.7406 29.1493 68.3684
12.6326 28.5815 66.6091
12.4294 28.7563 67.0114
12.0628 27.5894 65.1687
11.9898 28.1405 66.3927
12.1437 28.3197 67.2067
11.9112 27.2653 64.5771
11.9117 27.6875 65.6829
12.0196 28.0874 67.1322
12.1297 28.3906 68.088
12.1235 27.892 65.226
11.5404 27.8637 69.015
12.3124 28.376 67.6025
12.1752 28.4835 67.4676
11.8473 27.8527 66.6832
11.6578 27.7625 67.3032
11.6275 27.6749 68.2622
11.7956 27.3649 65.9438
11.5561 27.3342 66.019
11.7209 28.0821 67.969
11.6537 27.6753 67.0726
11.6139 27.7811 67.3668
11.5055 27.7324 68.4418
11.7536 27.9218 68.1061
11.5627 27.5434 67.2825
11.324 27.0825 66.7875
11.5918 28.1392 68.1732
11.2319 27.2195 68.0756
11.5284 27.6363 68.6846
11.5511 27.6025 67.4379
11.3995 28.2092 69.5504
11.2175 27.2578 68.6628
11.4488 27.6111 68.977
11.4814 27.4819 67.2091
11.1009 27.4066 68.5478
11.2736 27.5224 68.7311
11.1907 27.2249 68.2797
11.1757 27.3994 68.3456
11.0707 27.001 68.0021
11.1789 27.231 67.822
11.0716 27.5991 69.2855
10.8582 26.3829 67.096
10.9187 27.1212 68.7775
11.1871 27.5772 68.5163
10.7334 26.6923 68.7745
11.0348 27.2633 68.6852
10.9389 27.6063 70.0377
10.9045 27.1911 69.4165
10.7565 26.699 68.3407
10.7083 27.0564 69.6588
10.8865 27.035 68.9082
10.6874 26.7407 68.6524
10.6468 26.8706 69.0542
10.6781 26.8609 69.8511
10.9427 27.0172 68.0489
10.5145 26.9493 69.7613
10.6172 26.7211 68.88
10.4781 26.4193 67.79
10.3469 26.3995 69.4777
10.5954 26.6771 69.0016
10.4874 26.5595 69.3133
10.4296 26.8962 70.6607
10.5589 27.48 72.8638
10.4791 29.6963 102.753
18.5424 42.1623 82.8228
10.2486 27.1088 71.1977
10.4727 27.1831 71.099
10.4214 26.8579 70.4369
10.5904 27.1007 70.1486
10.2821 26.7113 70.0456
10.0813 26.3879 70.8947
10.1778 25.8898 68.766
10.1878 26.4888 69.1927
9.8994 25.9895 69.5582
10.0254 25.8819 69.095
10.023 25.928 68.9431
10.0379 26.0926 68.7747
9.91255 26.3661 70.4318
9.99037 26.2856 70.671
10.0729 26.4737 70.4948
9.93614 26.2092 71.0243
10.0293 25.969 70.1579
9.85229 25.4513 67.9404
9.60007 25.4927 69.3507
9.66124 25.0671 67.8592
9.69872 25.4872 68.0816
9.53897 25.1847 67.8799
9.56515 25.6838 69.9031
9.75976 25.8642 69.5766
9.51261 25.3586 69.806
9.78305 25.8106 69.396
9.46925 25.1414 68.8218
9.48447 25.5023 68.8112
9.21409 24.9181 69.5522
9.48754 24.9453 68.7739
9.40687 25.0392 69.228
9.67018 25.7728 69.4677
9.20831 24.4349 67.3098
9.37236 25.4564 70.4527
9.33427 25.0907 68.6354
9.28256 25.612 72.0297
9.37037 24.8594 69.1391
9.31248 25.2187 71.1512
9.66929 25.9426 70.2471
9.15819 24.7003 69.138
9.36253 25.3882 69.7059
9.11686 24.6068 68.7773
9.09103 24.7872 68.8294
8.99817 24.1761 67.8362
8.99653 24.8037 70.4777
9.28041 24.9289 68.4519
8.93718 24.8676 69.614
8.94575 24.6003 69.1272
8.98219 24.8563 69.1125
8.83186 24.5637 70.1671
8.9808 24.2514 68.289
8.80023 24.2239 68.3983
8.76325 24.7076 70.735
8.91741 24.2583 69.5152
8.91595 24.6708 69.738
8.78324 24.298 69.5744
8.71934 24.2352 69.3351
8.85799 24.8692 71.1325
8.87948 24.1213 68.2358
8.59766 24.0345 69.4646
8.77797 24.1865 68.832
8.5839 24.0572 68.9682
8.78854 24.6233 69.1727
8.48492 23.91 69.7131
8.78032 24.6532 69.2924
8.41161 23.7775 68.8978
8.52162 24.1518 68.8555
8.40045 23.943 70.0195
8.51677 23.6632 69.8116
8.68675 24.5053 70.2502
8.46289 23.987 71.2459
8.78629 24.633 70.1608
8.42236 23.8199 70.1567
8.44464 23.9483 69.6684
8.36505 23.5397 68.7124
8.3761 24.4498 71.2
8.35682 23.5586 69.1264
8.27037 23.7483 69.6469
8.34645 23.9608 69.3546
8.10098 23.2768 69.718
8.29246 23.7271 70.4023
8.40127 23.4946 68.3362
8.1088 23.0899 68.5881
8.11744 23.4008 68.6664
8.08516 23.3162 69.2395
8.24242 23.8312 70.7794
8.15715 23.5725 69.6981
8.23271 23.8214 69.1723
7.99569 23.3691 69.5098
8.02363 23.3941 70.0144
8.05811 23.3667 70.1555
8.09917 23.5945 70.6459
8.09402 23.7159 71.1476
8.00239 23.621 71.5675
7.98902 26.4729 110.597
14.7187 37.2619 79.623
7.71904 23.1974 69.5197
7.8404 23.1213 68.7471
7.78925 22.8242 68.6408
7.78859 22.7976 67.5458
7.73962 23.6041 70.6099
7.8123 22.9145 69.7232
7.81211 23.1412 69.554
7.70262 22.1438 65.8267
7.56247 22.8884 69.884
7.73386 22.6297 67.4559
7.46708 22.6392 70.3721
7.81172 23.1021 69.8997
7.63244 22.7801 71.3314
7.99457 23.1621 67.6808
7.49396 22.6427 68.7738
7.48793 22.199 68.7926
7.56058 22.5361 69.5605
7.56624 22.6217 69.9595
7.5645 22.196 69.4366
7.65218 22.5806 67.8214
7.41117 21.9164 67.4689
7.41348 22.3653 68.7148
7.3851 22.2199 69.1375
7.48769 22.3417 68.8315
7.58001 23.2119 69.8007
7.32948 22.1691 69.1005
7.37969 22.0873 68.9735
7.43948 22.2606 67.5702
7.17402 21.8217 68.1981
7.1937 21.5489 68.2672
7.40337 22.386 68.6547
7.27483 22.182 69.8569
7.31565 21.7195 68.2428
7.29235 22.2215 69.3615
7.2939 22.2917 69.6089
7.29378 22.0484 69.4256
7.35077 22.4556 69.2073
7.13297 21.8314 69.8907
7.26221 21.609 66.6882
6.96684 21.4429 68.377
7.19496 21.7708 68.1298
7.06932 21.8489 68.1071
6.95219 21.1973 67.6767
7.1729 22.3771 68.9427
6.94426 21.6087 69.5487
7.07224 21.1707 67.2148
6.95585 21.3303 67.891
6.96743 21.3032 68.3615
7.03248 21.406 67.8795
7.01809 21.421 66.8278
6.86226 21.5114 68.2927
6.8626 21.1562 68.8055
7.14306 22.162 70.6287
7.05551 21.5365 68.5478
6.96996 21.4027 69.3349
7.14231 21.9469 67.443
6.6844 21.34 69.8908
6.97078 21.6026 68.4553
6.75051 21.2093 69.2224
6.98076 21.3479 68.1928
6.73992 21.0679 68.3344
6.80062 21.2105 68.6584
6.86327 21.7274 69.2492
6.8084 21.0572 68.6328
6.88737 21.571 68.5738
6.80849 21.7595 69.3542
6.79235 21.4111 68.5903
6.62214 20.9216 69.6204
6.82555 21.442 69.8381
6.8032 20.9231 67.3191
6.60305 21.222 67.535
6.42665 20.3022 68.6472
6.82226 21.4231 69.0189
6.69083 21.3651 69.3688
6.62881 21.2932 70.3702
6.64009 20.3613 67.447
6.57821 20.6519 68.5036
6.72749 21.4436 68.7317
6.59065 21.1257 69.7017
6.60324 20.4588 68.4032
6.66953 21.3852 69.669
6.56997 20.4855 66.1337
6.31724 20.4577 68.3355
6.65154 21.5988 69.6084
6.49287 20.5749 68.7092
6.50455 20.9549 68.4388
6.34687 20.3836 68.2672
6.42241 20.2281 67.2217
6.33362 20.317 69.451
6.68186 21.2693 67.2917
6.17638 20.0823 68.1688
6.39381 20.7937 68.6142
6.37804 20.544 67.1469
6.30912 21.3317 70.3906
6.34756 25.0994 122.376
12.4931 33.1393 74.2189
6.17385 20.9951 67.8316
6.14823 20.4499 69.0688
6.28639 20.0759 66.4541
6.17046 20.3465 68.1158
6.17195 20.1386 69.8315
6.52465 20.9105 68.4543
6.23101 19.8887 66.7498
6.14123 19.9109 66.0507
6.02177 20.1111 69.0099
6.22413 20.0401 67.3136
6.17484 20.2095 67.0169
6.07351 20.4021 69.6529
6.33896 20.446 69.2593
6.32486 20.9233 68.2488
6.06026 20.0205 69.5381
6.27393 20.7182 69.101
6.11437 20.3383 69.1982
6.10494 19.6507 66.8334
6.01402 19.8882 68.4299
6.10527 19.8392 67.6115
5.99922 19.7238 68.9113
6.23871 20.0594 65.9117
5.88958 19.6155 67.5858
6.07034 20.4412 68.9762
6.00749 19.7117 68.0765
6.01157 20.1201 68.9153
6.06091 19.8646 66.9475
5.87547 19.6992 67.6396
5.91786 19.6225 67.4599
5.91809 19.801 68.1331
5.97099 19.7239 69.267
6.0718 19.8657 66.9588
5.92831 20.2297 69.8424
6.02788 19.5993 66.8294
5.80676 19.0886 67.5322
6.02458 20.2226 68.7551
5.98064 19.815 67.0856
5.80855 19.8422 69.2529
5.96332 19.9356 68.1471
5.84865 19.3151 66.4568
5.73297 19.2081 67.0103
5.7975 19.6465 68.2315
5.86293 19.7178 68.5809
5.79633 18.9036 64.3157
5.6069 19.2883 67.7399
5.79708 19.7878 69.1358
5.82865 19.0012 66.3479
5.7104 19.2034 66.7627
5.76928 19.6234 67.5152
5.74476 19.6231 68.0341
5.72988 19.291 68.3632
5.84741 19.4918 65.9331
5.52738 19.1703 67.5606
5.70379 19.5527 67.9607
5.68788 19.4594 68.4906
5.68083 18.994 67.6525
5.74318 19.2553 67.6599
5.78162 20.2119 72.2439
6.00169 19.7187 68.5025
5.65569 18.7622 65.1186
5.55203 19.5473 68.2325
5.64863 19.3087 67.5698
5.54083 18.8254 67.5582
5.63181 19.0883 66.6334
5.51476 19.0386 68.1281
5.67858 19.6956 69.865
5.73667 19.4031 68.5929
5.72861 19.1835 66.6144
5.52249 19.1044 68.4686
5.65515 18.9732 67.042
5.52551 19.0307 66.8932
5.49792 19.2563 66.9294
5.4524 18.8972 67.4668
5.51341 19.0578 68.7554
5.57385 18.7626 66.2432
5.36245 18.355 64.8197
5.37313 18.7769 67.7877
5.50207 18.8259 67.039
5.43763 18.8964 67.6341
5.44842 18.9027 67.1552
5.37225 18.3379 67.8933
5.48723 18.6911 66.7484
5.43018 18.6557 66.4218
5.36962 18.6505 66.9715
5.42997 19.2142 69.7803
5.63119 19.4079 69.5995
5.58321 19.1374 69.1068
5.52515 18.9313 67.8448
5.42647 18.7109 68.3781
5.49765 19.2056 67.3613
5.38829 18.9774 67.1158
5.33948 18.8696 67.7179
5.36566 19.2987 72.0313
5.6795 19.934 70.8226
5.56685 24.6205 128.768
10.5937 29.9447 74.0605
5.55745 19.8564 70.7928
5.60628 19.568 68.2013
5.38213 19.0437 69.737
5.53695 19.3355 68.0892
5.32376 18.7284 68.4854
5.37392 18.9717 68.8873
5.434 19.0099 68.4148
5.36246 18.6827 67.5718
5.35461 18.7514 68.6375
5.39091 18.7434 67.3779
5.28338 18.6302 68.618
5.41304 18.8601 66.3942
5.12405 18.4741 69.0035
5.36099 18.4534 66.6967
5.16095 18.1257 66.4068
5.19424 18.4069 66.5109
5.21959 18.8376 67.9126
5.15932 18.1979 68.3288
5.29115 18.5402 67.4522
5.172 17.9534 67.1989
5.23764 18.4382 66.3292
5.1265 18.5251 68.3252
5.2217 18.4614 67.4615
5.18735 18.078 67.2196
5.18735 18.2677 65.058
4.9538 18.019 67.916
5.2033 18.5138 66.9519
5.12489 18.2411 66.885
5.07817 17.898 66.4143
5.09982 18.4274 68.2491
5.16542 17.7881 65.1975
5.01367 18.1126 66.9048
5.07115 17.495 65.7793
5.06185 18.333 67.1603
5.08256 18.0182 66.3314
5.03862 18.0082 66.2823
4.94393 17.9462 68.346
5.17669 18.3018 68.6926
5.18301 18.3097 66.799
5.0369 17.8825 66.376
5.02741 18.0846 65.5352
4.89763 17.1779 63.9475
4.824 17.6363 65.7303
4.96202 17.8024 66.8425
5.03646 17.8793 65.7078
4.9117 17.1808 65.5994
4.97553 17.5684 64.4302
4.84881 17.7087 65.1236
4.84934 17.7568 66.4154
4.98797 18.2658 68.1851
5.00876 17.4012 63.37
4.7359 17.409 66.1759
4.89961 17.515 66.4046
4.95925 17.879 66.9124
4.96442 17.5927 64.6934
4.80194 17.3324 65.3474
4.88659 17.7201 65.8078
4.88985 17.7907 65.9872
4.82332 17.5589 66.9649
4.95104 17.1356 63.1855
4.71612 17.5783 65.5012
4.83344 17.5205 65.4592
4.79875 17.8035 68.2286
5.02271 17.9616 65.7322
4.73541 16.9254 65.1653
4.82362 17.777 67.0928
4.90246 17.5816 64.6189
4.70754 17.2819 65.9446
4.81905 17.5542 66.9573
4.91423 17.7108 65.2408
4.69574 17.496 67.1632
4.83833 17.407 66.1159
4.82184 17.755 66.9995
4.86569 17.7849 66.788
4.81059 17.2924 64.8878
4.73201 17.2146 65.0761
4.69895 17.6513 66.9085
4.77844 17.1259 66.1023
4.7671 17.6514 66.4975
4.77418 17.2532 64.3704
4.69363 17.2482 65.302
4.74186 17.9813 67.3042
4.77868 16.9572 64.8098
4.6806 16.9603 63.1181
4.51262 16.8721 66.6609
4.81344 17.5022 64.9962
4.62634 16.9618 65.8751
4.73279 16.9381 64.6892
4.65999 17.2107 67.0409
4.83902 17.7146 64.7433
4.66617 17.465 65.7636
4.64852 17.4002 67.3572
4.78364 17.5453 64.6807
4.57509 17.3912 66.2786
4.64289 22.483 129.477
9.2912 26.9123 68.4031
4.72165 17.7834 64.7688
4.54649 17.1193 64.716
4.60064 16.9503 65.5403
4.63593 17.1169 65.4977
4.67344 17.319 64.9488
4.56432 16.9063 66.0862
4.67686 17.6143 64.7297
4.55413 16.7754 64.6732
4.61333 17.1506 65.5338
4.60583 16.9371 65.0765
4.59378 16.9599 65.621
4.63021 16.9615 64.5223
4.53693 16.8015 65.1293
4.58676 16.8964 64.2939
4.50411 17.0729 66.8313
4.64071 16.8002 66.2615
4.66096 17.0821 64.8426
4.57599 16.9125 63.6692
4.44436 16.4323 65.3405
4.61547 16.8469 64.8753
4.53895 16.793 64.1968
4.51043 17.2226 66.6564
4.6441 17.1224 65.5167
4.61396 16.9128 65.6517
4.55974 16.9962 64.9659
4.5029 17.0507 65.4564
4.5171 16.7245 64.6899
4.52632 16.6209 65.7895
4.59173 16.6792 62.5672
4.41569 16.7608 64.2021
4.42934 16.9172 64.6488
4.46362 16.5293 64.5701
4.41971 16.6229 65.4069
4.4799 16.8015 64.8915
4.51015 16.3471 64.7503
4.52101 17.0782 65.7795
4.52173 16.8963 65.0862
4.44642 16.6306 66.0717
4.60045 16.5976 64.4958
4.48371 16.7897 64.295
4.44067 16.5906 63.8637
4.3802 16.7073 65.7156
4.53546 16.8455 64.1655
4.39149 16.1499 64.4038
4.42945 16.2825 62.9077
4.34715 16.4077 64.3517
4.43371 16.4869 63.6266
4.36509 16.7445 65.292
4.40497 15.843 62.8378
4.33113 16.5559 63.6059
4.35394 16.1857 62.2892
4.27337 16.6084 63.3841
4.34373 16.685 67.2863
4.58316 16.5606 63.44
4.35831 16.9747 67.2858
4.56378 16.769 63.5868
4.31532 16.4995 65.541
4.42767 16.5939 63.8158
4.36305 15.8737 62.4687
4.23772 16.1802 64.8057
4.42981 16.4465 64.9717
4.41646 16.4267 63.9887
4.36782 16.5556 65.8559
4.49877 16.7606 64.0264
4.36787 16.5136 63.4069
4.31368 16.4924 64.3975
4.32293 16.12 63.2551
4.27454 15.8941 63.7947
4.36197 16.1291 63.5408
4.32441 16.3272 64.6306
4.41161 16.7672 62.6515
4.20687 15.8749 63.2478
4.26599 16.4225 64.6046
4.36959 16.4478 63.484
4.27192 16.4245 64.9718
4.36171 16.5281 66.3377
4.45248 16.425 63.6092
4.26769 16.2855 64.9742
4.33306 16.3845 64.853
4.34019 16.0513 63.8493
4.32735 16.468 65.386
4.38979 16.9131 65.2364
4.35412 16.2402 64.5855
4.34411 16.4893 64.5589
4.32412 15.8765 62.3687
4.22157 16.4881 64.406
4.29183 16.1348 65.0574
4.37055 16.3164 62.3082
4.21459 16.2317 63.1856
4.20331 16.0791 63.3132
4.22137 15.9607 62.7107
4.19124 16.1428 63.7467
4.25737 16.4082 64.4837
4.31614 17.3984 66.618
4.41191 22.4156 129.549
8.4107 23.5958 64.643
4.24158 16.8039 64.0253
4.31666 16.9565 63.7074
4.27573 16.4252 65.5561
4.39803 16.5898 64.1018
4.23224 16.4046 64.2454
4.24875 16.1058 64.6889
4.29816 16.0927 63.0996
4.21485 16.2707 64.8983
4.34091 16.3981 65.4519
4.35726 16.3499 64.3704
4.25751 16.2159 63.7451
4.23568 16.0097 63.9397
4.26713 16.6741 62.4637
4.13925 15.5908 64.3101
4.25687 16.148 64.6336
4.27197 15.961 62.021
4.13429 15.9666 64.2742
4.25804 16.2107 63.2451
4.20056 16.1044 63.1167
4.16563 15.9973 64.9089
4.25107 15.9978 62.3402
4.08539 15.6867 63.8159
4.20669 15.9678 63.7206
4.19975 16.0327 63.2508
4.18237 16.2618 64.3215
4.23508 16.2022 64.1018
4.22449 16.1101 64.2863
4.20738 16.0111 64.541
4.29683 16.2514 63.1821
4.15984 16.1682 64.3642
4.26907 16.1365 64.0192
4.20828 16.3996 65.5118
4.32547 16.3747 63.918
4.16758 16.342 65.2582
4.2761 16.4646 64.734
4.23438 16.0632 63.5168
4.16589 16.102 65.0761
4.28966 16.5373 65.5913
4.28648 16.2374 63.941
4.20621 16.0535 62.5623
4.1102 15.5707 62.6524
4.11064 15.9518 64.4322
4.25656 16.0919 65.3641
4.28895 16.3982 64.8237
4.249 15.939 61.1016
4.03382 15.7708 65.2255
4.24547 16.3096 64.0117
4.19189 15.8799 62.5787
4.07115 15.9107 65.8279
4.31877 16.0827 63.3587
4.17833 15.7494 62.289
4.10641 15.9092 62.8257
4.13417 15.6516 63.4007
4.15006 15.9953 64.0269
4.18855 16.0905 64.7447
4.27835 16.0344 63.1438
4.18211 16.2145 64.0793
4.15655 16.0267 64.9727
4.2975 16.1356 63.5653
4.16626 16.1861 64.5302
4.23592 15.7932 64.6179
4.23568 16.0145 63.2225
4.13982 16.1122 64.6889
4.26815 16.2228 65.0155
4.25909 16.5621 64.8449
4.19084 16.0318 65.4601
4.31206 16.2301 64.2986
4.24103 16.2278 64.7977
4.25573 16.0322 62.8129
4.10929 16.0699 64.841
4.2361 16.8225 66.8189
4.37381 16.0108 62.4547
4.101 15.9549 64.267
4.21145 16.3368 65.3554
4.27063 16.3775 64.019
4.17012 16.1093 63.4269
4.14119 15.9736 64.6327
4.26946 16.0686 63.6123
4.16173 16.2329 64.9688
4.22688 16.5347 65.0476
4.24111 15.8917 64.5662
4.25069 16.1006 64.587
4.24719 16.2985 64.9214
4.22855 16.1864 64.4229
4.17889 16.037 64.1543
4.16078 15.8664 64.7134
4.27903 15.959 63.8225
4.16817 16.5644 65.6407
4.27569 16.2231 64.7828
4.2584 16.2757 65.1323
4.28837 16.5632 65.4908
4.29217 16.9331 66.3122
4.34828 16.7334 68.4385
4.47102 18.1226 66.7504
4.35557 23.8934 139.666
8.84838 0 0