# pn-170911/RbIIR-58-RbIIR-1280-1959.psd
# Power spectrum* (dif=0,1,2) (really just |FT|^2)
# NOTE: only the first half! (symmetric)
# weeks: 1280-1959
# 3114 clock-days, 752 excluded
# PSD: 1441
681.174 0.125344 0.0507151
41709.3 0.579094 0.050414
285605 6.08894 0.0537337
28722.9 1.08235 0.0515547
98234.7 7.5876 0.0560502
10211.2 0.999766 0.0496732
9027.05 1.35527 0.051987
5413.02 1.07273 0.0545207
5019.43 1.34813 0.0553439
3329.31 1.09585 0.0531137
2786.65 1.14946 0.0531195
2300.16 1.14899 0.0508831
2067.82 1.22074 0.0523692
1765.33 1.22319 0.0544158
1546.6 1.26426 0.0566708
1334.03 1.24254 0.0537215
1255.65 1.33042 0.0547458
1146.25 1.37164 0.0518214
1047.88 1.43177 0.0559305
929.009 1.41934 0.0545133
899.211 1.53937 0.0592208
851.858 1.61052 0.054698
789.929 1.63084 0.0551998
748.008 1.68577 0.0566678
704.864 1.73743 0.0584055
675.184 1.81809 0.0577409
649.301 1.91302 0.0571337
601.633 1.91124 0.0600841
606.891 2.04957 0.0583121
574.967 2.10544 0.0621449
553.416 2.1822 0.0611789
536.025 2.23331 0.0644717
519.285 2.30555 0.0629334
525.432 2.48764 0.0662296
502.258 2.57339 0.067037
484.906 2.63967 0.0646234
471.017 2.69783 0.0667957
464.364 2.79753 0.0712199
445.784 2.8518 0.0741623
465.196 3.11419 0.0761837
429.613 3.09003 0.0762706
430.665 3.2316 0.0808641
418.064 3.29981 0.0805967
403.256 3.36004 0.0847581
417.346 3.65872 0.0843962
393.232 3.62795 0.0930375
388.497 3.69632 0.0892309
386.434 3.86352 0.0969531
398.482 4.1703 0.0953373
378.831 4.11086 0.104685
373.372 4.21437 0.105193
376.005 4.42267 0.111402
375.527 4.62183 0.111746
351.766 4.52891 0.11493
371.411 4.94763 0.121212
353.998 4.92898 0.124928
357.601 5.09113 0.131263
344.422 5.05542 0.128523
346.936 5.3403 0.136499
343.651 5.48497 0.143281
338.075 5.52449 0.147707
334.476 5.7672 0.154893
343.294 6.02811 0.171932
332.98 6.07973 0.167224
330.628 6.26978 0.177568
331.94 6.43738 0.179745
320.081 6.39468 0.187641
321.776 6.66567 0.193166
316.263 6.7955 0.199456
319.529 6.97541 0.213994
311.689 7.0914 0.217974
307.419 7.12504 0.226115
308.487 7.44061 0.243366
298.893 7.39329 0.247876
303.81 7.71044 0.254328
294.231 7.66428 0.259615
308.282 8.17568 0.277851
295.585 8.07057 0.285888
306.807 8.62827 0.301172
288.512 8.31359 0.301233
283.885 8.4765 0.313132
287.343 8.76069 0.320615
294.226 9.14708 0.344829
282.185 8.94005 0.353224
285.875 9.34757 0.362933
287.482 9.65507 0.384689
282.484 9.75873 0.397049
271.988 9.63525 0.402051
278.367 9.97395 0.421222
279.835 10.268 0.447013
283.629 10.6652 0.469848
277.014 10.6764 0.47369
273.409 10.8199 0.495921
265.708 10.6726 0.48607
267.888 10.9189 0.512923
268.816 11.4207 0.541797
295.646 12.7525 0.612003
269.122 11.6652 0.576631
262.912 11.7953 0.585766
255.7 11.6788 0.600151
263.229 12.0985 0.625536
263.346 12.4704 0.657724
257.394 12.4906 0.671509
254.226 12.5713 0.693162
255.636 12.9188 0.709868
257.842 13.2252 0.736159
257.627 13.543 0.772692
250.427 13.3051 0.777453
247.842 13.331 0.779738
251.422 14.0494 0.840637
254.485 14.2632 0.875484
240.051 13.8442 0.863048
247.248 14.453 0.913655
243.507 14.4717 0.919652
244.575 14.7194 0.958852
244.752 15.1398 1.003
238.856 15.1328 1.01929
240.654 15.3629 1.03852
239.229 15.553 1.07806
242.205 16.0308 1.11783
235.9 15.8088 1.14038
237.869 16.3147 1.19076
232.757 16.1688 1.18515
235.408 16.6544 1.24847
235.143 16.8134 1.27898
243.787 17.8004 1.37488
232.088 17.2445 1.35258
224.018 16.8069 1.31715
224.55 17.1775 1.37662
227.046 17.6615 1.44569
220.905 17.3927 1.44346
225.617 18.1942 1.53362
225.585 18.4139 1.5778
215.569 17.6808 1.525
224.797 18.8008 1.66011
219.873 18.6465 1.64959
222.846 19.3516 1.74181
208.505 18.2359 1.66349
217.636 19.2416 1.78382
212.244 19.0587 1.78578
212.085 19.4082 1.8532
211.342 19.5692 1.90266
204.208 19.235 1.88733
215.74 20.6071 2.04349
211.671 20.4531 2.04708
209.174 20.5138 2.08873
199.524 19.7949 2.04924
210.294 20.9866 2.18304
203.731 20.8544 2.20951
202.966 20.9745 2.2676
204.147 21.4264 2.31387
208.335 22.1471 2.44247
201.993 21.7375 2.41499
196.513 21.4255 2.4317
196.858 21.6966 2.482
205.717 23.0612 2.66803
196.909 22.1821 2.58466
194.936 22.6369 2.67884
196.677 22.8885 2.7391
201.923 23.8068 2.88276
187.389 22.4021 2.74271
188.991 22.8838 2.85206
191.055 23.3565 2.91847
193.474 23.9923 3.04625
189.421 23.8424 3.07459
195.386 24.7588 3.21529
182.366 23.4857 3.12988
196.533 25.4634 3.4055
192.207 25.3182 3.41671
184.619 24.4057 3.31128
183.215 24.5461 3.37099
185.734 25.2645 3.49502
186.666 25.7591 3.62068
183.251 25.7407 3.70932
180.34 25.209 3.62473
184.529 26.2985 3.84244
189.231 27.2443 4.01558
186.668 27.0605 4.02485
184.028 27.1999 4.12732
179.718 26.7759 4.09637
179.165 26.9712 4.15731
172.581 26.2834 4.08975
175.003 26.9913 4.26296
181.675 28.1776 4.49169
175.652 27.6677 4.45935
172.922 27.6552 4.51914
178.109 28.4905 4.65268
172.116 27.956 4.63547
176.932 29.1573 4.88002
172.047 28.6668 4.85044
171.488 28.5957 4.89275
174.042 29.7786 5.16872
182.073 30.9091 5.36961
172.802 29.8675 5.23239
164.316 28.8348 5.16781
171.663 30.3251 5.46865
168.519 30.1299 5.47606
170.733 30.6859 5.60826
161.613 29.5825 5.50751
163.76 30.0413 5.62611
166.818 30.7829 5.7975
163.91 30.7981 5.88293
163.092 30.977 5.99739
164.117 31.2494 6.0301
161.511 31.1246 6.12873
162.341 31.936 6.37945
159.716 31.218 6.24563
158.776 31.4865 6.35826
158.083 31.8126 6.48107
157.805 32.1587 6.65455
155.045 31.6959 6.5728
153.829 31.7494 6.62924
156.35 32.4632 6.84809
153.232 32.4165 6.91593
151.263 32.0674 6.9424
158.549 34.0112 7.40366
154.468 33.119 7.23116
153.629 33.7005 7.44343
151.585 33.251 7.42118
154.699 34.3196 7.71824
153.665 34.4927 7.86423
152.804 34.5292 7.90211
153.542 34.922 8.06823
148.369 34.1612 7.96567
149.804 34.762 8.1861
146.5 34.463 8.2597
143.319 33.6419 8.04835
148.324 35.2441 8.48119
148.686 35.9139 8.78358
151.087 36.5257 8.95048
145.741 35.5233 8.7485
148.242 36.5729 9.11184
142.84 35.7237 9.0202
146.463 36.723 9.36495
139.913 35.3483 9.02601
140.131 35.7995 9.28797
141.135 36.2609 9.42032
141.026 36.4955 9.55883
139.786 36.599 9.65485
139.436 36.9248 9.9435
141.403 37.512 10.0734
138.485 37.2095 10.0985
137.608 37.0746 10.1027
132.781 36.4491 10.0884
138.347 38.0669 10.5571
141.434 38.9735 10.8904
132.425 37.1022 10.4542
137.102 38.5042 10.9722
139.323 39.441 11.2309
135.858 39.0098 11.3258
137.296 39.3801 11.472
133.015 38.7392 11.4482
131.594 38.499 11.4285
130.017 38.1039 11.3393
129.981 38.6044 11.6248
135.03 40.2511 12.1511
134.543 40.5047 12.2858
126.04 38.4513 11.8595
129.087 39.4238 12.245
130.311 40.3581 12.5932
128.768 40.0481 12.6012
129.666 40.536 12.8056
131.384 41.5582 13.248
123.849 39.367 12.666
127.739 41.0205 13.2985
124.784 40.2786 13.115
122.533 39.7126 13.0532
121.687 39.6487 13.0683
120.644 39.8431 13.3345
124.37 40.7224 13.5533
119.94 40.2813 13.7055
121.32 40.6237 13.7401
120.376 41.2232 14.2267
123.897 42.5369 14.7162
124.261 42.675 14.7999
118.029 41.1085 14.4609
118.68 41.402 14.6136
119.433 41.5934 14.7146
121.478 43.0528 15.3438
117.273 42.1424 15.2908
121.169 43.3361 15.5907
114.596 41.4245 15.1748
117.817 43.1679 15.9739
116.629 42.6891 15.8193
116.307 42.8358 15.9616
114.6 42.5644 15.9536
112.964 42.4385 16.1224
115.117 43.6294 16.7642
130.067 48.9611 18.4275
111.23 42.8032 16.6739
114.249 43.7492 16.9508
114.522 44.3258 17.3075
112.866 43.7722 17.1633
113.462 44.2713 17.492
112.492 44.5662 17.8245
108.668 43.0595 17.2409
111.203 44.1847 17.7826
109.586 44.1516 17.8581
107.453 43.5293 17.8389
109.631 44.3973 18.1114
109.408 45.1572 18.7585
107.252 44.1476 18.3303
107.063 44.3843 18.5737
106.972 44.8569 19.0148
110.66 46.5653 19.8137
108.642 46.2853 19.8487
102.535 43.561 18.7064
100.282 43.2425 18.8699
105.639 45.8046 20.0016
101.268 43.5723 18.9907
100.332 43.7935 19.3211
101.913 44.6495 19.8122
105.345 47.1664 21.2374
99.3323 44.0828 19.817
101.631 45.5319 20.7304
100.243 44.7161 20.3195
100.158 44.9196 20.3708
101.73 46.3077 21.1795
99.3471 45.5774 21.1394
101.857 47.1192 21.9201
96.9788 45.283 21.3767
95.8532 44.7901 21.1783
97.3754 45.8626 21.7682
98.7336 46.6929 22.2626
97.1014 45.713 21.7929
94.6269 45.1636 21.6973
94.3042 45.6537 22.2504
96.5901 47.1616 23.2164
98.2666 47.7301 23.3488
91.8711 44.8941 22.2667
95.9394 47.0617 23.2674
97.0037 48.047 23.8725
95.7757 47.7937 24.032
91.8661 46.3255 23.6046
93.1714 46.7699 23.7383
91.4658 46.4006 23.9252
95.2733 48.3667 24.6992
92.2273 47.2224 24.4875
89.8469 46.6381 24.434
90.2239 46.4966 24.3339
92.4892 48.1532 25.2388
89.1557 47.0471 24.9862
89.6323 47.5671 25.4834
89.4935 47.2122 25.0747
88.2933 47.3356 25.5823
89.3198 48.1368 26.093
88.2402 47.6933 26.0459
88.3959 47.9985 26.2372
87.6469 47.9917 26.4321
87.0965 47.9218 26.7234
86.3731 47.3914 26.3569
88.8331 49.7228 28.0347
90.4697 50.4767 28.4996
90.2225 49.9697 28.0555
85.5604 48.1479 27.3672
85.2394 48.0792 27.3371
85.6172 48.4627 27.6273
86.0428 49.2436 28.3024
83.9246 48.5869 28.2867
83.0488 48.1754 28.4173
83.4482 48.1603 28.0691
81.1025 47.4507 28.1069
84.4707 49.3601 28.9318
82.9082 48.9012 29.1316
85.6497 50.6652 30.0877
82.5736 49.3576 29.6981
82.008 49.1655 29.6437
81.9565 49.6801 30.2547
80.1463 48.5428 29.7235
79.4086 48.4914 29.8636
80.9175 49.4593 30.4592
80.4393 49.5918 30.7593
79.6275 49.7915 31.5169
81.6547 50.2563 31.2632
80.683 50.3957 31.7834
82.256 51.7474 32.6611
79.3993 50.3075 32.1622
78.3241 49.2518 31.3589
78.3262 50.3601 32.5617
77.895 49.9019 32.3165
76.18 48.9111 31.7283
77.6101 49.9592 32.4608
74.2282 48.247 31.8565
74.9292 49.4827 33.4306
84.7719 54.57 35.1463
74.2923 49.5754 33.233
75.7406 49.9349 33.3605
75.462 50.2078 33.4314
74.586 50.2808 34.0818
72.6242 48.8714 33.2897
73.7391 49.9915 34.2323
75.1158 50.8874 34.7825
71.8946 48.9221 33.7382
74.515 50.8321 34.8918
70.8225 48.6461 33.8464
74.3844 51.7942 36.3129
73.6576 51.5046 36.2813
73.7044 51.3121 35.9911
70.9269 49.49 35.038
70.9093 50.0746 35.6495
70.5612 49.8445 35.5881
69.0873 49.1208 35.3335
69.5368 49.5675 35.6323
69.1171 49.5081 35.7359
67.8413 49.4768 36.1835
68.1678 49.6925 36.6839
69.1166 49.8645 36.5421
69.8127 51.0125 37.5536
68.6765 51.0742 38.3755
70.4605 52.1084 38.6773
66.7968 49.2052 36.6268
67.5091 50.433 38.0757
66.5979 50.1502 38.3309
69.5244 52.0504 39.3589
68.1501 51.3435 38.8906
66.1295 50.3446 38.7112
68.0057 51.3849 39.1758
65.5658 50.0928 38.4751
64.5535 50.1176 39.2523
66.1509 51.1737 39.8862
67.4643 51.9133 40.2646
65.3082 51.5553 40.9736
65.4661 50.8832 39.9809
66.7597 52.4325 41.2837
65.8748 52.1537 41.8244
63.7868 50.5816 40.5132
64.3821 50.8804 40.4846
63.3009 50.6971 40.9486
63.4254 51.1018 41.2803
63.5658 51.1834 41.4372
62.2237 50.4468 41.3779
62.1971 50.4705 41.269
62.7412 51.2333 42.2722
62.0907 50.5387 41.6653
61.6294 50.6941 42.0416
63.1834 52.6196 43.7298
61.3563 50.9946 42.5735
60.0452 51.2108 43.7114
61.4472 51.0059 42.9677
62.4924 53.2643 45.429
60.3591 50.9496 43.5341
61.2485 51.5048 43.7412
58.9814 50.4451 43.4324
59.9336 51.8469 45.2263
61.1866 52.8678 46.0769
60.5336 52.3517 45.6058
59.5993 51.7282 45.2174
59.0471 51.8121 45.8596
58.1377 50.6148 44.6969
58.333 51.1467 45.5302
58.7931 51.7055 45.8846
58.2291 51.2755 45.6591
56.9572 50.4993 45.3216
57.9537 51.6347 46.1151
55.2236 49.1031 44.6592
58.1433 52.6116 47.5275
56.4956 50.5319 45.7197
57.0696 52.1504 47.5151
56.2421 51.9371 48.3115
54.6183 49.4115 45.7614
58.0104 52.2938 47.324
55.7278 52.3399 49.0491
56.8971 52.827 49.2756
56.1648 52.4435 49.2391
56.0475 52.769 49.9282
55.9676 52.401 49.5944
53.8631 50.62 48.4009
55.4234 52.2677 49.8548
56.3245 53.8368 52.0078
56.4305 52.6405 49.5413
54.151 51.855 49.9948
54.341 52.2283 50.3807
52.77 51.0275 49.9936
52.5048 50.6103 49.4756
53.9568 52.3595 51.3629
51.9741 49.6081 48.0199
52.9541 52.0237 51.1347
51.7589 51.0945 50.708
51.6869 50.6812 50.2613
50.0847 49.8872 50.8608
56.8674 55.8876 54.8412
52.0707 51.7632 51.6395
51.9577 52.1918 52.2582
51.5233 52.3849 53.2769
50.9434 52.0037 53.6734
51.4665 51.518 52.52
51.1007 52.0058 53.8675
51.8991 51.7407 52.2698
51.117 52.6824 54.6976
50.9709 51.3815 52.3117
49.6261 51.3653 53.2282
48.8905 51.236 54.0308
49.7722 51.2522 53.642
49.2733 50.6624 52.6183
49.8612 52.7718 55.9511
49.3176 51.78 55.0294
49.2826 51.5499 54.5036
49.2594 51.9892 55.2053
48.0103 50.6966 54.1073
48.264 51.0161 54.2985
48.0633 51.774 55.9758
48.5318 52.0391 56.2247
47.6063 51.4922 56.1764
46.4789 50.0768 54.3504
45.7322 49.1047 53.4141
45.3066 49.5932 55.1805
48.1993 51.9334 56.5128
46.6179 51.6419 57.4798
46.6756 50.481 55.5454
46.7156 51.4899 56.8619
44.617 49.5343 55.5271
47.1804 52.7277 58.7606
45.5197 51.0364 58.2114
46.6752 51.5704 57.9275
44.7885 49.5833 55.807
44.285 50.0802 57.2412
45.2742 50.5695 56.7245
44.8145 51.0633 58.5624
44.6954 50.7501 57.9924
44.2308 50.5139 58.1408
44.8364 51.8707 60.0911
45.3105 51.9 59.3906
42.8731 49.8137 58.3628
44.7664 52.6222 61.5805
44.243 51.3441 60.5614
43.8018 50.4724 58.6413
43.4042 51.0189 60.1847
43.2257 51.1224 60.7216
42.7675 50.2677 59.5912
42.3401 50.1533 59.5604
41.5182 49.6286 59.8947
41.3897 49.0856 59.2493
42.6082 51.3903 62.7812
44.0404 52.5874 63.4803
41.6389 48.8962 58.6474
42.0785 51.0475 61.5045
41.1879 50.1403 62.0435
42.5742 50.9212 61.7683
42.3078 51.9574 64.0146
41.4216 50.6021 62.9144
42.5625 51.1935 62.0738
41.2498 50.9613 63.0781
40.474 49.7986 61.9122
40.1162 49.6737 61.7637
41.2353 51.4051 64.5225
40.0733 49.8513 62.6181
40.0703 50.5207 64.0005
40.2098 50.2074 63.5031
39.1803 49.0784 63.0061
40.1981 49.9894 62.6421
38.8213 48.152 60.2907
38.0953 49.1791 63.2601
38.9124 49.5775 63.2328
39.0783 51.1371 66.6235
38.7194 49.3467 64.4962
39.6662 50.0139 64.3259
38.4445 49.7771 65.1304
38.3374 49.2706 64.3287
39.0835 51.0296 66.4982
38.1057 49.2998 64.7532
38.8326 50.6649 66.2592
38.6827 50.9514 67.3962
38.3254 50.8479 68.1347
38.4559 50.1298 66.2068
37.4298 49.1521 65.0335
36.6559 48.9369 66.2451
37.2064 49.2607 66.2871
37.5422 49.4949 65.7818
36.0997 48.2202 65.4046
37.4104 50.1318 67.122
36.4811 49.6673 67.8198
35.5608 47.9936 66.0728
36.4631 49.177 66.9856
35.7016 47.9127 65.0892
35.7968 49.813 69.8834
36.0178 48.7544 68.8101
40.2597 53.4446 70.4692
36.8865 51.0216 69.6744
35.3484 49.3766 69.3362
36.1581 49.8418 68.8263
34.3785 47.8412 67.5781
35.1804 49.3461 69.3651
34.7093 47.8391 66.9646
34.0575 48.1217 68.5986
34.4698 48.2598 68.2558
34.1774 48.0282 68.3301
35.129 50.5022 72.2891
34.2871 47.8386 68.4556
34.6764 49.4971 70.8642
34.3416 48.5632 69.0616
34.1639 49.4952 72.0211
34.6983 49.727 72.1229
33.5874 48.4621 71.1293
33.8697 48.2088 70.0846
33.4135 47.444 68.8629
34.2771 49.7141 71.817
33.6453 49.2112 71.7604
32.4492 47.5006 70.9596
34.3352 49.8421 72.0187
31.2431 46.4019 70.5747
32.8691 47.7938 71.0516
33.125 48.4149 72.6392
34.2672 49.8095 72.3041
32.258 48.2705 73.0335
33.0942 48.4508 72.1076
32.768 48.466 71.7036
31.4765 47.7052 73.2962
33.0315 49.1142 73.9071
32.6832 48.4837 71.7876
30.8733 47.6942 73.8288
31.38 46.6831 70.8947
31.1996 47.5161 72.7705
31.1988 47.4182 73.0746
31.6467 48.2391 74.5197
31.4649 47.155 71.651
30.4857 46.4002 71.3015
30.751 47.2388 73.0073
30.5489 47.0965 73.0392
29.8214 46.0696 71.4366
29.3664 46.293 74.1446
30.7601 47.1606 73.7444
30.397 46.7239 72.5763
30.4613 48.4409 77.2107
30.5377 47.0142 73.8937
30.8052 48.5099 75.7981
29.7344 47.3576 76.6774
31.0755 48.6124 76.806
30.219 47.3584 74.1157
28.4819 45.546 73.4193
28.9513 46.1944 74.6597
28.983 45.8552 73.7549
29.2394 47.4993 77.2754
29.0533 45.7664 73.7186
28.3429 45.167 73.0299
27.9478 45.1328 74.032
29.0867 46.6169 74.9429
28.7042 47.2266 78.5085
29.9798 48.0703 77.5
28.5964 46.2975 75.6033
27.7229 45.271 74.7643
27.9295 45.6838 75.4187
27.8993 46.2812 77.0444
28.8128 47.98 80.0494
28.045 46.0492 77.363
28.8098 47.2535 78.047
28.1178 46.9316 79.6083
28.5728 46.9734 77.8132
27.4854 45.7956 77.6646
27.6568 45.8174 76.309
27.2491 46.2176 77.8167
26.6514 45.0311 76.9092
27.2623 46.2327 79.4665
27.8787 46.7195 79.0992
27.8202 47.1321 79.4322
26.9944 46.4236 79.8703
26.1276 43.8272 75.5713
26.5799 45.7003 79.5879
27.1835 46.7625 81.2711
27.1391 45.5864 78.3332
26.3849 44.9471 76.8137
25.8247 44.7191 78.0278
25.9894 44.993 79.2361
26.9543 46.5974 80.4459
26.3665 45.9311 80.4213
26.2491 45.8583 80.0498
25.7145 44.9515 79.1762
25.3128 44.4304 79.4788
25.8422 45.2418 80.526
25.5301 44.2991 79.0722
26.3151 46.6221 82.823
25.2555 43.7415 78.5405
25.6388 45.239 81.9668
27.6066 48.3737 82.8927
24.9646 45.0151 80.6995
24.4636 43.8297 79.5744
24.8016 44.3281 80.428
24.7835 44.136 80.4848
25.6972 45.765 81.0005
23.912 43.7855 81.08
24.2839 43.2353 78.3983
23.5123 42.4314 78.7982
24.3129 43.959 80.9361
24.4986 43.2927 77.928
24.1116 44.8814 82.5984
24.2506 43.7002 79.6589
23.9248 44.0227 81.6121
24.1865 44.8307 83.5334
24.2036 43.725 79.9734
23.3018 43.7491 81.7821
22.4592 41.3835 78.9669
23.2146 42.4753 80.2508
23.7283 43.3633 80.146
23.6297 44.4268 82.5994
22.796 42.6497 81.5847
23.6003 43.8062 82.6319
23.758 44.5 83.3244
23.1841 43.7057 83.1176
22.7931 42.8102 81.972
22.9839 43.165 82.4905
22.4913 42.1315 82.129
23.1726 42.5202 79.5273
22.2562 42.0535 79.8118
22.5442 43.6678 83.4401
22.741 43.4908 83.2971
22.5847 43.4765 84.3509
22.7629 43.8032 83.9299
22.0451 42.9124 84.7792
22.8731 43.9477 85.7881
22.2367 41.3477 78.9752
22.2234 43.6505 84.866
22.2561 43.3028 84.9881
22.4869 43.9871 86.6233
21.7794 41.8705 82.5896
22.023 42.1918 81.6435
20.979 41.3732 83.0142
21.6267 41.9928 83.0505
21.3391 41.9623 84.2502
21.6121 41.5289 81.7664
21.5375 42.5751 84.4435
21.3118 42.1777 85.417
22.374 43.2664 84.0111
21.3202 42.7461 84.6881
20.8508 42.1947 86.4587
21.1686 41.4141 83.2995
21.2029 42.0354 82.9575
20.1206 40.9198 84.4021
20.9574 41.3863 83.6557
20.9481 42.1385 85.8098
21.3252 43.3063 88.1026
21.0341 41.7585 84.0999
20.5195 41.7964 85.5101
20.26 40.31 81.7497
20.1056 41.6789 85.8743
20.2825 40.5909 82.7011
19.9364 41.262 86.285
20.3294 41.0643 84.8293
20.7378 42.9257 87.7781
20.0667 40.9775 85.1813
19.8251 40.8473 85.2437
19.7594 40.5114 84.1858
19.3322 39.7224 83.5339
19.8358 41.1307 86.0391
19.9902 41.0818 84.8324
19.3352 40.9187 87.1918
19.56 40.4239 84.9984
18.8664 39.2712 83.9148
19.7254 41.4008 87.8006
19.9862 41.2817 85.3688
19.1998 40.6441 86.3678
19.1407 40.4542 86.2904
19.2169 39.8366 84.1889
18.9678 40.7384 87.2564
19.3668 40.7238 86.6206
19.0264 39.9209 85.0411
19.3195 41.1372 87.4409
19.1731 41.8096 90.0161
18.8809 40.3415 87.8727
19.1368 40.5799 86.8001
18.4993 39.8721 86.1945
18.2792 39.5716 87.5291
18.6214 39.4962 86.3394
18.6986 40.1463 87.5637
19.2021 41.5659 89.4048
18.1009 38.5274 83.3158
17.513 38.2654 84.5867
18.1537 40.0023 88.585
18.2683 39.328 86.6104
18.2111 40.3372 92.9715
20.5256 43.751 91.1373
17.8651 39.1399 85.7019
17.682 39.4949 88.563
18.0463 39.8087 89.4478
18.3017 39.8721 88.9036
18.3342 39.8003 87.015
17.2842 38.3026 86.071
17.5761 38.9622 87.3196
17.8277 39.1418 87.1634
17.9017 40.4628 91.6781
17.9938 39.8369 89.2047
17.8035 39.9287 90.1127
17.593 39.6917 91.0786
17.8469 38.9211 86.996
17.2292 39.2166 89.4018
17.4097 38.8435 87.2881
17.0131 38.823 89.6241
17.1133 38.1696 86.9942
16.9527 38.4793 89.5382
17.5756 39.4173 89.4765
16.9222 38.8027 91.0082
17.3187 38.2293 87.0664
16.9894 38.9914 88.5916
16.4126 37.5008 88.8389
17.2446 39.386 89.9014
16.7202 37.6502 86.4681
16.4851 38.446 91.0378
17.0746 38.9774 90.0088
16.6496 38.4581 90.2571
16.8361 39.2086 91.7842
16.63 37.7482 87.2869
16.1156 37.1662 87.7341
16.3605 37.7867 88.7219
16.3417 37.7606 88.7933
16.3034 37.7935 87.9419
16.0464 37.6261 89.3459
16.3773 38.2391 89.0101
15.7595 36.9916 88.2068
16.0813 38.0021 89.9631
15.9397 37.4707 90.2752
16.3071 37.9363 89.2288
16.0704 38.3549 91.1365
15.9446 37.9097 90.6145
15.7934 37.6615 91.8433
16.4189 38.2417 90.3687
15.6181 36.6785 87.6034
15.3993 36.7284 87.8196
15.1531 36.5828 88.4668
15.3542 37.1049 91.8636
15.9371 37.4916 90.5796
15.6357 37.1665 89.1822
15.7371 38.4794 93.6129
15.5663 37.5343 93.013
15.8357 37.6788 91.5232
15.3455 36.4738 89.4193
15.4634 36.9953 90.0759
15.2732 36.8363 90.395
15.4077 36.8759 89.5428
15.0885 36.2533 89.0863
15.5447 38.2334 92.6282
15.4714 38.3492 93.8038
15.1413 37.2736 93.3556
15.1964 36.3992 90.3049
15.1034 37.0282 91.7262
15.4195 37.7442 92.7449
15.5354 38.4753 93.5019
14.8824 37.8777 96.2699
15.2234 37.1844 94.0613
15.14 36.2335 89.3824
14.5029 36.4175 91.8358
14.6254 36.3698 91.9948
14.7502 36.5107 91.649
14.6884 36.6178 94.0804
15.4573 37.4037 91.1059
14.3847 36.0492 90.2106
14.4411 37.1795 96.1485
14.9678 36.4884 91.9675
14.6493 36.667 92.8641
14.7615 37.5639 94.1866
14.6233 37.5275 96.0057
14.2859 36.0234 94.1401
14.2637 35.2067 92.7686
14.5341 35.4299 89.2964
14.1345 35.6165 91.1736
14.1243 35.4464 90.1757
14.0605 36.44 94.6845
14.1215 35.0331 90.4507
14.3132 36.7686 92.3868
13.7075 35.8311 93.2493
13.8585 35.2172 91.6435
13.7033 34.833 90.2306
13.4703 34.4023 91.2423
14.3171 37.2786 96.2759
13.925 35.1061 92.0387
13.8839 35.5824 91.4911
13.648 36.6276 102.794
15.8386 38.8612 95.2775
13.6591 35.4706 92.3187
13.4131 35.0182 92.4183
13.3737 34.965 94.2653
13.9991 35.2235 91.4388
13.7136 35.2078 89.6349
13.2511 35.8679 95.655
13.5448 34.809 90.4842
13.0877 35.0701 94.7077
13.3986 34.3473 90.4656
12.9399 34.0378 92.0904
13.5099 35.1281 91.998
13.1982 34.884 93.5708
13.384 35.0678 92.5242
13.0348 33.666 87.7044
12.3745 33.5005 90.6238
12.7942 33.8766 91.72
12.8999 33.7278 89.8956
12.7171 33.9279 91.7978
12.8344 34.0263 91.8027
12.7717 34.2041 93.9979
12.8916 33.4673 90.6134
12.852 33.565 89.3796
12.5692 33.7785 90.9161
12.6559 34.2823 91.7633
12.6031 34.4229 92.2678
12.0922 32.0558 88.4038
12.4143 33.8112 92.9625
12.4761 33.4202 90.0604
11.9962 32.3566 89.7078
12.1747 32.5844 89.6772
12.1659 32.8317 89.2346
12.2096 33.385 92.673
12.4131 33.4324 90.208
12.1832 33.3093 90.4661
11.9344 33.2327 92.7571
12.1421 32.9029 92.4703
12.2797 33.2083 90.8075
11.9563 32.796 91.7283
12.1628 33.0578 91.5714
11.8647 32.335 91.5748
12.2166 33.1983 90.2006
11.7446 32.6452 92.8832
12.1207 33.0586 90.7276
11.6339 32.4712 92.9727
11.9952 32.2309 88.4775
11.5494 32.2207 90.9841
11.8254 32.4364 90.5843
11.7433 33.2068 94.3826
12.0504 32.7546 91.4598
11.8359 32.8868 92.2302
11.7086 32.2086 91.3282
11.508 31.4762 88.6292
11.317 31.7291 91.2408
11.6815 32.0492 88.5058
11.294 32.1412 90.8346
11.5004 33.069 94.8413
11.8516 33.1507 92.2476
11.0727 31.2225 89.7984
11.3044 32.0349 92.0915
11.3164 31.4917 89.9967
11.4505 32.6623 91.349
10.8858 31.1088 91.6992
11.3659 31.7494 91.1956
11.1107 31.4087 92.2096
11.3625 32.002 92.0977
11.2782 31.9928 91.0266
11.0927 31.6196 92.4387
11.2414 31.7929 91.6377
11.2338 32.0402 91.8182
11.2506 31.8837 88.2687
10.4623 30.8448 90.8524
10.8112 31.3242 92.0942
10.84 31.2522 91.6991
10.9159 30.7185 89.1775
10.84 31.8743 92.5199
10.6886 30.879 92.6386
10.7175 29.9193 89.2146
10.8412 30.9917 90.4439
10.8462 31.3798 92.3219
10.7441 30.3766 89.014
10.6143 30.8211 92.1109
10.9764 31.4455 90.9856
10.5595 30.6125 90.0238
10.4158 30.0652 87.8481
10.1443 29.7731 90.0329
10.5645 30.4155 88.8705
10.3256 29.9333 87.4448
10.1893 30.3505 89.789
10.4779 31.2638 92.408
10.655 31.7485 94.5126
10.3747 29.5565 89.7905
10.7463 31.6384 92.4578
10.4862 30.5302 88.4764
9.97752 29.947 90.163
10.2123 31.4378 100.94
11.5432 32.6744 93.6011
10.2441 29.4779 89.0129
10.3392 31.0346 91.9952
10.21 30.4253 91.5165
10.0766 29.9904 90.9929
10.1115 29.5128 88.5127
10.0874 30.2807 91.2543
10.105 30.2705 90.6519
9.9416 29.6489 90.8759
10.0928 30.1515 92.2701
10.2021 30.013 90.85
10.1072 29.9459 89.9544
9.79458 30.0644 91.8346
9.88839 29.4933 91.4596
9.9434 28.8699 88.422
9.755 29.4063 91.1131
10.1311 30.2663 89.1981
9.5008 29.048 90.9675
9.76548 28.6614 87.4988
9.56504 29.0109 90.0598
9.87219 29.7009 90.0827
9.60942 29.2407 90.8484
9.75124 29.3843 91.8884
9.89289 29.6303 90.0797
9.52654 28.4392 87.1562
9.38674 28.6994 87.9498
9.45597 29.0777 88.8456
9.25599 28.5677 91.9215
9.84891 29.4631 91.0346
9.76422 29.406 88.1963
9.22737 29.0352 89.6209
9.27801 28.5065 90.2511
9.48072 28.7594 89.673
9.40124 28.495 88.591
9.30043 29.1164 91.8142
9.58541 29.2373 91.3785
9.57561 29.5622 91.9101
9.41714 28.5703 90.4596
9.46456 29.0093 88.9522
9.03531 27.9664 89.0739
9.24727 28.8732 89.3456
9.17102 28.549 88.9915
9.00762 27.7885 88.2164
9.18765 28.6956 89.6725
8.91739 27.4321 88.2443
9.02514 28.034 89.0915
9.05537 28.5834 90.6454
9.08658 28.0046 90.3767
9.17979 28.2958 88.7287
8.89961 27.0611 85.6044
8.70935 27.3086 88.3516
9.05946 28.3547 90.8427
9.24171 28.8772 90.9408
9.07123 28.1709 88.9815
8.99021 28.5591 90.5609
9.02918 28.4416 89.624
8.80691 27.8605 89.5099
8.74535 27.4899 89.6505
9.0082 28.3735 90.6119
8.91254 27.8887 90.0007
8.97349 28.5897 92.7173
9.09669 27.8683 88.2408
8.6181 27.1071 88.8983
8.89836 28.3444 90.6398
8.8478 28.3628 92.7576
8.99783 27.8663 90.4089
8.86523 28.2479 90.1322
8.71598 27.3691 88.7322
8.59506 26.8074 87.6933
8.79383 28.3765 89.8851
8.56924 26.7374 85.0507
8.16311 26.8143 89.705
8.75858 28.5156 91.3501
8.61524 27.5175 89.2577
8.43086 27.1081 88.6314
8.41095 26.7737 88.4812
8.50505 27.3321 91.2322
8.76628 28.107 89.9136
8.5506 27.8462 91.618
8.55392 27.3139 89.5697
8.38366 26.9628 89.599
8.56026 27.5047 88.2518
8.30654 27.4612 91.4289
8.38016 26.4159 89.1597
8.63359 27.9663 90.252
8.37107 27.2959 90.1611
8.4633 27.7463 91.1596
8.35629 26.8703 89.4543
8.13443 25.8929 87.1613
8.25922 26.9108 88.8525
8.26142 27.0585 88.5694
8.13973 26.6302 88.8503
8.25138 27.2246 89.872
8.1986 26.9065 91.5498
8.48386 27.3936 87.6448
7.98967 27.1922 99.1431
9.45483 30.1249 93.4602
8.31286 27.2148 88.0525
7.93285 27.176 92.7887
8.23153 26.1662 88.6081
8.16022 26.9103 90.541
8.21324 26.553 87.5369
7.9307 26.9162 91.2778
8.1451 26.4209 88.9624
8.08884 26.4495 89.0528
8.11813 26.9482 90.1485
8.18001 28.0575 93.4797
8.15419 26.2324 88.4419
7.93403 26.7218 92.3624
8.22361 26.5982 88.4303
7.94874 26.8499 90.346
7.96036 25.9752 88.943
7.88049 26.0681 87.8835
7.86611 26.5556 89.7901
7.804 25.326 86.9572
7.75371 25.9344 86.6468
7.70016 25.8036 87.6802
7.76543 26.3537 90.9781
7.90127 25.9156 86.8185
7.62921 25.6238 86.9795
7.67248 26.0096 88.7364
7.67907 25.4811 88.6814
7.87199 26.5353 87.7866
7.58783 26.0174 88.8654
7.60089 25.5063 89.4814
7.7226 24.9855 86.9422
7.72505 26.1023 88.3773
7.67968 26.1831 89.7063
7.67556 25.493 87.4441
7.59092 25.7452 89.0698
7.66639 25.3316 86.6212
7.5721 26.0734 88.0678
7.51193 25.508 87.8898
7.56201 26.4252 90.8397
7.6653 25.4483 86.8091
7.40304 25.4162 88.1093
7.47969 25.4618 87.5369
7.39441 25.1427 88.8916
7.58997 25.1761 86.7553
7.35452 24.8327 87.3287
7.37369 24.792 85.1699
7.21346 25.2324 88.0905
7.36825 25.0813 85.8115
7.25459 24.8328 88.0945
7.41935 24.7575 86.818
7.34252 24.9652 88.5267
7.51405 25.6056 88.647
7.41576 25.1079 87.195
7.26733 24.8581 88.0341
7.40915 25.2735 87.8998
7.36679 25.8039 87.6963
7.18417 25.1228 89.3399
7.25067 24.4235 86.9248
7.28246 24.8288 86.5539
7.1948 24.5045 85.2694
7.1039 25.1612 88.0301
7.21141 24.2891 86.3623
7.12886 24.5152 86.001
7.11412 24.3099 86.1422
7.10981 24.6835 86.8073
7.10438 24.713 86.685
7.06353 24.5438 89.1203
7.32863 24.7909 87.2242
7.17838 24.6898 87.2764
7.2218 25.2665 85.9651
6.93987 24.1656 86.7576
7.09906 24.6044 87.7921
7.22978 24.9443 85.7572
6.92274 24.2708 86.2332
7.05872 24.9384 87.1894
6.99261 24.8042 87.6532
6.97703 23.9785 87.7375
7.04931 24.8431 90.0088
7.29035 24.9545 85.9371
6.92677 24.9115 88.8542
7.06759 24.5528 87.8173
7.03521 24.194 85.9758
6.8766 24.2079 87.5609
6.95577 24.6089 86.4537
6.82702 23.8006 84.7355
6.66375 23.653 86.2788
6.90257 24.7546 90.7116
7.25589 25.1006 89.1464
7.02897 24.1666 85.3498
6.74419 24.0785 89.3754
7.00878 23.7924 84.8972
6.76731 24.0151 84.8244
6.73202 23.9825 86.681
6.82769 24.3709 88.4737
6.9789 24.8335 89.4142
6.96448 24.3806 88.2706
6.95706 25.5057 99.2931
7.85479 26.2611 89.6082
6.99711 24.5201 87.4994
6.88568 24.2528 87.3857
6.83984 24.0065 85.2673
6.62226 24.3461 89.0803
6.90313 24.2405 87.7399
6.80344 24.8897 90.3722
6.93442 24.3588 87.4108
6.69846 23.8258 86.3109
6.65891 24.0597 88.681
6.80057 23.8444 87.2264
6.68239 23.2534 86.3118
6.76002 24.7887 87.5543
6.60096 23.6186 88.7109
6.81101 24.07 87.4263
6.72489 23.4467 84.4215
6.45367 23.3215 86.4805
6.68488 24.2976 88.1145
6.69692 24.122 89.2507
6.85082 23.9193 84.4201
6.43656 23.4293 87.4028
6.66091 23.8385 87.1022
6.60932 23.4697 87.0429
6.58572 23.4134 85.3615
6.42495 23.2552 87.984
6.7552 24.2766 86.6028
6.554 23.3944 85.9893
6.50755 23.3156 83.2964
6.25892 23.2315 87.2183
6.47485 22.9736 84.3044
6.29502 22.7521 83.6275
6.3729 23.7854 86.3925
6.40964 22.7438 84.3545
6.3192 22.3321 82.3643
6.26185 22.8648 84.6597
6.36798 23.0391 83.769
6.23153 22.9293 83.9306
6.16345 22.4197 85.1665
6.356 22.8557 85.3596
6.35382 23.416 87.4633
6.45414 23.3446 85.9013
6.34781 23.3376 85.6002
6.30185 22.922 85.6766
6.27935 22.5759 84.8447
6.31638 22.6241 83.7393
6.22931 23.7235 86.0704
6.20883 22.1921 87.503
6.49554 22.6451 84.8718
6.37413 23.3715 84.0212
6.14457 22.7389 86.1926
6.38137 23.3125 86.8295
6.38638 23.4583 85.3929
6.24619 23.0444 84.5013
6.16347 22.7204 86.2627
6.21813 22.9015 87.5627
6.40593 23.2819 87.5479
6.37788 22.7894 84.8683
6.23996 23.4817 87.2662
6.2334 22.394 85.4554
6.28147 23.0323 87.7257
6.39188 23.0454 83.5489
6.1277 23.339 85.8048
6.09392 22.4503 84.5836
6.07983 22.1282 86.9764
6.337 22.8883 84.9684
6.16505 22.4441 82.5708
6.01449 22.5787 84.7123
6.11298 22.9913 85.0686
6.04848 21.8485 84.6162
6.09435 22.3716 85.981
6.17953 22.4462 84.341
6.06621 22.3278 84.782
6.12124 22.3274 83.2251
5.9995 23.169 86.2313
6.11687 22.2147 83.2613
5.93025 22.0239 85.114
6.07238 22.5076 83.3859
5.93623 22.3818 86.7793
6.16177 22.2891 83.4679
5.89578 22.0424 85.7883
6.17998 22.9515 84.1529
5.90133 21.726 82.1907
5.81414 21.873 83.6681
5.91556 21.9483 84.6321
6.00345 22.2552 83.6716
5.96817 22.593 84.4193
5.91764 22.1252 85.6245
6.03094 21.9546 84.3898
5.94353 21.6847 83.8329
6.03735 22.0723 85.2089
6.04345 23.0188 83.1217
5.78979 21.8848 85.3661
5.92924 21.6057 81.6726
5.79503 22.279 84.323
5.86903 21.677 82.3649
5.78793 23.6764 97.9837
6.8443 23.4575 83.987
5.84867 21.9729 84.8089
5.89281 22.0736 84.2873
5.90514 22.4854 84.6439
5.84278 21.8417 86.0528
5.98543 22.2302 85.388
5.97289 21.815 83.0849
5.86171 21.9473 83.7315
5.85624 22.5975 85.6558
5.9017 21.5644 83.4801
5.8298 22.1101 83.9859
5.82687 22.0563 85.3269
5.89954 21.7977 82.0849
5.70978 22.1011 85.005
5.83758 21.7274 83.7863
5.74391 21.2163 84.8306
5.88337 21.6745 83.8259
5.82873 21.9802 83.1177
5.71499 22.2262 85.8137
5.8836 21.8085 84.4787
5.82675 21.5157 84.2418
5.80115 21.7569 82.5705
5.65959 22.1845 85.1216
5.74321 21.7598 84.639
5.81785 21.8012 84.4678
5.79412 21.807 83.2159
5.74015 22.2542 86.2398
5.88368 22.2247 84.8528
5.82694 22.1029 85.0514
5.75618 21.203 83.297
5.665 21.1376 83.1705
5.63667 21.1021 83.4331
5.76061 21.6738 85.2624
5.88693 22.4245 83.8854
5.65169 21.0311 83.9942
5.74612 21.4422 83.4863
5.71203 22.4761 84.2135
5.69215 21.9963 84.5866
5.72068 21.5408 85.5647
5.7571 21.3987 83.1012
5.69979 21.5925 81.5761
5.53641 21.4084 81.4982
5.49316 21.3578 82.2788
5.47159 20.8646 83.1086
5.63896 21.4148 84.6163
5.70418 21.7978 83.0257
5.59459 21.8251 83.7617
5.61247 20.7795 81.2172
5.44372 21.1822 83.7204
5.66102 21.2147 81.2917
5.51282 21.6491 84.0135
5.62927 21.1639 81.3938
5.43116 21.7109 86.7332
5.79779 21.3756 85.0339
5.73188 21.6693 82.5864
5.53936 21.5987 82.9021
5.5197 21.3305 83.2681
5.54242 21.4864 84.9978
5.68764 21.5225 83.0023
5.46866 20.9764 83.1647
5.54724 21.7754 85.6724
5.67865 21.4487 83.0997
5.53296 21.0087 83.1586
5.57208 21.5377 84.0377
5.60825 20.8647 82.2138
5.5219 21.2997 82.2069
5.48187 20.9556 84.3126
5.56675 21.5469 85.1513
5.64963 21.2775 81.912
5.46037 21.0667 82.7935
5.52337 20.4911 79.6469
5.35219 20.4963 80.224
5.36381 20.8785 84.4759
5.58504 21.3082 86.321
5.73115 21.9111 83.3444
5.51644 20.9352 82.1668
5.4203 20.5257 82.6101
5.4645 21.1325 83.8585
5.54494 21.1687 84.4188
5.58346 21.448 82.0815
5.43169 20.8148 80.8493
5.38235 20.7829 83.7645
5.56916 21.2744 82.4639
5.43453 21.3978 83.2491
5.46938 20.9064 83.6185
5.50072 20.6332 83.3776
5.50298 20.981 79.9977
5.28985 20.8894 84.6575
5.57047 21.1816 82.1727
5.40477 20.7424 80.4457
5.33462 20.7234 80.8341
5.33248 20.987 82.234
5.42161 20.5042 81.2108
5.31837 20.4224 82.233
5.41133 21.4135 83.5362
5.49769 22.426 98.1303
6.41995 22.6126 81.8622
5.35528 20.7225 82.5195
5.3986 21.2131 81.865
5.33813 20.7176 82.643
5.41751 20.9715 82.8029
5.42833 20.9293 82.873
5.44394 20.9427 80.0678
5.22414 19.6469 80.7289
5.38055 21.3958 85.2818
5.55583 21.2073 82.7748
5.40385 20.1958 80.8577
5.3432 20.9999 82.8238
5.38632 20.4392 82.5382
5.39714 21.5019 82.2444
5.32642 20.5064 85.272
5.60611 21.0702 81.8396
5.36498 21.0565 82.1433
5.36097 20.7528 82.9165
5.32687 20.8852 80.7593
5.27589 20.5438 81.7809
5.31363 20.7235 83.343
5.41832 20.8275 81.9751
5.32288 20.8755 83.5639
5.44465 21.0338 84.0049
5.44384 20.8075 79.9828
5.20568 20.3738 82.9467
5.36641 20.41 79.4192
5.18218 21.0237 83.0396
5.3929 19.8792 79.9131
5.255 21.0078 81.5603
5.27597 20.7591 82.3767
5.33167 20.1316 82.2625
5.33943 21.406 83.0169
5.37242 20.0945 80.7162
5.20699 20.1263 81.6559
5.30264 20.8567 83.5378
5.40632 20.9816 80.2352
5.17712 20.4778 84.4109
5.46873 21.0596 82.2271
5.28464 20.4485 82.647
5.34005 20.5058 80.9927
5.24962 20.3153 82.1852
5.31027 20.3501 79.8366
5.13275 20.2878 84.2878
5.48295 21.0333 82.9506
5.37077 20.7043 78.3429
5.06514 19.7227 78.7921
5.10118 20.5568 83.6107
5.3982 20.5739 82.2807
5.30092 20.5533 80.042
5.2159 20.1896 84.0657
5.45258 20.9743 80.8745
5.18323 20.5771 78.9695
5.06329 20.2607 82.6383
5.32132 20.5417 81.1434
5.2673 20.5852 81.4336
5.24034 20.4233 80.7125
5.19893 20.4028 84.1657
5.42496 20.1414 80.9617
5.23326 20.5722 81.6061
5.28728 20.1377 80.5471
5.19343 20.1859 80.7343
5.23515 20.5328 83.0278
5.3693 20.5907 81.6066
5.26661 20.8747 82.3464
5.31743 20.8995 82.3606
5.2859 20.1607 81.941
5.29744 20.4246 81.5151
5.27566 20.1575 80.4135
5.20632 21.1208 81.8364
5.27626 20.5647 82.4775
5.28691 20.5547 82.4026
5.30896 20.4866 81.4669
5.2714 20.612 80.7256
5.22354 20.7268 82.9696
5.28908 20.5696 80.294
5.1671 20.2583 82.8793
5.32263 21.1018 85.2389
5.46484 20.2957 81.9053
5.25922 21.0893 82.3339
5.33066 20.4372 80.4406
5.1797 20.5763 81.2959
5.24385 20.2448 80.7894
5.19983 20.3126 82.3718
5.32166 20.7058 84.71
5.41346 21.067 83.0592
5.30548 20.6606 83.4444
5.3534 20.5522 81.4734
5.2363 21.0027 84.446
5.44955 20.7851 82.9808
5.35478 21.2751 84.2677
5.42015 21.2679 84.8393
5.44735 20.3313 84.3179
5.39983 21.5838 83.5218
5.34757 21.584 87.1124
5.58506 22.6672 95.7857
6.12957 0 0