# pn-170911/RbIIR-57-PTBB-1280-1959.psd
# Power spectrum* (dif=0,1,2) (really just |FT|^2)
# NOTE: only the first half! (symmetric)
# weeks: 1280-1959
# 4 clock-days, 0 excluded
# PSD: 1441
504.661 0.0692681 0.00800681
10146.4 0.106474 0.0042049
76235.1 1.69059 0.00402303
16370 0.524023 0.00441707
26762.7 1.73713 0.00359152
3299.76 0.267629 0.00398352
4755.19 0.62354 0.00489554
1307.05 0.322243 0.00363577
609.572 0.153223 0.00427496
1226.21 0.471679 0.00444795
1340.48 0.478734 0.00427327
627.36 0.564648 0.00533084
1425.24 0.769164 0.00449515
512.99 0.363827 0.00494786
633.172 0.489253 0.00340606
552.463 0.515104 0.00356894
778.824 0.828147 0.00362864
528.552 0.812455 0.00401628
256.471 0.487842 0.00695408
686.318 1.02311 0.00530009
282.46 0.453925 0.00537326
656.436 0.998589 0.00619407
229.707 0.407409 0.0058544
414.185 0.982861 0.0110734
338.239 0.926537 0.00966766
452.152 1.16555 0.0112345
494.876 1.20693 0.0097476
294.79 1.00667 0.00851427
309.728 1.03392 0.0103182
339.918 1.46695 0.0125373
468.485 2.10508 0.00909255
67.4031 0.30052 0.00551439
437.911 2.09197 0.0200755
280.288 1.19685 0.00884225
306.485 1.51951 0.0130738
153.783 1.10683 0.0157836
366.497 1.88695 0.0100975
264.522 1.66198 0.00764127
144.416 0.903599 0.0111871
218.803 1.26535 0.0128362
113.163 0.836478 0.0100406
313.065 2.65287 0.0235522
301.18 2.22976 0.0200188
189.613 1.50588 0.025763
199.718 2.17282 0.0197622
277.925 2.8399 0.0236301
334.98 3.23736 0.0369585
170.706 2.06927 0.0303003
197.848 1.93169 0.0255723
238.643 2.75641 0.0159635
288.547 3.61513 0.049441
210.186 3.01898 0.0526747
170.49 2.13778 0.0206434
151.539 2.08949 0.0402379
274.024 4.53676 0.0676109
162.931 2.0226 0.0309025
149.208 1.96604 0.037695
166.081 2.49985 0.0420024
114.774 1.93774 0.0341911
168.276 2.90037 0.0610208
160.985 2.47408 0.0283714
181.398 3.57565 0.0842511
167.198 2.87974 0.0594344
157.534 2.74153 0.0702528
247.191 5.06296 0.100517
373.142 7.16815 0.160551
205.067 4.43299 0.0913283
70.0883 2.00433 0.0388467
280.98 6.03609 0.144853
34.1199 0.915537 0.0337541
287.694 6.95179 0.153198
200.625 5.02027 0.128929
133.173 3.30644 0.0695792
317.995 8.74566 0.252515
71.0507 2.10661 0.0706966
103.871 3.05934 0.111756
112.066 3.53933 0.0974271
327.154 8.03164 0.226345
81.176 2.39812 0.06901
142.831 4.31193 0.130238
270.745 7.84335 0.272962
157.371 4.87063 0.139399
139.414 4.73158 0.181943
62.6296 1.86791 0.056254
97.7721 3.64889 0.0991785
110.048 4.09027 0.122759
128.825 5.05029 0.192655
134.341 5.11425 0.200164
112.305 4.65121 0.176976
45.3181 2.17602 0.118337
158.08 5.6418 0.217531
101.526 3.19003 0.0999442
190.399 7.81504 0.343395
229.292 9.43746 0.333016
75.4549 2.9731 0.107219
132.144 5.73132 0.220583
86.6102 3.83599 0.172504
92.0859 3.99155 0.162821
235.245 10.9526 0.54207
110.782 5.22331 0.227931
127.336 5.48798 0.278434
207.866 10.5909 0.530301
82.3095 4.47681 0.226168
136.383 6.68048 0.37585
191.043 9.93522 0.524574
156.724 7.3878 0.370865
166.456 8.63948 0.477228
57.9597 2.99382 0.152716
209.111 11.6193 0.699653
99.3083 6.31489 0.374538
170.604 8.95582 0.51044
205.382 11.4272 0.674797
106.039 6.75645 0.433352
37.7455 2.43329 0.147727
109.009 6.6862 0.404645
49.9075 2.78194 0.1511
56.6696 3.85253 0.255975
78.7991 6.10401 0.42063
121.368 7.70782 0.528784
38.4246 2.19481 0.1575
91.558 5.99165 0.382591
170.411 11.0415 0.730746
41.7497 2.27333 0.149553
149.691 10.7455 0.770635
56.7513 4.0713 0.316039
52.0429 4.40072 0.339927
117.684 9.32795 0.762165
123.283 7.97218 0.564287
229.858 16.7361 1.25427
283.907 24.0093 1.95518
118.722 11.0905 0.98296
140.288 10.0896 0.862247
165.909 13.0237 1.01917
68.8294 5.37088 0.47075
97.2429 7.32966 0.581706
126.44 11.3712 1.0104
51.4085 4.26012 0.343346
110.787 10.7362 0.975276
55.51 5.47612 0.539038
104.533 9.018 0.799667
119.184 9.37891 0.767797
156.209 14.7799 1.45289
83.521 9.40981 0.997714
168.975 15.0226 1.31938
132.713 12.9229 1.30108
69.6636 7.80761 0.782865
97.6041 8.55233 0.719942
74.978 7.79763 0.812593
60.8208 6.31583 0.604706
25.6218 2.91571 0.315463
115.528 12.723 1.42006
109.966 11.6649 1.25185
64.3728 5.778 0.543481
226.317 24.2632 2.65076
111.043 11.6869 1.18883
76.2533 7.91606 0.869105
159.735 20.0489 2.4874
188.648 24.272 3.08424
138.339 14.281 1.55718
38.7297 4.83379 0.680411
98.509 10.8529 1.15231
196.669 25.264 2.99269
135.048 17.2992 2.10105
88.4396 11.7464 1.43267
106.529 14.7164 2.00148
54.3408 9.90435 1.55524
105.726 15.7514 2.45218
205.087 23.9883 2.90782
343.504 43.7625 5.92798
98.5945 12.0981 1.48343
75.5571 10.4849 1.60843
53.9401 5.67043 0.589485
113.697 17.5157 2.80755
174.074 22.7489 2.82644
73.7562 9.97973 1.47022
199.238 28.2312 3.8387
46.7227 8.79565 1.61151
129.876 17.3426 2.28896
47.6421 7.4733 1.25176
120.852 16.8564 2.1876
61.5035 10.5596 1.72115
96.7355 16.7666 2.69649
95.246 13.7263 1.98497
89.9033 13.0357 2.02698
29.9308 6.16287 1.13927
70.5924 10.7865 1.70613
79.5186 12.4171 2.00112
78.2412 10.6838 1.5925
161.703 28.9163 5.06994
128.91 19.4538 2.91307
70.3237 12.6803 2.27108
109.522 17.4828 2.96498
69.0313 12.3264 2.19822
52.7749 9.6247 1.77634
174.735 28.6478 4.73862
176.747 32.3629 6.12868
91.1744 14.9637 2.62709
82.5284 18.3457 3.88262
30.676 5.21029 1.12998
110.876 19.3309 3.48709
46.1917 7.18861 1.18587
211.81 41.0027 7.43926
109.186 21.769 4.23104
100.157 19.5513 3.85144
80.369 15.014 2.93784
49.3035 10.4435 2.19406
44.8543 8.53803 1.75053
83.3519 16.8424 3.63673
57.2043 12.9429 2.97277
85.0878 19.4609 4.12231
55.7332 11.8636 2.73967
66.1805 12.9436 2.47961
83.9855 16.237 3.32609
41.3034 9.02929 2.08934
90.0041 19.6178 4.39497
28.0092 6.96964 1.74351
109.7 21.1225 4.18294
149.432 34.8357 8.26915
66.3803 13.197 2.90773
50.1643 12.7818 3.28228
47.5992 10.1696 2.41864
68.35 15.137 3.37006
25.3676 5.23107 1.11893
48.161 10.9623 2.57019
62.8957 15.431 3.64311
90.1112 22.0401 5.18649
62.7301 14.385 3.3083
37.3088 7.80376 1.97834
58.6907 13.2278 2.84708
94.1296 23.7746 5.91731
84.43 20.2497 5.05304
103.35 23.0415 5.02557
40.0202 12.0246 3.75242
34.8807 6.73684 1.53666
86.7468 19.458 4.4311
102.606 25.1895 5.80465
52.9363 15.8469 4.68204
72.7555 16.9776 3.77196
53.2262 13.5039 3.30375
106.456 31.052 8.9091
150.204 37.6573 9.6097
98.5487 24.8288 6.5518
125.793 33.7106 8.82888
22.0836 5.20307 1.39047
70.8383 18.5736 5.00661
54.3062 15.9347 4.84361
16.7913 5.22719 1.85728
50.9675 12.8611 3.30256
50.5016 14.681 4.2995
57.7394 18.4948 6.24998
48.5179 14.5629 5.04943
88.355 21.9023 5.01546
90.3276 23.2358 5.71195
113.908 34.0255 10.0657
46.3682 16.0057 5.27367
41.7599 13.8637 5.01181
78.6422 28.2508 10.0712
93.7906 25.8124 7.25427
98.524 29.8193 9.07891
76.6713 20.2721 4.97996
16.9357 4.75413 1.35998
103.725 33.9312 11.4101
99.3537 27.8742 7.4303
56.7149 21.9467 8.29627
79.284 26.1281 8.74721
58.0219 15.7692 4.10905
54.041 20.686 7.23573
10.9769 4.99854 2.20876
28.1822 9.57874 3.72442
108.942 34.2501 10.8381
26.3067 8.57561 3.08472
56.1937 20.4765 7.06146
32.7071 10.4315 3.00539
66.6576 27.7095 10.2111
34.835 15.9787 6.7723
87.4611 32.4066 12.8291
67.7616 20.9682 6.8763
80.0054 25.3639 7.84609
34.8775 14.0846 5.63583
100.001 37.2309 14.3943
168.133 60.1783 20.744
91.375 29.6803 9.60579
12.0889 4.63766 2.37969
84.2243 27.1084 7.99065
51.7496 24.1054 10.3374
126.206 48.1159 17.3532
77.7002 28.7695 10.978
54.5105 17.2162 6.27447
116.281 46.5071 16.8724
88.7308 41.0701 18.6393
152.55 52.5158 18.6614
207.325 86.6718 36.3439
174.247 62.0664 22.9468
574.164 256.94 111.908
652.631 258.427 108.349
1016.06 375.762 133.996
255.774 99.8883 39.2621
190.658 67.2254 23.6057
115.076 51.0828 21.1501
166.893 70.0566 29.2223
56.6284 20.4802 7.82993
85.3044 38.0238 16.4412
47.5178 18.6411 7.14092
60.9309 34.0656 17.5705
44.7181 18.5622 9.3426
66.6959 23.4343 8.35298
42.4468 17.812 7.66557
15.5773 5.02095 2.0922
78.369 32.0028 12.8131
41.6631 18.4531 7.93778
28.6217 13.1357 6.34698
47.5362 20.1971 8.32633
28.4303 15.0688 7.92762
44.4362 19.1264 8.47208
61.9284 29.3476 14.8427
95.6206 39.5826 15.4257
76.0761 31.7261 12.3666
134.232 75.4739 39.6777
18.511 6.06092 4.51688
56.3664 20.1019 7.08347
55.2169 24.1549 10.4107
51.1196 25.5681 11.7141
11.5226 6.13627 3.89831
15.2408 6.55837 3.30323
70.1604 31.8054 13.6089
31.5216 16.301 8.40777
16.0205 8.08855 4.92276
52.9368 25.9256 12.0341
21.3131 8.84887 4.02414
52.5063 25.5045 12.8003
22.9204 9.29654 3.80004
27.345 14.3247 7.92322
67.1928 39.1271 22.4756
27.7938 10.6569 5.42048
92.0568 43.9525 19.6019
60.9557 31.514 15.6111
42.7835 21.3531 10.8376
38.562 20.5251 10.6928
73.7461 39.5828 20.1661
61.258 39.0793 24.7915
129.357 61.7697 29.5517
38.181 17.9995 9.80261
57.5281 25.2864 9.87202
54.5445 33.0595 18.4647
40.8722 20.7852 10.8423
27.9588 14.463 7.56836
39.0921 28.9344 20.6662
46.2832 19.9363 8.78929
41.4311 23.6672 12.4012
34.1469 23.6124 15.5474
46.1731 20.5795 10.5337
77.5097 37.7038 16.865
53.5069 35.2183 21.5635
44.6651 23.8397 12.6921
29.3471 19.1514 11.8479
31.2928 17.7651 10.0506
20.7973 9.70112 5.2345
69.2157 46.0143 28.7952
80.5944 43.6247 24.2982
26.8528 10.7309 4.44918
43.5537 23.2011 11.1815
70.6202 50.9662 33.9987
44.9677 18.749 7.55284
49.2923 34.6248 22.7554
56.4929 29.9617 15.4597
55.2547 34.5918 20.5629
38.8135 24.2436 14.5745
18.7841 12.2817 7.86316
40.428 29.9529 21.2646
35.7252 20.8574 12.4798
14.9477 11.8579 9.76761
33.486 24.4383 19.0961
90.1193 53.0578 29.9883
44.3322 26.4217 16.6648
36.3749 23.2944 13.9668
31.256 22.7662 17.1434
49.0605 27.1991 14.7913
16.6375 8.72226 5.9367
52.1349 32.9384 18.0057
50.4048 35.0049 21.6388
20.7138 19.6766 16.9526
26.9821 17.3212 13.0196
37.9756 21.764 11.596
23.8958 16.7418 11.7316
30.6568 21.0705 14.2666
34.1094 20.0867 11.8182
46.9274 36.4185 27.337
52.5692 29.2541 15.063
15.3074 12.8752 9.75095
43.3983 33.3644 23.6479
13.6772 11.5137 10.6106
38.0306 29.4288 22.2207
28.9755 11.6746 4.55204
28.3485 23.0593 18.0182
28.7025 24.8197 20.6195
32.15 21.0084 16.9897
49.0261 31.2292 19.5325
20.3171 13.1681 11.3977
65.3495 41.0905 23.2903
12.0614 14.0389 14.7958
35.1884 22.7568 17.2281
58.1191 34.0851 20.7948
42.4513 26.4389 16.6701
71.5888 46.0567 24.0462
49.1157 45.9994 35.0315
33.8337 28.3786 22.4353
37.161 31.0286 26.3256
28.8256 17.3415 13.1039
61.3493 40.6492 24.7426
39.3047 34.6261 28.2732
22.4244 12.8835 7.70412
47.254 44.5745 38.3349
38.171 31.4628 26.0693
41.2611 25.7536 16.2058
29.5945 29.7849 27.4229
20.1283 15.2664 13.9124
21.5944 11.1205 6.5973
22.9366 18.0131 15.6626
34.0023 21.4854 11.7843
34.5786 33.7249 26.7927
26.9708 29.7452 30.126
21.5097 14.1563 13.9652
59.3425 45.9708 36.9079
30.8562 19.0184 13.3994
46.9008 40.2812 31.9427
22.139 19.9082 20.5972
42.7761 31.2205 23.3456
32.5542 20.7302 12.5744
18.6229 16.5402 15.0241
19.1145 16.619 15.3382
31.6564 24.0665 17.9619
28.4912 28.6638 28.1101
26.6499 15.5827 11.2613
20.4097 15.5677 16.9229
85.4846 59.6375 36.6911
16.133 15.3718 15.2135
35.1468 27.0924 19.8093
60.5359 54.7814 43.7562
34.8622 33.7562 32.4888
39.8307 39.0456 38.0644
31.7444 21.5415 17.7105
43.7572 34.8884 26.5558
25.1851 17.8139 12.3298
29.1121 26.83 21.1648
29.8518 32.2096 29.7145
22.9592 28.5447 33.5159
26.867 15.0893 12.7597
20.7963 10.558 5.2049
35.6015 29.1306 22.3539
37.1511 33.5828 26.5042
20.2241 21.0299 21.1434
15.4399 11.8827 11.2084
32.1757 33.7448 34.5028
33.0941 23.4302 16.9799
21.624 21.5732 19.2936
17.1396 17.2231 18.5714
28.9941 23.0229 18.6557
34.7083 34.4656 34.9374
27.933 23.0423 22.9588
58.9304 49.8604 38.4665
33.0011 27.6444 21.6949
10.9371 8.91329 6.91235
22.3263 25.5164 25.9218
22.6686 24.9489 27.1498
18.8299 17.7121 19.4187
29.0662 22.9397 18.3195
30.0723 27.0105 21.6107
14.6609 17.9764 20.2029
17.2451 13.8494 12.102
13.4953 12.3445 12.029
30.6284 29.6858 24.5772
31.3281 35.4327 34.9809
27.2357 34.1248 41.3757
20.2253 19.1515 24.8952
25.6726 15.8599 8.55997
24.0775 28.9045 31.9168
49.6017 51.5861 52.0172
54.4837 50.8793 44.6407
19.2574 14.7656 11.5839
14.4717 20.4418 27.1748
29.3616 25.518 21.0817
11.6579 12.4909 14.9407
25.5707 27.5199 27.1759
16.4757 15.4016 15.4671
15.0917 15.0353 17.2457
23.5273 20.6646 15.6785
14.4547 22.1135 30.422
25.6849 19.9775 16.3433
19.8956 20.5308 20.2029
19.149 17.3738 14.7989
6.94049 6.23281 6.51371
24.2877 30.947 35.8912
28.3526 27.3689 24.5503
8.09093 8.68524 12.0043
21.8034 25.2362 27.3403
15.7769 15.8297 17.518
22.5965 25.8876 32.308
19.7469 13.0947 8.09584
22.0474 22.7889 19.0802
29.7425 36.4347 34.1987
15.5986 29.91 45.833
30.4546 19.8129 13.0907
25.2868 26.4721 20.5632
31.2645 57.3228 80.5288
37.4573 32.7936 36.7159
34.2198 32.7033 34.3104
30.206 30.3635 30.0946
23.721 26.4902 31.3112
36.0931 43.1561 50.1867
27.7171 23.1258 18.3876
13.5488 15.2905 15.6841
11.2432 16.0969 24.7969
35.592 34.7987 31.5266
23.398 31.6961 36.1813
13.2035 23.4001 44.8793
46.6804 37.8052 24.5821
15.7072 20.58 23.3185
11.3379 13.1645 15.283
10.7748 14.3197 18.7429
21.5892 22.0599 18.4702
19.0079 35.2699 50.1229
8.58241 7.64688 18.4631
33.25 36.4853 41.397
28.6582 27.2476 30.1267
37.5032 42.9693 46.5731
32.5906 31.5903 26.8762
24.3694 39.1044 53.0897
17.9427 21.8077 32.9043
20.7898 16.6371 14.5597
33.028 45.9723 56.2265
22.4348 25.3169 31.5483
19.587 17.3112 17.5157
18.2191 19.8208 17.9218
14.2859 19.5707 22.4505
7.02693 8.72842 12.4196
10.973 14.0391 19.7525
18.704 21.154 24.8956
27.2398 28.926 27.2106
20.3994 33.7252 50.8041
27.845 28.16 28.3258
14.5903 13.0617 8.39998
15.2831 26.3433 33.1542
16.9095 25.6795 36.5985
7.45456 7.58635 12.3939
11.0438 13.212 15.6557
8.67394 14.7418 27.4275
40.0971 52.2895 60.5805
14.8146 10.5796 9.5267
11.1621 14.1138 15.8059
14.0375 20.6868 28.5169
13.8755 15.7604 17.9301
17.258 27.6993 35.7838
14.6108 20.4881 31.7628
25.834 31.3346 33.505
9.53834 18.9919 36.4375
31.3988 43.9401 62.3022
29.3888 33.2639 41.4122
23.338 23.3679 21.1534
35.4758 65.1379 94.9637
26.0741 34.0176 54.7305
22.0043 20.5638 28.9958
19.2289 17.988 23.7373
27.5396 27.9255 23.0697
16.735 23.5935 28.4555
17.2068 25.117 27.5769
3.08925 8.27005 18.4843
9.43832 8.06174 9.65461
12.0657 16.5305 19.5719
12.5068 23.6836 41.4193
16.4741 14.182 11.8218
8.99893 12.0429 15.2209
16.3479 25.574 36.7312
25.0227 36.5527 45.0361
2.50175 4.17944 17.9725
24.9801 31.4765 38.3151
28.0389 41.278 58.4991
29.1909 35.1385 39.1085
27.4048 38.0836 39.2741
11.4103 27.4841 45.0474
4.58352 9.56629 25.3603
10.8927 13.0688 23.6198
19.811 27.3538 44.9157
26.1468 26.8308 24.6221
12.5829 20.6281 28.7567
2.9347 5.56024 18.8579
27.044 36.9997 49.3184
19.8117 31.8822 59.2728
38.8407 45.5189 51.7662
23.7816 31.0991 37.8799
16.6443 26.2727 39.2077
20.765 28.5961 35.3731
11.0446 22.8685 51.4308
41.8414 56.4264 70.0667
16.5095 19.6828 28.116
38.6396 61.8299 76.208
3.62983 6.47103 18.756
18.5975 40.7937 77.0494
22.6705 21.7271 26.8669
14.8091 22.8503 42.8492
24.789 33.1158 47.4869
17.0298 17.8424 22.8812
21.207 28.8715 41.876
36.38 52.28 57.7359
2.1905 5.82097 18.4662
18.3226 25.4055 37.1075
24.3411 36.4543 45.3896
12.2567 25.6644 49.5596
11.4238 8.73121 8.76101
18.1084 35.7465 57.6981
15 14.9387 15.7991
9.93799 19.5653 37.9517
16.3036 17.956 14.7764
10.074 25.3136 44.8313
18.3043 31.2469 53.4092
22.4638 32.9262 48.0317
14.5792 22.8848 38.9854
14.4816 19.13 23.5785
2.95463 8.10676 21.0604
10.011 18.035 35.6297
7.68535 11.7208 33.3624
28.8627 34.6852 33.3857
6.49253 16.6414 46.0713
34.6493 44.3995 43.595
14.1211 28.8041 45.7924
7.01546 8.01365 13.6993
14.5963 27.5437 48.6814
21.731 32.0897 38.8977
18.2286 37.3536 62.8323
16.2464 31.0015 55.6651
24.2248 51.7567 101.105
18.0973 9.79179 4.6065
3.92823 5.10046 9.54376
10.2999 27.1332 62.6495
26.5239 36.0213 51.64
10.5601 16.8421 32.151
9.91886 16.9768 42.5137
18.9094 23.3931 44.1603
31.1744 37.4869 34.7155
12.647 21.0562 32.5019
21.9067 34.9195 38.4356
4.81108 11.6782 25.4654
12.3414 18.7309 27.6264
26.6481 53.3938 75.535
6.68637 12.0973 32.9668
21.9865 33.6775 43.4418
7.82568 18.0828 42.0599
19.568 31.4719 45.0199
4.78259 6.38988 15.5044
13.7625 26.8575 43.185
9.33771 14.6362 24.701
8.11862 10.5876 12.5439
1.53872 4.34356 11.2587
10.0151 20.2765 32.5526
5.15679 9.81512 17.497
6.97488 19.0587 42.3321
7.74029 14.8318 38.9646
11.9021 10.2919 12.7468
9.14659 19.8394 42.145
15.9713 18.7074 20.0625
9.0648 16.7126 23.2748
6.05571 20.1242 53.2786
15.7517 19.2685 29.1105
12.1142 20.8715 37.2713
12.1874 17.2519 24.7429
10.322 25.4237 53.4892
7.35014 4.02042 7.67151
4.57277 3.11616 15.4798
41.3729 89.0242 152.941
21.7732 24.0336 27.3835
11.7873 28.0687 58.1749
16.6933 18.0665 11.469
13.1136 38.9956 75.1752
10.9615 17.9351 29.372
3.34161 12.0232 46.643
24.8771 39.8147 61.7972
12.5339 22.9751 51.7145
19.8844 31.3046 48.4904
11.883 15.1127 22.481
10.69 18.0722 22.5647
4.94093 13.8993 35.7032
7.75954 10.6213 22.8612
12.5443 19.5686 28.6721
10.3185 23.1384 49.8759
17.1014 28.1774 41.6922
11.2205 29.5693 70.613
19.233 30.5865 64.6144
29.8006 38.6626 32.738
13.394 36.4632 62.3003
7.87377 14.4505 23.8602
2.75485 8.70544 23.8324
4.12171 5.20962 13.556
8.39645 15.1423 25.0009
10.7804 23.4566 44.2816
12.559 29.3861 69.5725
21.3282 30.026 40.8358
15.0973 30.306 45.5034
5.47561 13.1289 33.6743
13.8008 24.9452 39.196
9.69464 21.6382 34.8802
8.06601 20.9124 39.986
4.71236 19.3205 62.6698
13.0268 20.3709 40.6087
7.67421 12.6945 36.9384
10.5947 9.79896 9.92024
12.2652 27.0881 46.4256
6.59926 13.5752 43.2972
24.7304 47.2034 64.7798
1.90707 7.93743 39.6933
16.3261 27.4747 35.2825
4.42973 12.2696 36.6328
12.5025 21.0167 36.2032
13.5575 26.6971 45.2648
7.1777 15.1019 30.5799
9.37632 26.5178 66.0869
17.5205 33.5554 62.7709
9.44976 12.5713 19.8649
4.8199 14.7094 42.6546
12.0669 28.0577 66.2806
8.4589 5.8639 18.1344
18.3745 45.6164 100.68
23.2516 28.8397 23.4648
5.05534 13.4213 30.4362
13.6162 26.8103 36.8183
3.91567 12.3489 34.5949
13.3852 25.963 41.4791
7.6915 25.05 72.2415
19.512 31.9073 50.2127
9.28541 15.3581 23.7454
9.44099 31.1396 82.5003
23.0612 41.5752 71.9707
12.7555 20.5873 28.8128
4.41544 15.0262 37.8961
7.84515 18.8304 41.3226
3.98264 4.84414 10.5076
4.37894 13.7951 42.4718
12.3633 26.285 51.8815
7.39694 9.92936 15.7887
8.02785 31.6952 94.6368
17.8977 19.1731 17.9405
3.87556 13.9565 42.5989
10.4655 18.1705 38.3761
9.67506 19.1262 43.2213
7.67775 8.79109 19.3488
9.10661 13.4809 18.1787
7.37079 18.4986 50.4089
19.1468 37.0867 57.0773
9.00401 25.2889 67.7964
15.4207 27.4926 34.9027
4.91818 23.7195 79.5096
14.6606 17.1245 27.6434
8.04679 14.707 28.7918
7.10799 14.9666 31.0432
7.565 10.3104 9.68981
3.84011 8.71129 10.3581
3.1579 10.547 19.6924
2.238 9.20806 34.3599
8.04522 12.6228 15.5382
5.18729 16.9545 42.8818
8.86825 19.1758 43.6396
10.2374 22.544 48.2382
11.185 24.8598 53.2974
11.7541 27.7246 63.5989
10.8411 20.6403 38.172
4.78388 7.90606 22.9083
7.347 16.3862 52.4599
29.6112 79.4284 156.475
11.5451 11.3922 27.3903
11.0506 28.7481 68.3736
11.9317 27.4484 75.166
18.1516 28.3082 34.7071
3.20624 10.0188 37.8137
13.4259 29.2832 43.2054
1.48755 10.2587 63.6808
18.9718 30.7845 40.1565
6.55799 11.3804 12.9365
8.19571 31.3597 78.8973
9.69762 15.2451 25.787
4.71096 11.6467 35.755
13.1779 31.8173 52.0352
9.08058 28.243 72.2599
7.9051 14.7806 43.6374
8.38394 12.9445 37.822
17.8088 42.4068 63.6105
5.73272 14.6069 27.9468
3.87242 11.9052 24.728
1.8643 8.22177 32.968
6.24609 16.2947 51.3873
11.5815 19.8404 35.2731
7.26738 18.6069 39.0655
5.04125 13.3801 38.7063
8.34118 16.8638 32.3249
4.48283 8.31564 18.2802
5.71197 13.6873 28.4594
8.99007 27.3644 57.3876
6.38222 17.9165 39.4477
3.28011 12.7472 49.7743
5.918 8.75072 27.1602
5.35109 6.87656 18.9309
9.74221 25.4066 51.6348
5.24464 8.11515 17.1348
5.07957 18.6044 47.3713
3.5596 3.59167 15.9285
8.72548 30.1706 87.6564
10.4797 13.2528 23.514
4.65329 10.2626 22.0922
3.42362 6.88694 17.1318
3.81813 14.2287 57.66
9.61145 10.1475 7.82231
2.82096 6.76656 15.8292
7.61951 27.5133 79.6527
10.8836 11.9314 16.9662
10.2644 28.8833 53.1285
3.95073 8.75265 24.3809
4.2376 10.6631 44.0953
16.394 39.0822 62.6938
4.13624 14.8376 58.3896
8.10628 8.37323 25.6697
12.4534 24.6424 26.7245
7.78248 24.0327 41.807
5.40774 19.9577 38.8316
2.21268 9.0768 36.4126
13.8334 49.8504 114.534
5.43251 5.02423 32.207
8.57338 20.8758 57.7892
6.81877 6.85909 11.5652
6.86021 17.5959 26.0451
4.88707 28.0514 94.2448
12.7887 29.2277 94.845
14.7868 21.4163 33.9491
7.12276 13.4742 16.3474
3.51432 13.1408 34.2143
2.46853 1.59816 8.83073
6.16702 15.6771 37.4422
15.7218 56.1542 129.991
11.4069 19.8908 35.9703
3.65565 11.3164 21.9139
2.1455 21.7204 98.6251
10.1358 10.7071 34.7829
10.703 22.2853 37.4133
7.2998 22.4012 49.3501
5.64614 11.1674 30.1222
4.87167 9.1541 17.9947
7.72309 28.3389 60.2746
4.4461 12.35 48.439
8.63439 17.2341 24.4778
3.34158 12.1591 29.9255
4.08675 13.6304 31.9103
2.69075 8.07921 30.1114
7.97631 29.2195 75.399
7.72274 23.76 62.7523
4.96946 12.5451 42.4403
3.89947 13.2822 77.4862
13.2458 19.1636 26.4168
4.88554 14.9965 37.4254
4.55596 17.3118 71.1493
10.488 15.4072 45.0035
14.0178 39.6264 96.2003
12.1437 31.6703 108.687
21.3769 43.2901 63.689
6.48973 16.2248 35.2087
7.32716 25.8571 58.8521
3.63391 8.73114 33.7253
6.17149 17.475 53.3645
16.1955 60.5659 174.049
18.0143 34.6913 54.1835
2.66677 15.2568 79.1791
10.3851 20.0401 60.9802
9.78082 20.8911 54.1173
8.26675 20.2314 51.4446
6.77147 16.1362 43.5422
6.06746 15.3526 41.283
6.72133 19.0714 59.5696
8.49024 18.8824 39.3397
5.27063 12.2185 28.7555
8.33914 34.3216 84.436
3.87996 6.0459 42.5419
7.04897 10.75 15.7004
2.65437 6.26841 19.2058
4.13458 18.3019 72.8437
10.8367 24.3326 46.2926
5.0072 23.1827 99.6859
12.0027 18.9619 67.4397
15.0578 29.5628 26.5896
0.980068 4.15767 21.6864
6.79771 21.5172 56.401
9.74712 28.5788 71.5212
6.74179 13.9709 44.9793
8.62434 21.7671 37.3502
2.92635 10.2187 41.4998
5.94484 10.7507 10.4827
1.24847 11.2686 60.3999
8.41141 11.4987 28.9499
9.76772 28.5676 50.7724
4.27383 16.2852 64.8333
10.3835 19.1166 22.0828
4.22397 16.3974 34.3686
2.37938 9.69281 32.537
2.91758 4.48209 16.9443
5.27518 15.8455 26.13
2.59397 8.67773 18.4451
1.99678 5.92359 12.2086
1.56253 11.053 42.4994
4.66659 8.79647 19.0307
2.66414 11.2554 52.9087
9.22859 20.8815 31.9353
4.16981 20.1667 62.3328
5.47582 10.4066 44.4065
8.57759 21.3011 34.0124
4.00507 20.765 72.2877
7.82177 14.183 24.2078
3.14595 14.9958 60.1255
7.97432 17.5515 33.3015
3.17935 7.86182 17.3898
3.21015 12.6226 23.338
1.18483 9.61598 58.9895
8.99477 20.1786 50.3111
9.1442 34.0893 87.4277
8.0526 24.2265 76.7186
8.87226 18.8172 31.8764
0.757598 1.5034 14.114
2.49829 9.33368 35.9129
3.87617 8.04503 25.4742
2.87395 7.21695 32.5678
7.55752 22.2382 57.3552
7.55626 22.7409 56.2684
7.6361 34.6106 135.005
14.7414 27.6117 36.1931
1.62388 6.42771 35.2647
5.3531 12.1333 21.1074
2.57647 13.4016 45.915
3.59181 6.25328 32.3192
6.47085 14.5662 19.1334
3.35723 20.0783 74.5962
7.89984 17.0212 36.1488
3.29887 14.8642 59.9239
6.67233 9.9301 23.9597
6.43398 26.3098 67.7085
5.33804 11.7599 43.5377
7.74919 23.1975 48.4224
3.79078 11.9992 30.3761
3.25065 16.0883 66.9858
6.3286 8.66854 13.9674
2.28252 12.7935 50.6154
5.31228 11.1645 51.3644
8.42478 20.4322 28.8482
3.32281 16.6822 47.5624
3.84925 11.3218 38.1861
3.15035 4.897 24.1024
4.29763 10.6961 26.4872
3.49128 8.52956 25.1383
4.07359 12.9801 25.224
1.19384 3.8554 31.1646
5.16241 8.40977 21.7889
12.1751 64.4632 152.668
3.54061 27.4876 353.022
62.5168 157.986 226.505
10.8603 23.6739 50.5313
10.02 54.2943 139.785
5.40633 14.9592 92.2409
10.65 27.5336 58.1413
2.30848 6.0098 55.3362
6.63651 21.2466 105.84
13.693 18.9155 8.56359
2.60431 12.4613 25.5908
1.62773 8.11361 45.6385
7.4822 20.6491 46.6892
5.76985 20.052 40.2564
3.55162 19.3344 61.2032
3.33165 4.23323 9.46516
1.48752 12.4856 48.6144
3.0049 5.85271 41.9373
6.88793 21.4739 61.6684
4.87005 17.3279 89.4385
9.76324 12.4134 20.0784
5.76754 22.9335 49.8095
3.70763 11.784 37.1919
3.88408 12.6365 37.011
4.81068 20.1752 57.6448
5.73262 20.1399 55.2474
3.8284 11.6357 64.4327
9.12679 24.0712 45.1131
3.43889 17.3898 54.8548
3.20912 9.57402 66.0977
7.68793 12.3066 24.8487
3.54446 8.2186 9.1797
2.50789 23.139 100.199
7.92941 12.8387 25.0488
1.92372 5.51358 42.1886
6.20633 18.6067 52.3375
4.75193 9.52021 28.0209
5.01128 22.084 100.267
11.5486 24.5065 30.3473
3.82534 22.216 73.4151
5.25506 10.5772 33.731
3.91832 13.3601 41.4346
4.55692 18.5667 68.5334
6.88872 19.0424 47.6055
4.29447 13.5485 47.3761
5.24738 14.6346 55.3932
7.3949 22.1009 62.8485
8.00682 25.8028 50.1805
2.77228 14.4431 64.3079
5.2667 13.2932 46.5109
3.49644 9.82271 60.2862
7.95175 21.1948 46.0746
5.53592 24.6851 76.6667
4.48729 10.029 54.2178
5.73597 12.5267 62.2699
8.59934 17.7728 29.6998
5.70874 22.5587 35.9084
3.21686 13.4759 29.2579
4.37858 21.2184 38.4212
0.953292 7.46878 36.4237
3.61944 17.171 67.8976
4.69694 11.61 60.0006
6.36389 14.1235 35.0785
6.78324 35.9726 96.7738
6.17466 11.7733 24.9825
1.74042 7.21986 17.2793
1.99067 21.2219 112.679
9.84005 14.4595 11.3407
0.737991 9.35815 54.8682
4.32117 6.84448 35.9529
5.62251 14.8803 24.1787
1.6604 10.953 61.0837
7.0548 18.7588 33.6214
2.15244 11.5152 69.3984
8.32651 24.0134 63.27
5.08907 13.7378 30.4762
2.40995 6.50957 16.6323
1.1385 4.88723 45.6954
6.52827 21.2457 42.762
3.03832 10.9711 26.955
2.2883 10.5552 49.0102
4.2136 6.32079 15.0499
3.56853 21.8129 72.6513
4.86003 7.4917 2.21065
0.976407 14.4795 60.8839
4.72511 13.3827 50.3905
5.4146 20.0558 60.4249
4.87045 17.2476 67.3434
6.06673 13.8539 45.4855
4.99232 18.7367 45.786
3.50781 14.527 53.4212
4.20317 11.661 44.6093
3.39378 5.77315 20.8391
2.73638 11.4718 36.8078
3.27174 8.17047 22.4383
1.94084 7.34715 28.6692
2.92928 6.86619 12.3698
0.831732 3.52182 16.2061
1.77467 4.81659 21.2147
2.92107 13.5962 49.0715
5.05442 15.2273 38.2243
3.41147 15.0774 41.0961
2.1625 3.94686 31.8886
5.6283 34.5342 107.142
6.23796 8.68254 37.1165
3.95379 8.36972 30.0248
4.69114 23.6975 94.3207
8.92708 22.5905 39.3265
2.84645 14.3936 55.0222
3.56463 4.67774 24.564
4.85313 24.4219 76.6921
7.05576 22.5887 45.8957
2.77943 9.99208 27.4023
1.60813 5.69319 19.6978
2.26147 17.0677 54.7357
2.7733 13.8443 110.532
9.65361 14.2647 18.6482
2.70933 9.41654 15.8197
1.77555 9.66871 27.043
2.66233 13.0458 30.8587
1.2147 9.17579 65.3783
5.09473 6.27692 24.3227
3.91734 13.603 30.5652
2.96501 16.6304 76.963
7.61362 27.3525 61.4986
3.25803 8.73091 28.7092
2.22314 5.71619 9.4979
0.439945 3.9016 22.5407
1.99764 4.97517 20.0832
2.60786 12.8551 35.8823
2.5256 10.3275 39.3541
2.46876 9.61751 49.9305
4.34043 11.4724 36.8521
3.94725 27.8633 128.681
8.91446 13.5528 66.623
8.00217 27.6915 52.9085
2.19406 4.96251 55.665
5.55083 12.1201 36.0318
4.22847 11.8997 21.5624
2.78744 10.6049 22.1803
2.37343 13.4259 32.5612
2.99616 15.5644 50.6773
2.98345 7.83304 25.2765
1.94682 7.92292 21.3568
1.84459 12.604 35.8546
1.51362 3.5368 17.0735
0.7353 5.75823 67.3552
6.22305 14.5253 37.8114
3.22224 9.56161 27.5479
1.98886 6.02739 23.6252
2.78846 14.4384 52.9813
4.95814 15.3695 22.993
0.851528 5.03032 19.7349
1.44267 12.2952 65.4562
4.04868 5.30258 45.3186
5.322 14.5383 34.5228
3.30562 11.9986 39.9758
3.58107 13.5548 28.7464
2.23656 11.4837 53.0098
4.40394 12.1789 37.4904
3.39474 12.8499 24.9928
2.25099 22.3063 109.46
7.85754 12.2948 32.3713
2.97489 7.91278 14.1933
1.80965 13.1048 48.4072
4.98763 28.5189 90.4547
4.18351 7.83377 44.8701
2.72443 2.28063 21.4259
2.47108 8.39429 47.7181
4.51441 13.9351 42.5991
4.34996 21.2647 55.5392
3.80024 10.5031 27.0862
2.03641 8.1811 18.2178
1.95404 24.8251 129.826
9.59631 20.6593 52.4288
3.58621 6.65191 23.7492
2.28538 8.67045 40.9325
4.19273 14.9285 25.8201
1.29513 8.12971 51.3488
4.7197 17.1919 46.8799
2.87749 5.99876 13.2887
1.03519 6.18317 41.4949
3.91153 15.0107 42.572
2.57225 8.28793 32.9951
2.77569 11.9404 35.0196
1.9931 1.78233 14.8617
1.99003 9.59635 32.9589
2.92268 13.0949 32.9085
1.50564 12.982 122.361
9.86411 23.6702 48.1135
4.01571 12.9915 24.3379
1.60018 5.18277 16.8094
1.50479 8.60749 21.6829
1.21899 6.84271 51.4268
4.52469 12.2439 13.7497
1.49115 19.1242 104.969
8.08695 18.7612 15.0337
0.525684 9.05119 53.3246
4.1004 14.6306 103.882
9.95856 42.4104 83.4953
4.44524 16.6066 73.3072
5.17456 15.2966 53.7009
3.72023 12.3049 28.5795
0.960764 6.89667 69.4982
5.06562 10.1818 25.7442
1.82363 4.13516 18.1561
1.57732 5.0819 18.8081
1.70418 9.70864 37.0056
2.54046 9.54855 51.668
3.98974 8.07219 14.7779
1.12809 8.40734 48.8804
3.19323 12.3195 63.276
4.17277 7.36411 41.5801
3.32356 5.3496 20.8511
2.31619 8.6643 31.8438
2.64008 7.62095 32.8535
2.76582 7.80589 20.1165
1.9049 10.4321 62.9247
4.99124 12.4689 25.9088
2.39062 11.6645 17.5219
0.950531 8.28804 34.3845
2.37248 8.04969 40.3751
3.00045 7.13304 25.0892
1.96558 16.2443 95.5132
6.9999 12.6126 47.8571
3.75683 6.95167 36.6317
4.23781 16.578 21.9142
2.03082 15.0502 69.1203
5.3051 16.6144 21.825
1.45942 11.9425 42.6846
2.74426 7.87744 21.3506
1.68178 11.7036 47.9465
3.39392 15.2445 41.7619
2.13301 3.55815 52.4636
5.36127 15.9588 19.3001
1.45995 17.4563 81.5757
5.4815 14.6143 23.026
1.07903 8.80118 77.9668
7.49065 41.0892 128.793
6.31231 2.57627 55.3184
5.68368 18.2698 46.791
3.67008 12.2537 36.6873
2.72846 9.6929 69.8875
6.20887 23.6977 78.3602
6.96171 37.2397 76.0072
3.21509 7.2355 32.7912
2.27201 18.7084 82.5246
4.72098 6.24647 33.1982
2.56496 10.0711 74.8555
7.13139 36.7457 91.6206
4.30597 5.57996 45.654
3.21529 6.80325 107.469
10.1109 25.7334 11.4756
1.22724 17.8318 49.018
3.0359 12.9409 67.9604
5.05906 10.8574 30.6554
3.03247 20.869 56.1897
2.96321 8.62461 45.2612
3.3358 16.6828 85.9722
5.75707 15.7572 44.8138
3.53688 20.2058 74.9774
5.38472 20.0339 97.719
6.82163 18.7665 54.2646
3.94382 12.5849 18.6038
0.938239 3.04168 12.2031
0.978799 4.0042 27.3805
3.06377 21.1701 40.8383
1.68609 7.47141 49.9674
3.13634 7.17888 30.9165
2.19632 6.55415 48.4814
4.14122 18.589 49.8524
2.70448 6.14871 15.6057
1.14508 8.75387 52.1521
3.28045 4.55024 12.3398
1.10487 5.751 39.1703
3.04959 9.15124 28.3192
2.4229 11.6557 25.1028
1.70332 9.09839 38.415
2.24342 16.531 127.764
9.14472 22.3458 47.4929
3.54742 18.2518 52.798
3.26403 9.60563 56.9131
5.46336 44.6572 179.199
11.0667 15.4773 11.1666
0.578825 6.99129 40.8555
2.44452 4.00591 13.3194
1.05261 3.58288 29.2909
2.27303 8.89134 38.01
2.92833 7.93719 16.4768
1.36999 8.41439 34.7329
2.42251 12.6158 92.8566
7.18981 24.1245 66.6956
5.04224 30.0891 90.7622
4.72424 11.7034 71.6613
5.45949 18.8602 86.5558
5.86382 16.8867 79.879
6.35655 27.4466 51.3731
3.26887 15.0905 31.311
2.0567 17.1088 79.4702
4.35155 6.82625 33.3882
2.63916 22.9142 105.561
6.7225 10.9357 56.1437
5.23155 30.6175 71.3608
4.57352 22.8316 75.7366
4.59798 14.2178 75.2782
5.03011 13.4972 45.2948
3.27605 8.26454 17.0297
1.26669 14.559 73.3044
4.73587 12.1596 50.1164
3.6001 9.36825 12.3813
0.747715 4.93832 26.7389
2.33239 19.0091 41.0364
1.62913 7.73234 62.8894
3.90366 11.4813 48.2382
2.72768 1.50862 44.2887
4.0812 25.4288 70.1935
4.26025 15.3001 88.6289
5.73555 11.7364 31.9477
2.46416 14.3033 75.4777
5.62611 25.0327 100.39
6.08051 9.44304 26.7792
2.16567 9.40627 25.2125
1.83781 10.0743 26.7363
1.60084 7.78116 51.6028
3.64869 8.98512 17.4005
1.28474 7.90298 25.1419
1.5212 5.87396 28.6995
1.71658 3.04811 47.8496
4.21077 23.3841 35.8268
2.27392 20.5223 75.2452
4.20082 13.6119 45.3221
2.76517 10.5602 46.7962
2.50551 6.47698 44.6804
2.79302 8.12658 41.6951
2.88216 9.35631 41.1185
2.98043 14.0953 41.2594
2.56969 8.79206 50.414
3.90145 24.5026 69.2449
3.6648 3.68495 37.4723
2.79832 10.968 37.4379
2.15993 2.02856 27.4029
2.41061 14.5411 45.4247
2.84352 9.37276 21.0372
1.47913 6.52246 14.4427
0.722873 2.2835 14.9499
0.972625 7.04979 36.8077
2.56542 8.86981 24.735
1.50909 7.47401 34.1629
2.42581 9.57756 47.2178
3.19145 20.6896 93.906
5.99112 16.0311 63.7595
4.216 6.27726 26.895
2.41716 15.0757 78.2209
5.2653 18.4844 52.2248
3.34757 19.8426 70.7519
4.87166 16.9139 47.0978
2.45635 7.41985 59.2577
4.24063 17.9255 25.4434
1.21002 3.63409 17.3803
1.0651 6.84042 66.0939
4.30392 7.3574 24.1805
1.96723 10.9312 77.6878
5.44146 21.903 76.8749
5.51193 22.7272 32.0967
1.63795 14.648 73.8405
4.31774 7.26512 46.6732
2.85495 2.64828 21.9144
1.86708 13.0673 73.4742
4.92728 17.3944 39.6306
2.50025 11.3015 57.8682
3.85303 11.3966 19.5289
1.27878 7.64666 27.7977
1.73623 10.4118 37.9288
2.37509 6.7878 46.2616
3.39461 14.6064 40.5412
2.46797 7.03876 36.3296
2.22982 3.54752 11.5028
1.01561 5.85267 26.5947
1.82946 14.8545 48.0041
2.9037 5.65132 29.9907
2.0753 13.1164 53.1287
3.41093 7.20556 12.3013
0.900289 6.45184 35.3662
2.26187 10.7332 23.9948
1.44884 8.09958 48.6374
2.88008 9.95616 27.3432
1.66411 9.87993 59.4147
3.86369 15.7853 53.8906
2.9296 7.18731 29.0816
1.96956 8.19363 45.5482
2.72269 6.74502 49.7943
3.49092 18.4303 39.8999
2.43592 13.3181 55.348
3.53246 8.01536 54.7486
3.99227 19.3186 53.5932
3.4326 10.2663 21.4188
1.40516 11.5111 39.2685
2.19291 5.33182 14.7916
0.936161 3.39029 26.1597
1.98047 20.2765 54.1498
3.22697 7.33465 30.3325
1.87242 17.3534 107.292
6.84924 16.626 20.9023
1.27058 8.94127 31.6137
1.92516 10.8099 22.8807
1.22629 8.15736 46.0942
2.89754 18.797 143.709
9.32297 18.5013 34.1412
2.16291 4.33816 43.1598
2.9965 9.83103 46.6218
3.17036 22.5218 51.0761
2.94904 6.26125 23.6626
1.43925 4.96089 9.12766
0.629856 2.78914 26.9423
1.83909 9.56544 47.8302
2.8543 4.24457 19.4252
1.54266 8.20037 8.38811
0.579019 8.82862 29.6086
1.71336 13.1624 42.1119
2.65497 4.7245 10.9766
0.716468 7.373 46.8062
2.74147 6.1207 31.7449
2.00891 8.76946 43.0486
2.69635 13.6563 34.7844
1.99728 3.90563 29.6169
1.82379 8.08862 48.1467
3.08511 10.2803 44.1359
2.84003 20.1758 67.6653
3.92084 6.70524 32.7878
2.0858 11.1974 28.6365
1.93366 15.2715 76.3833
4.72262 10.5489 28.9677
2.05935 16.0376 31.6228
1.8144 5.12806 41.017
2.53238 9.89481 58.0222
3.71149 19.0344 54.9357
3.31377 12.1274 35.3928
2.16686 9.49318 15.5497
0.90402 16.2671 89.0767
5.464 9.01964 46.4106
3.08374 8.54022 26.1627
1.60428 6.61696 30.5634
2.03528 6.44095 54.4756
3.27306 4.08108 14.9632
0.974087 4.87743 33.1069
2.14267 7.58389 16.0107
1.12389 10.3202 54.4619
3.38801 6.92017 29.8309
2.08747 11.4034 41.783
2.69333 11.3385 42.7872
2.48245 12.7125 52.3411
3.15931 5.9063 5.68952
0.366179 4.26287 18.0857
1.17873 5.67302 28.4738
1.70158 9.24248 34.8385
2.27737 18.4125 76.132
4.75174 7.03097 59.1565
3.61653 9.18264 30.4267
2.15181 11.0963 15.0532
0.98473 6.03061 27.9609
1.69348 18.3257 82.1508
4.89465 17.4444 55.4776
3.541 16.3887 59.0216
3.74019 9.08902 70.079
4.65264 30.6101 118.492
7.31353 22.7458 50.7288
3.01928 9.73473 67.8533
4.45337 16.0578 76.7089
4.96524 23.4414 81.9794
4.90886 9.99367 18.3908
1.24964 7.60529 64.4832
4.42573 13.9429 50.7457
3.08769 16.6222 57.4287
3.54431 6.88679 16.235
1.22037 5.15517 11.4157
0.700023 11.8418 76.8771
4.84245 19.2813 59.9451
3.84914 8.02763 66.9076
4.19464 13.0499 61.1377
3.72531 11.23 11.8338
0.650029 5.87172 25.2978
1.63153 13.9024 38.4016
2.37374 5.34188 50.1952
3.04176 22.5187 67.7139
4.35018 13.3033 32.9966
1.98544 5.85521 77.6147
5.13353 33.9766 168.966
9.87251 0 0