# pn-170911/RbIIR-52-RbIIR-1280-1959.psd
# Power spectrum* (dif=0,1,2) (really just |FT|^2)
# NOTE: only the first half! (symmetric)
# weeks: 1280-1959
# 3868 clock-days, 34 excluded
# PSD: 1441
603.996 0.0979164 0.0384082
45466.5 1.13188 0.0301931
134089 2.53832 0.0290177
38642.7 1.31269 0.029863
50258.4 3.52776 0.0297598
13688.9 1.18117 0.029906
11026.6 1.48021 0.0297471
6319.29 1.15776 0.0311006
7969.95 2.06463 0.029356
4159.66 1.17846 0.0301551
3581.1 1.30229 0.0301606
2806.94 1.20503 0.030693
2627.28 1.38466 0.031844
2024.16 1.25569 0.0308559
1843.58 1.38864 0.0306742
1583.85 1.31501 0.0312716
1554.67 1.48494 0.0318709
1308.19 1.37555 0.0320745
1201.67 1.46021 0.0317377
1080.36 1.48828 0.0328727
1004.78 1.55877 0.03337
953.457 1.60225 0.0330695
873.644 1.61959 0.0335626
807.794 1.65203 0.0338428
797.055 1.75324 0.0344393
728.351 1.80012 0.0342487
680.839 1.81394 0.035118
648.113 1.90401 0.0363288
622 1.9185 0.0370325
590.233 1.96331 0.0374546
571.607 2.05832 0.0388719
551.029 2.09977 0.0389025
525.023 2.17986 0.0409877
522.361 2.33958 0.0429388
505.495 2.39238 0.043437
496.896 2.49435 0.0446835
478.349 2.51444 0.0444239
456.638 2.59105 0.0475763
455.563 2.74626 0.0500674
444.652 2.8346 0.0506406
423.537 2.80232 0.0508173
412.219 2.89304 0.0542209
413.316 3.05879 0.056625
411.961 3.18958 0.0590941
406.34 3.30904 0.0601845
387.176 3.31096 0.0623036
379.921 3.40074 0.0639272
388.8 3.66201 0.0687719
382.751 3.80754 0.0712556
364.417 3.78461 0.075287
367.016 3.95863 0.0774726
359.023 4.07928 0.0807245
358.438 4.28749 0.085374
368.269 4.46804 0.0892787
350.498 4.45354 0.0931541
351.66 4.65847 0.0996927
337.316 4.6206 0.100519
339.237 4.77058 0.104445
333.839 5.00599 0.109839
340.258 5.18322 0.115805
332.839 5.26873 0.117979
330.759 5.45535 0.128022
329.416 5.57644 0.133561
318.539 5.64893 0.137248
315.944 5.72689 0.142611
312.269 5.90761 0.152801
316.891 6.13044 0.158941
315.626 6.33846 0.166117
306.559 6.31103 0.168292
310.445 6.6132 0.1815
292.997 6.49193 0.181424
304.746 6.92317 0.197927
301.559 7.0685 0.203752
293.572 7.05529 0.211938
296.419 7.35046 0.223576
290.804 7.41359 0.230954
292.055 7.67101 0.242736
291.126 7.82049 0.248335
287.157 7.83034 0.259976
281.943 7.93605 0.265313
278.375 8.09957 0.276464
283.914 8.37906 0.291799
288.589 8.84375 0.312994
277.082 8.64326 0.313444
276.859 8.866 0.326215
273.778 8.95225 0.334293
269.711 9.13906 0.352788
276.378 9.51028 0.372127
259.779 9.13049 0.371157
269.59 9.72414 0.398146
264.124 9.72079 0.397767
276.961 10.4708 0.440271
262.658 10.1571 0.436672
254.308 9.99629 0.438608
255.761 10.2593 0.462894
262.674 10.7419 0.485853
315.947 13.5315 0.616137
262.137 11.1924 0.535569
256.432 11.3569 0.54784
241.9 10.9251 0.539035
251.758 11.5245 0.582171
253.422 11.8581 0.603304
257.165 12.2705 0.6337
251.845 12.2363 0.649207
246.446 12.1982 0.65885
242.479 12.2655 0.679041
243.904 12.5202 0.699315
236.347 12.4748 0.709829
241.276 12.895 0.7395
240.585 13.1629 0.778405
241.174 13.3143 0.796407
233.81 13.2968 0.807769
229.488 13.2671 0.821915
230.82 13.6515 0.852822
249.515 14.9319 0.940301
233.662 14.2454 0.929295
240.003 14.8849 0.983683
237.022 14.8958 0.992929
226.063 14.5447 0.991934
230.16 15.0615 1.045
233.08 15.4825 1.08556
233.207 15.6268 1.10945
225.283 15.3448 1.11873
220.106 15.4959 1.1362
225.354 16.037 1.1945
224.646 16.2176 1.23904
231.607 16.9413 1.30611
221.606 16.3036 1.27036
222.518 16.7218 1.32399
220.618 16.9525 1.35962
208.564 16.1646 1.32309
219.05 17.3806 1.44303
215.895 17.4502 1.47705
211.935 17.3143 1.4738
210.564 17.3906 1.50846
207.922 17.6425 1.54912
210.335 18.0885 1.60841
201.281 17.4221 1.57665
203.882 17.9434 1.64446
202.876 18.0985 1.68369
206.928 18.6865 1.75513
197.932 18.146 1.72978
201.552 18.7071 1.821
206.264 19.5479 1.92593
211.674 20.1188 1.98962
198.969 19.1588 1.92143
198.159 19.5273 1.99699
201.22 20.146 2.0886
199.803 20.1768 2.11405
197.473 20.2663 2.14717
195.316 20.3419 2.19006
201.413 21.0983 2.30471
190.155 20.1995 2.22445
191.854 20.9964 2.36357
190.378 20.8472 2.37555
194.349 21.6824 2.50205
195.627 21.9397 2.53743
186.216 21.3286 2.51433
188.942 21.6403 2.56723
190.344 22.2402 2.6873
185.843 21.9 2.67264
178.977 21.7126 2.69437
181.703 21.9646 2.7213
182.991 22.4726 2.84638
181.31 22.5988 2.89849
183.985 23.1312 2.98609
178.805 22.8627 3.00211
184.212 23.8723 3.15353
181.583 23.6893 3.1894
179.154 23.6137 3.1794
177.228 23.7238 3.25627
178.641 23.9403 3.30611
176.106 24.0659 3.38414
172.661 23.9523 3.41783
172.618 24.1227 3.44771
171.349 24.3248 3.53274
169.467 24.2867 3.55571
171.523 24.8419 3.69929
173.447 25.1673 3.75905
167.245 24.9045 3.79096
170.552 25.5649 3.90459
161.747 24.4757 3.79573
165.019 25.1847 3.94384
170.612 26.4586 4.20685
162.694 25.3374 4.06178
172.015 27.3077 4.41992
163.716 25.9315 4.21882
163.913 26.3814 4.35838
165.784 26.8935 4.47882
162.644 26.8872 4.55485
160.447 26.682 4.53972
157.064 26.8046 4.66072
196.269 33.3503 5.7547
161.041 27.5831 4.83039
156.273 27.137 4.81228
158.938 27.9894 5.02182
157.771 27.7918 5.01111
154.083 27.6587 5.05947
154.178 27.9741 5.21495
156.172 28.3933 5.30493
152.176 27.9318 5.23457
146.654 27.2066 5.17006
150.97 28.5339 5.50385
153.261 28.9121 5.59148
149.517 28.7219 5.62144
150.793 29.3611 5.82217
150.461 29.3629 5.87386
144.239 28.4092 5.73249
148.238 29.4577 5.97705
146.947 29.641 6.06542
145.504 29.5074 6.0857
143.732 29.6395 6.21003
140.902 29.2779 6.19611
139.728 29.266 6.25033
145.609 30.7859 6.62669
143.941 30.8585 6.76433
140.218 29.9603 6.5209
138.632 30.1216 6.6864
138.05 30.2419 6.75239
140.342 30.9006 6.94124
135.767 30.1701 6.84409
139.383 31.13 7.11221
139.225 31.4347 7.25386
133.965 30.5511 7.1183
134.097 31.0972 7.37019
134.955 31.4153 7.46842
133.413 31.377 7.52733
131.733 31.1444 7.52398
134.507 32.1064 7.80501
133.615 32.1188 7.85403
131.877 31.9563 7.91291
134.563 32.9033 8.20753
129.734 32.2749 8.15194
132.046 33.0047 8.41312
129.672 32.4529 8.2879
128.24 32.531 8.40611
124.504 31.7818 8.25088
125.1 32.2401 8.47489
125.482 32.7725 8.70152
129.038 33.8901 9.03367
126.301 33.3816 8.93837
124.648 32.9091 8.85795
119.482 32.2619 8.88638
122.392 33.2158 9.1943
124.649 33.8648 9.36905
125.244 34.602 9.69858
120.813 33.5361 9.45904
122.784 34.3346 9.77829
122.654 34.4088 9.8841
120.018 33.9181 9.77586
120.16 34.2166 9.91947
119.321 34.4852 10.1231
117.186 34.0091 10.0575
120.141 35.1171 10.416
117.116 34.5727 10.3987
119.318 35.3546 10.652
114.858 34.4339 10.4903
114.998 34.7853 10.6621
114.273 34.4957 10.6313
112.583 34.7485 10.8861
114.643 35.0149 10.9173
115.363 36.1169 11.4692
110.57 34.6462 11.0473
107.931 34.1889 11.0201
113.888 36.1215 11.6242
108.402 34.85 11.3305
110.156 35.8349 11.8201
109.758 35.6614 11.7453
106.287 35.1151 11.7932
109.554 36.1141 12.0867
105.447 34.9248 11.8006
107.168 35.9852 12.232
105.874 35.5472 12.1719
106.234 36.2874 12.5021
106.62 36.4218 12.6387
104.329 36.1436 12.7539
103.127 35.7541 12.5561
104.096 36.2073 12.7966
103.537 36.4039 13.0168
103.735 36.8337 13.2681
104.344 37.3305 13.5005
102.452 36.8779 13.4863
103.19 37.3712 13.7114
100.796 36.6759 13.548
97.9218 36.123 13.5277
100.16 37.1657 14.0043
99.4428 36.9662 13.9265
98.5956 37.3007 14.4582
126.767 47.7352 17.9129
99.2812 37.7167 14.5306
97.9209 37.587 14.6799
98.8596 37.9715 14.7674
94.6105 36.5666 14.4038
96.5274 37.7108 14.8976
94.4264 37.3233 14.9633
92.1367 36.5493 14.6736
93.5785 36.76 14.7426
95.552 38.3949 15.529
91.8026 36.9971 15.0745
92.7327 37.8852 15.7178
93.5637 38.3903 15.9275
92.5239 37.8915 15.7999
93.4893 38.7214 16.2526
91.5286 37.9187 15.8926
90.4198 37.8599 16.1194
90.1171 38.1984 16.3644
90.835 38.4893 16.5253
88.8649 37.8641 16.3812
90.6305 38.758 16.816
86.7996 37.5763 16.4825
88.8723 38.5488 17.0098
87.646 38.1993 16.8508
86.1257 38.2247 17.2458
86.9441 38.5248 17.2874
88.6384 39.5046 17.865
85.8499 38.0667 17.1787
84.2748 38.1688 17.563
87.5573 39.3776 17.977
85.0219 38.8414 18.0499
84.9626 38.8529 18.0465
84.2055 38.6279 18.0777
82.5938 38.0658 17.7799
83.4295 39.4351 18.7651
82.2191 38.7431 18.5988
83.8342 39.4912 18.8084
80.4276 38.6544 18.703
82.7348 39.7136 19.2556
80.849 39.4907 19.5123
82.7641 39.9248 19.5891
79.7889 38.7105 19.1497
81.6788 40.1823 19.9578
80.7259 39.707 19.7184
78.4689 38.6865 19.4192
78.4211 38.906 19.6539
78.81 39.3757 19.9775
79.1605 40.2416 20.6846
76.9577 39.3388 20.3882
78.9478 39.9745 20.5494
76.2578 39.2296 20.3529
74.7384 38.7302 20.3456
75.6857 39.4595 20.7445
75.9948 39.5913 20.8923
74.5112 39.2884 21.0961
77.3014 40.9229 21.8356
73.0946 38.7795 20.8783
76.4797 40.6992 21.966
74.8959 40.4457 22.0493
73.7133 39.5955 21.6567
72.0868 39.2097 21.6711
72.2042 39.3335 21.7737
73.2044 40.2999 22.5065
72.0451 39.6796 22.3043
74.7206 41.4569 23.1832
71.0546 39.5352 22.3152
70.3699 39.2843 22.2429
71.6296 40.3268 22.9755
71.8076 40.769 23.364
71.8963 40.9274 23.6827
68.1182 38.9217 22.7108
69.5412 39.9039 23.2871
69.5778 40.5452 23.9322
70.0811 40.3144 23.628
68.7941 40.4479 23.8911
68.4227 40.1286 23.8255
67.4321 39.728 23.8378
69.2194 40.7395 24.3162
66.2245 39.838 24.1441
66.5205 40.1766 24.5756
67.4978 40.7401 24.9742
65.8525 39.628 24.3053
65.9976 39.911 24.4266
66.5054 41.1198 25.6226
64.1606 39.7594 24.9755
65.9295 40.5616 25.3167
65.7861 40.9782 25.8809
65.3502 40.7548 25.747
63.3252 39.7194 25.3923
63.2156 39.9588 25.6083
63.0479 40.0531 25.8603
63.7931 40.7113 26.3114
63.1095 40.5831 26.3538
62.7766 40.2352 26.1532
60.6421 39.5165 26.1316
62.3149 41.3109 28.1257
80.1674 51.4022 32.6668
60.8311 40.3007 27.1308
61.8733 40.8971 27.5491
62.3794 41.3042 27.6585
62.4095 41.2033 27.5471
59.2995 40.0389 27.4799
60.1453 40.426 27.5843
60.5506 41.1568 28.3343
61.6793 41.4415 28.2971
60.2022 41.009 28.2487
58.9445 40.7037 28.4609
58.1288 39.9446 27.9741
60.2132 41.4954 28.9096
58.7991 40.89 28.8742
57.4652 40.1008 28.4283
58.0615 40.8538 29.097
57.9822 40.8205 29.1921
56.7283 40.1368 28.8056
57.75 41.069 29.4023
54.0519 39.0996 28.7205
56.0233 40.1209 29.3179
56.0346 40.38 29.5095
55.8203 40.4111 29.7357
55.9032 40.5202 29.7167
56.0365 41.088 30.5194
55.39 40.6872 30.2667
53.4154 39.3803 29.4693
54.0725 40.3209 30.2716
53.6523 40.2173 30.607
53.9941 40.0968 30.1969
54.274 40.9072 31.1415
53.6778 40.8194 31.4069
54.0352 41.2577 31.9895
54.3575 40.9776 31.4293
53.8867 41.0336 31.5848
52.3486 40.8168 32.1217
51.9081 40.1094 31.6584
52.2702 40.3271 31.7539
51.7917 40.3498 31.8803
52.3814 40.9568 32.3201
51.6311 40.7687 32.6653
51.959 41.0876 33.0013
53.1835 41.5946 32.8899
50.2385 40.1003 32.3147
49.4477 39.8146 32.4371
50.9423 41.0126 33.3643
50.15 40.3459 32.8967
49.75 40.4674 33.185
49.3554 40.2792 33.4058
48.1102 39.0729 32.3828
48.7641 39.9868 33.2128
48.6861 40.44 34.0152
49.3811 40.4309 33.4902
47.2115 39.3953 33.2794
47.5966 39.9896 33.9952
49.2939 41.3308 35.0444
47.2243 39.9462 34.3988
47.6002 40.072 34.3348
47.5889 40.0326 34.1791
47.4461 40.5696 35.3144
48.9297 41.9077 36.0624
46.6229 40.4629 35.6164
47.5666 40.6642 35.248
45.8911 39.9924 35.4001
46.9616 41.0062 36.1302
46.457 40.8055 36.4276
47.7905 41.6724 36.8778
45.7618 40.1645 35.8908
45.7141 40.2599 36.0004
46.3417 40.9004 36.4994
44.4575 40.1037 36.6592
45.889 40.9672 36.9269
44.0276 39.8018 36.5693
44.6713 40.3404 36.9988
44.9756 40.7164 37.5329
45.087 40.519 37.1108
45.3192 41.5841 38.5383
44.1734 40.0592 37.0658
44.3118 40.7228 37.8379
44.4999 41.2858 38.6114
43.4665 40.5706 38.3962
44.2663 41.2486 38.7878
43.2069 40.2892 38.1264
43.9639 41.6301 39.998
43.5617 40.7358 38.7841
42.9651 40.4027 38.5387
41.5663 39.6477 38.2265
41.7753 39.903 38.6059
41.8226 39.7935 38.1645
41.4707 40.3669 39.6913
42.7635 41.1979 40.2554
41.3497 40.031 39.5025
40.3388 39.0463 38.5351
40.9569 39.9998 39.6363
40.7181 39.8555 39.7116
39.3554 39.1211 40.7419
52.7856 51.6127 49.1625
41.345 41.0375 41.5644
40.16 39.7782 39.8576
40.2774 40.5137 40.9879
39.8598 40.4792 41.668
40.8064 40.7663 41.4978
39.8416 40.0777 41.0041
39.7704 39.9112 40.4847
39.0681 39.8513 41.109
39.5871 40.5754 41.9813
39.1581 40.2461 41.8053
39.3108 40.823 42.6145
38.8963 40.0832 41.9828
38.3395 39.5843 41.4311
38.8092 40.2983 42.2835
37.8427 39.83 42.47
39.1786 41.0087 43.5085
37.9421 39.3635 41.3883
37.1103 39.7322 42.9958
37.8968 40.0579 42.9937
37.5088 39.5954 42.6843
37.9451 40.3676 43.3676
36.6346 39.3267 42.9648
37.6372 40.2453 43.4089
35.9894 38.8416 42.4444
36.095 39.4102 43.5581
36.7477 39.8323 43.6192
36.0297 39.2231 43.3753
36.2686 39.9342 44.6906
36.4555 39.6231 43.5592
35.0662 39.0095 44.0745
35.9898 39.6148 44.0703
34.9309 38.622 43.8686
35.9155 39.8246 44.8952
35.733 39.9328 45.1237
35.6781 39.8303 45.0582
34.9757 39.2658 44.6307
34.9444 39.0806 44.2179
34.2255 39.2036 45.2077
34.3808 38.8393 44.5733
33.9139 39.3183 46.1834
34.8679 39.5796 45.6567
34.0436 38.8719 45.0121
33.7621 39.0296 45.3052
33.4371 38.9683 45.9701
33.7608 38.9092 45.664
33.2909 38.9519 46.0536
33.2041 38.6759 45.7885
33.5375 39.5755 47.446
33.847 39.1029 45.9182
31.7185 37.3474 44.9057
32.4179 38.1399 45.8884
33.7491 40.284 48.5492
32.8577 38.5975 46.2915
33.1341 39.7914 48.099
32.5337 38.6346 46.4606
32.5531 39.8331 49.1312
32.3831 38.8133 47.6731
32.2221 38.661 47.5587
32.0258 38.8057 47.7171
32.3335 39.3817 48.6483
31.9047 38.8324 47.8834
31.66 38.797 48.1891
31.1787 38.1643 47.19
30.5183 37.9419 48.121
31.1146 38.0857 47.5956
31.3847 39.311 49.2038
30.8911 38.4633 48.4952
30.6125 37.9147 48.0534
30.8083 38.6858 48.8963
29.3219 36.5524 46.6588
30.1731 38.2173 48.8952
29.8268 37.8376 48.5031
30.0049 38.2294 48.8038
29.1828 37.3163 48.493
28.8816 36.7424 47.8925
29.5665 37.8258 48.8329
29.642 38.1479 49.9354
30.0898 39.0401 50.9333
30.0248 38.829 50.5367
29.2076 38.2873 50.4108
29.2624 38.303 50.651
28.7828 37.6969 50.2393
29.1195 38.222 50.4094
28.0277 37.0772 50.1542
29.1383 38.5461 51.6101
28.7145 37.8923 50.5007
29.0924 39.3331 53.4231
28.5153 37.8656 51.3527
28.2412 37.0803 50.0467
28.8281 38.94 53.1393
28.7651 38.5556 52.3224
27.8373 37.215 51.0145
27.9315 37.2935 50.6109
27.7779 38.4271 53.574
27.9401 38.7413 56.6946
36.3809 48.7347 63.1915
28.8913 39.5026 54.6514
27.8169 38.1515 53.291
28.0678 38.346 52.9308
27.1373 38.0773 54.2419
27.6036 37.8148 52.6257
25.9819 36.2403 52.0317
27.294 37.5584 52.9665
26.673 36.6307 51.5426
26.822 37.1243 52.3394
26.6741 37.3724 53.1384
27.1083 37.8796 53.2632
25.9346 36.9527 53.1882
26.3043 37.4184 53.4966
25.5808 36.6788 53.428
26.141 37.2089 53.2832
25.2288 35.7772 52.0057
25.6815 37.1346 53.9563
25.3857 36.6216 53.6216
25.7918 37.3413 54.9582
25.2315 35.9787 52.7992
25.5675 37.2557 54.9933
25.7656 37.3815 54.9258
24.7112 35.8395 53.0341
25.2084 36.9675 54.454
24.4539 36.0323 54.0814
24.8193 36.4144 54.0926
24.4124 36.2697 54.9134
24.9579 36.1836 53.7312
24.5265 36.3108 54.1846
24.0236 35.9205 54.316
24.5789 36.8487 55.7073
24.0957 35.9362 55.0795
24.1664 35.9192 54.8959
24.8232 36.7406 54.8512
23.6417 35.5738 54.4273
23.6649 35.6515 54.4283
23.8354 36.5172 56.2853
23.5824 35.6673 55.0556
23.3185 35.4935 54.5797
23.3262 35.5867 55.1445
23.5386 35.9652 54.88
22.7686 35.4638 55.9873
23.051 35.4414 55.8494
23.0798 35.04 54.5777
23.2804 36.0139 55.8106
22.5801 35.6839 56.8813
22.9718 35.8264 56.857
23.3149 36.5578 58.2844
23.3169 36.5183 57.6325
22.5241 35.343 56.7302
22.3355 35.0083 55.6112
21.867 34.455 55.6689
22.5098 35.3641 56.2929
22.7002 36.3878 58.2799
22.0157 35.13 57.4961
22.2751 35.2112 57.1048
21.8661 34.7914 56.7194
22.5915 36.1866 58.4157
22.0688 35.355 57.2983
22.4303 36.606 59.8692
21.6886 34.6389 56.7767
21.6647 34.9687 56.6267
20.8406 34.4605 57.7124
22.0182 35.7835 58.8736
21.691 35.8985 59.9725
21.507 34.8795 58.0196
21.2218 34.5379 57.3648
21.2557 34.9659 57.8752
20.1752 33.53 57.3741
21.3932 35.2921 58.561
20.6077 33.9664 57.3225
20.7801 34.5934 58.3479
21.3006 35.4482 58.9862
20.5247 35.0037 60.3298
20.636 34.0566 58.0248
20.6725 34.767 60.0809
21.7862 36.4796 60.7634
20.3372 34.8439 60.6332
20.9747 35.0552 59.8015
20.5564 35.219 61.0572
20.117 33.5291 57.9237
20.5306 35.0848 60.3009
19.9557 34.1695 59.6923
19.8221 33.5491 58.1406
19.7001 33.7762 58.9675
20.1366 34.7932 60.9764
20.1026 34.7746 60.836
19.8291 33.9928 59.5597
19.317 33.713 59.7653
19.765 34.3309 60.721
19.9587 34.4704 60.2524
18.9488 33.7408 61.4257
19.7972 33.946 59.8903
19.1429 33.6195 60.6624
19.6977 35.9593 69.8161
25.9272 43.4881 69.4794
19.4777 35.314 63.3676
19.1793 34.4463 63.0744
19.3134 34.3935 62.3852
19.0493 33.7127 61.5051
19.2587 33.8075 60.3885
18.6447 33.6402 61.978
19.4826 35.0373 63.3114
18.6211 33.6038 62.0844
18.926 33.8841 61.5324
18.644 33.3095 60.5865
18.5883 33.7805 61.9408
18.5647 33.6392 61.5565
17.8735 32.4631 60.2873
18.2733 33.4238 61.887
18.6129 34.0871 63.0492
17.9341 32.7425 61.5304
18.4562 33.8159 62.7539
18.0815 32.9672 61.4816
17.9765 33.0763 61.9139
18.3519 34.0473 63.0461
17.618 32.9698 62.9819
17.7956 32.6911 61.4515
17.5485 32.9102 62.665
17.9477 33.3921 63.1491
17.4862 32.0727 60.8764
17.4813 32.6236 61.7475
17.5221 33.1272 63.8362
17.5467 32.4809 62.0459
17.6766 33.1157 62.0382
17.0937 32.9553 63.3862
17.0667 32.3075 62.3134
17.3117 32.9159 63.1229
17.2663 33.0677 63.9373
16.8497 32.1686 62.6737
16.8689 32.3164 62.8001
16.5168 31.4434 61.7991
16.7783 32.2383 63.1364
17.0656 32.4561 62.4586
16.5406 32.4166 63.8015
16.4927 31.6376 61.6211
16.5412 33.0171 65.825
16.1769 31.1308 63.2994
17.1617 32.4417 62.9598
16.451 32.2196 63.6481
16.6303 32.4247 63.5901
16.3374 32.08 63.4026
16.0114 31.9064 65.4026
17.0767 33.3338 66.3438
16.2818 31.779 64.2257
16.4298 32.3073 65.0756
16.3815 31.9818 63.3527
15.7403 31.1184 62.0866
15.7048 31.8027 64.7526
16.0754 32.1607 65.2893
16.0454 31.9337 64.8827
16.0413 31.7743 63.9554
15.4064 30.8164 62.4867
15.5946 32.032 65.7696
15.6643 31.736 65.5079
15.7209 31.8236 65.4244
15.361 30.5413 62.807
15.1935 30.6016 63.1382
15.0392 30.4666 64.1301
16.0884 32.968 67.1588
15.6234 31.6195 64.8034
15.2078 31.241 65.3204
15.437 31.519 65.4505
15.4942 31.8544 65.8828
14.8818 30.6664 64.2197
14.8327 30.4941 64.0867
14.8677 30.4264 63.3455
14.7467 30.6068 63.4789
14.4434 30.543 66.1082
15.0084 31.0436 65.766
15.0784 31.3326 66.3549
15.173 31.6876 66.3915
14.4891 30.1697 64.772
14.8973 31.337 66.1928
14.4704 30.4836 66.0351
14.5497 30.4966 65.0923
14.284 29.5527 63.6743
14.7788 31.7496 68.2358
14.6682 30.6182 65.6208
14.3897 30.4779 64.9132
14.1635 30.7038 66.0754
13.8124 29.1965 64.1866
14.3874 31.1827 68.0196
14.5552 30.7059 66.8858
14.2796 30.6825 66.6584
13.8922 29.5817 65.3459
14.0317 29.7437 64.6729
14.0705 30.7555 67.1297
13.8412 29.9176 65.8339
13.6837 29.9486 67.3784
14.2242 31.4997 77.3491
18.8049 38.9882 75.5605
13.8358 30.2302 66.6931
13.6997 30.0914 66.7921
13.6628 29.8273 66.2575
13.6321 30.092 67.1957
13.7121 29.7866 65.6795
13.4345 29.9348 66.7902
13.388 29.2756 65.4531
13.3991 29.8122 67.3687
13.4926 29.4904 66.5777
13.5129 29.6903 65.9949
13.2276 29.5589 66.9065
13.0671 28.847 65.8835
13.5383 30.1845 67.1091
12.9657 29.148 66.1183
12.88 28.9324 66.4726
13.0385 29.5528 68.3691
13.2637 29.3268 66.4822
12.9365 29.4132 68.2892
13.1553 29.107 66.4997
13.1269 29.6594 68.5479
13.4192 29.9878 68.0108
12.736 28.7362 65.9271
12.4125 27.9968 66.2276
12.8202 28.7718 65.7283
12.6661 28.7967 66.0215
12.5167 28.7952 67.2988
12.8313 29.1735 67.3172
12.5903 29.1053 67.6956
12.3462 28.3141 67.361
12.7437 29.045 66.6645
12.1465 28.0967 66.7888
12.5145 29.2488 68.8665
12.1589 27.5273 65.5766
12.56 29.2434 68.7728
12.4208 28.0832 64.9057
11.9629 28.3279 68.218
12.3548 28.142 67.0227
12.3577 28.3259 66.1868
12.1432 28.3149 67.412
12.1452 28.2646 66.8161
12.0887 28.437 67.9409
12.0712 28.113 65.9778
11.8879 28.4164 68.4598
11.8459 27.6136 66.1758
11.854 28.0692 67.3303
11.7933 27.6623 66.7251
11.8999 28.1379 66.6502
11.5059 27.7146 67.8887
11.7767 27.8947 67.82
11.9344 28.0979 66.7795
11.7448 28.702 69.6047
11.6789 27.8252 68.5293
11.7372 27.7598 67.4465
11.4976 27.6099 68.4391
11.8546 28.4413 69.0014
11.4507 27.151 66.4011
11.3294 27.0354 66.526
11.6236 28.3647 68.4872
11.3132 27.5353 68.1188
11.6756 28.5821 70.3938
11.4436 27.1559 65.6763
11.0376 27.7611 70.2032
11.4249 27.5362 68.4752
11.2919 27.5829 69.6497
11.5464 27.8909 69.0825
11.657 28.8166 70.6761
11.3109 27.7325 69.7383
11.3175 27.9322 70.8809
11.7603 29.2377 73.451
11.6759 27.7866 68.6501
11.37 28.3149 70.1822
11.1253 27.4583 68.9635
11.0783 27.5767 69.2632
10.7695 26.5328 67.3944
10.8067 26.9504 67.4441
10.6335 27.2827 71.6161
11.3369 27.8782 70.3424
11.2673 28.3385 71.8488
11.0593 27.4411 70.7012
11.112 27.0645 67.3864
10.6561 27.5328 71.3201
10.8964 26.7146 68.1823
10.8494 27.6669 71.2487
10.69 26.3372 67.639
10.7374 27.5796 71.4721
10.9183 27.0348 69.2607
10.8059 27.7847 71.1453
10.7163 27.0243 70.1278
10.7613 27.1068 69.509
10.4422 26.6613 69.1874
10.2331 25.9074 68.4261
10.6902 27.0977 69.5086
10.424 27.1708 70.3848
10.2394 26.6359 71.5319
10.5657 28.5815 86.9232
14.648 34.689 78.3477
10.7386 27.9538 72.3697
10.6223 27.8452 72.8386
10.4615 26.9102 71.3224
10.4227 26.408 68.6838
10.1966 26.6713 69.8676
10.2079 27.2894 72.8566
10.1018 25.2275 67.3008
10.1958 26.6487 70.1345
9.97023 25.9521 68.7794
9.89995 25.6858 68.6196
10.0713 26.6852 70.6916
10.191 26.919 71.1373
9.87027 25.8298 69.2788
9.79575 25.5676 68.4563
9.75545 25.9718 71.0094
10.0533 26.1846 70.1052
9.92225 25.9136 69.6266
9.88352 26.0415 69.5199
9.6671 25.9046 71.2127
10.1668 26.963 71.5247
9.75193 25.9736 71.0551
9.87061 25.9101 70.6214
9.96103 26.3824 71.8133
10.0371 26.3912 70.73
9.79989 26.6408 72.417
9.59751 24.8944 68.1337
9.65165 25.8578 69.7607
9.4958 25.9004 70.535
9.31381 24.6943 68.9929
9.42642 25.0567 68.2795
9.31681 25.3164 69.8084
9.58945 25.7433 70.3725
9.51933 25.427 68.3184
9.16383 25.2475 71.8724
9.73024 25.8495 69.9456
9.28867 25.4519 71.182
9.52306 25.4296 69.3773
9.24037 25.427 69.8822
9.1893 25.1604 70.1325
9.29145 25.387 70.6951
9.32621 25.7316 71.5479
9.23616 25.1885 70.9898
9.22657 24.8284 68.7026
9.04954 25.1845 70.9928
9.22028 24.9901 69.4049
9.02117 24.4629 67.8963
8.80232 24.5336 69.2984
9.03438 25.0067 69.9735
8.87631 24.3952 69.3964
8.95029 24.9177 69.9223
8.89846 24.3555 69.2587
8.91466 24.2923 67.3535
8.57516 24.4886 71.4266
8.95379 24.6251 70.4829
9.08591 25.0163 70.2544
8.98859 25.0004 68.9847
8.61514 24.3869 70.0026
8.70221 24.6199 71.9278
8.99602 24.3881 69.4328
8.99231 25.5257 71.6494
8.67717 24.2955 70.1692
8.705 24.2139 69.8515
8.9259 25.3711 72.3089
8.58678 23.5304 68.8839
8.67347 24.5608 69.439
8.45651 23.9136 69.7495
8.66196 24.5792 70.5794
8.52921 24.2052 69.9436
8.57847 24.434 70.349
8.45306 24.3893 71.876
8.62314 23.9635 69.4629
8.49441 24.0934 68.6972
8.26033 23.692 69.5918
8.31055 23.7799 70.092
8.51619 24.1215 69.3313
8.27767 24.1923 71.7471
8.52768 24.3275 71.4441
8.51553 24.1094 70.4636
8.35966 24.0777 70.8417
8.31261 23.8801 70.5924
8.28344 23.3893 68.0353
8.1234 23.5071 68.8386
8.05013 23.4522 70.2262
8.15143 23.2863 68.1103
8.02185 23.3525 69.7262
8.18123 23.7023 70.4191
8.1529 23.5383 71.2677
8.42774 24.468 70.7389
8.07023 23.3253 69.991
8.2161 24.2862 71.9702
8.15567 23.3863 69.5757
8.16028 23.7146 70.4418
8.14558 23.8886 70.3713
7.88658 23.3123 70.4996
7.97277 24.9063 88.6733
11.1612 30.1825 76.0805
7.92481 23.3836 70.2044
7.93305 23.3048 69.8562
7.86265 23.148 70.1499
7.94917 23.3453 70.1066
7.95708 23.303 68.3717
7.63796 23.2415 71.4343
7.90985 22.8227 69.2118
7.79654 22.77 67.656
7.72439 23.1781 70.1112
7.75922 23.0647 69.9786
7.68527 23.0317 71.3957
8.00283 23.3832 68.9042
7.45802 22.6585 71.0262
7.88422 23.4095 71.9497
7.85955 23.2046 70.6749
7.8347 23.2276 70.1942
7.59848 22.7537 68.9174
7.50748 22.6184 70.3588
7.57014 22.5545 70.1712
7.68608 22.7887 68.1029
7.38104 22.4438 69.212
7.35377 22.296 69.0726
7.56631 23.0013 70.2163
7.50257 23.0113 72.1324
7.65184 22.601 68.9798
7.4114 22.7899 70.7877
7.47924 22.5861 70.5923
7.52898 22.4917 68.5712
7.16597 21.5078 66.4705
7.07035 22.1009 69.7033
7.40387 22.6357 70.9504
7.40676 22.4555 70.6144
7.48607 22.8189 71.792
7.50641 22.4206 69.6028
7.30958 22.4655 71
7.36976 22.1464 69.093
7.33206 22.5425 70.3886
7.30041 22.0921 68.057
6.96249 21.3545 67.6696
7.06632 22.0526 69.2209
7.07324 21.6164 68.8467
7.09285 21.5462 68.1363
7.06404 21.7561 69.3395
7.2031 22.2749 68.993
6.87117 21.1706 68.715
7.23394 22.1552 68.8829
6.99489 21.6419 68.9968
7.08515 21.6929 68.0295
6.98825 22.3775 70.6661
7.08715 22.182 70.8551
7.10416 21.7068 70.0528
7.10745 21.4065 67.7219
6.97664 22.0636 69.4925
6.97024 22.1842 71.4001
7.00246 21.3947 68.4644
6.90324 21.7367 69.3404
6.91556 22.0594 71.5014
6.98913 21.2739 68.4238
6.88355 21.4711 69.0599
6.93246 21.8165 69.1877
6.75193 20.8949 67.0945
6.67365 21.0316 68.7621
6.88638 21.9123 69.9741
6.84173 21.745 70.0571
6.85814 21.2595 67.5143
6.65251 21.5255 70.3864
6.8303 21.4553 69.1621
6.65305 20.5273 68.4438
6.78942 21.2166 67.0936
6.51767 20.9705 68.7831
6.87278 22.0767 70.057
6.61617 21.1058 69.1636
6.7189 21.2353 68.4932
6.56227 20.8653 67.9413
6.48948 20.8391 68.9338
6.64191 20.6479 67.4082
6.42776 20.3972 67.6843
6.60315 21.0861 66.4009
6.3091 20.6925 68.201
6.43225 20.6062 67.8532
6.44847 20.7344 68.3949
6.44807 20.4051 67.7885
6.45081 20.8679 68.8099
6.52509 20.8742 66.832
6.265 20.8438 69.7011
6.42429 20.3785 68.0189
6.40779 20.5185 68.3464
6.39738 20.4068 68.2934
6.40676 20.5279 68.3764
6.43849 20.6531 68.267
6.40198 20.8213 68.4481
6.36381 21.0901 70.4415
6.3985 20.5618 69.6616
6.44107 20.6666 68.9727
6.46313 23.135 95.128
9.40335 27.4032 73.3942
6.42063 21.1218 67.9319
6.16373 20.3166 68.0798
6.17725 19.9491 65.7673
6.08576 20.3994 67.7951
6.11745 20.0539 67.2337
6.14436 20.0498 68.0001
6.18572 19.8906 66.3882
6.04925 20.3206 68.1628
6.0938 20.019 68.8262
6.32226 20.6433 68.1059
6.1302 20.3501 69.2818
6.26374 20.6345 70.0579
6.22222 19.7538 67.8333
6.33188 20.9856 67.8292
5.92382 19.6537 68.7336
6.18984 19.9809 67.5871
6.10555 20.4223 68.7757
6.06497 20.0335 67.6708
5.98805 19.7198 68.3478
6.13906 20.078 68.1747
6.12599 20.4181 69.1679
6.10517 20.194 67.6599
5.98 19.8854 67.4033
6.02073 20.425 68.416
5.87772 19.25 67.6335
6.02746 20.2065 67.9726
5.85772 19.3735 67.6812
6.03669 19.9086 67.0728
5.83303 19.2949 66.0279
5.77692 19.575 66.878
5.87555 19.9687 68.0285
5.86272 19.6336 69.5609
6.10897 20.3105 67.884
5.82025 19.8121 68.6043
5.82166 19.4684 67.3447
5.85652 19.6952 67.7906
5.83137 19.6629 68.2664
5.86267 19.1342 65.8368
5.7488 19.6046 67.9845
5.7829 19.577 66.5845
5.63879 19.0259 65.7911
5.60704 18.9814 66.8849
5.70677 19.1568 68.0379
5.85427 19.3909 65.5429
5.6524 19.7357 68.2318
5.79515 19.5338 67.9309
5.74145 19.4423 67.9661
5.7267 19.1897 66.1312
5.6151 19.3619 67.997
5.73837 19.5053 69.4646
5.86178 19.6792 67.5448
5.6833 19.3373 67.7806
5.70933 19.4867 68.3211
5.74502 19.731 67.1694
5.54407 18.5675 66.6054
5.62874 19.3229 68.1028
5.63649 18.6572 65.559
5.57523 19.5187 67.7786
5.653 19.7016 69.385
5.70798 18.9273 67.6282
5.62795 18.9532 67.9926
5.69782 19.5701 67.8972
5.69252 19.8454 68.5334
5.53206 18.3021 64.9875
5.46663 19.4642 69.308
5.66833 19.4089 67.7467
5.55789 19.122 68.3297
5.62968 19.3389 68.6788
5.61581 19.5291 68.5948
5.61954 19.227 67.9887
5.534 19.2812 68.1194
5.49291 18.7082 66.3976
5.46398 18.9757 67.2342
5.50547 19.4559 70.201
5.56686 18.3544 65.0556
5.35438 18.7942 66.5656
5.37887 18.9671 68.2921
5.48476 18.7952 67.9082
5.52816 19.2474 66.8074
5.36854 19.0448 68.6236
5.47298 18.7539 66.832
5.37402 19.1101 68.5947
5.44874 18.3771 66.0587
5.26135 18.1682 67.185
5.50571 19.5322 68.0081
5.43282 18.6851 68.0213
5.45035 18.9977 69.2072
5.54235 19.462 68.2714
5.34958 18.3269 65.4384
5.24124 18.6934 67.4481
5.3497 18.9351 67.4742
5.34394 19.2166 68.6294
5.35104 19.3524 71.4768
5.52445 19.4683 71.6007
5.60791 21.6538 96.5443
7.83841 24.7109 72.9442
5.53552 19.5726 70.587
5.49998 19.0648 68.0252
5.35011 19.07 67.8217
5.30798 19.282 69.8346
5.35735 18.0685 65.9387
5.21282 18.7865 69.0176
5.38855 18.4426 66.8302
5.26417 18.6218 67.1852
5.20541 18.2733 65.1597
5.07191 18.2944 66.5907
5.12528 18.3612 67.3049
5.22237 18.175 65.8108
5.11536 18.4489 67.3006
5.15917 18.0353 67.5109
5.28572 18.8283 67.1052
5.1691 18.5065 67.7432
5.25349 18.8052 68.2882
5.16793 17.8912 66.1197
5.12655 18.3606 66.7148
5.08085 18.0911 68.0021
5.24752 18.2804 66.6679
5.15068 18.3981 67.8437
5.20945 18.5738 66.374
5.0223 18.0893 68.7601
5.28154 18.275 65.0098
4.98523 18.4348 69.5096
5.20145 18.0355 65.0126
4.95197 18.0031 66.0142
4.96917 17.5378 65.7956
5.02841 18.2615 67.2324
5.11791 18.6842 67.0178
4.97263 17.7124 66.2219
4.95924 17.4973 64.2281
4.84714 18.1169 67.7418
5.04053 17.56 64.8876
4.91893 18.0367 64.8235
4.77623 17.0316 65.2819
4.96608 17.9838 67.0166
5.0549 18.0017 64.4627
4.81434 17.7537 64.502
4.73044 17.5513 67.3366
4.98726 17.761 66.8232
4.99755 17.8871 65.6223
4.8837 17.6471 64.926
4.86047 17.6905 66.43
4.88367 17.4353 66.1747
4.92584 17.6319 65.2361
4.82583 17.2929 65.4795
4.89199 17.8426 66.6912
4.96959 18.1131 66.8654
4.90676 17.7535 65.7761
4.84296 17.7416 66.0745
4.81228 17.4963 66.5851
4.88041 17.4086 65.6483
4.84245 17.0339 63.0975
4.741 17.6056 65.1574
4.76805 17.701 67.2832
4.89566 17.6989 66.6758
4.84543 17.4376 65.6357
4.83618 17.5107 65.2531
4.8599 18.3297 68.112
4.88449 17.6264 65.9431
4.76309 18.0494 79.2876
5.95358 20.8688 67.258
4.81188 17.5262 64.7021
4.66513 17.4001 65.9523
4.78036 17.7382 64.862
4.63433 17.01 65.5757
4.77348 17.5996 67.1344
4.86496 17.7668 66.6521
4.7847 17.377 66.1024
4.73091 16.968 65.0625
4.75718 17.1 63.3549
4.60664 17.0323 64.8111
4.70594 17.5651 65.9646
4.71009 17.0254 65.5409
4.7337 17.6002 66.3727
4.69202 17.1334 66.9967
4.83854 17.5773 64.8704
4.63116 16.9387 63.9951
4.58497 17.1026 64.4877
4.63819 17.5942 67.6338
4.79368 17.2927 65.999
4.71046 17.1518 63.6979
4.52137 17.3081 66.2116
4.69488 16.736 64.0651
4.61856 17.408 65.6378
4.6049 17.2472 67.5111
4.76561 17.3022 66.6741
4.74465 17.3754 63.9903
4.52319 17.1122 65.0984
4.58533 16.5859 63.7077
4.55486 17.6881 65.8719
4.5682 16.6906 64.7561
4.57082 19.5311 95.9815
6.83771 21.4358 65.7669
4.58333 17.5739 65.9338
4.65514 17.3406 65.5641
4.60608 17.2729 64.563
4.53138 17.6236 67.9825
4.74684 17.4561 65.7737
4.56141 16.8553 66.1795
4.68239 17.3483 66.0054
4.57899 16.8868 63.7937
4.45787 16.774 65.5802
4.58088 16.756 64.4175
4.53306 17.2511 66.8682
4.61958 16.595 64.4929
4.55473 17.2289 66.7326
4.63801 17.2646 64.6934
4.48295 16.6998 64.5518
4.49685 16.9497 65.9456
4.61962 16.9966 63.3941
4.41755 16.8685 62.7639
4.30598 16.2577 64.6202
4.48667 16.6141 64.5463
4.46928 16.7157 64.5447
4.49 17.1807 66.1669
4.57753 17.2552 65.9323
4.52034 16.7166 65.3879
4.53446 17.0456 64.234
4.43069 16.8011 66.4373
4.55576 16.6835 64.2016
4.42084 16.8288 66.6472
4.60829 16.9305 65.0615
4.52409 17.1415 64.3671
4.38059 16.5771 64.1639
4.43186 17.2678 65.8074
4.47586 16.523 64.7937
4.44496 16.6097 65.8092
4.51771 17.0335 65.2049
4.44683 17.0854 66.6713
4.52476 17.0243 65.4419
4.40576 16.3981 64.9575
4.44777 16.7812 65.0214
4.45127 16.7987 65.5643
4.4899 16.623 62.7015
4.29014 16.3524 65.1234
4.434 16.4272 62.5745
4.27489 16.3468 65.5914
4.49769 16.6316 63.7837
4.37361 16.8016 63.9992
4.38938 16.326 62.1312
4.23719 16.4935 65.7812
4.41553 16.2378 63.6284
4.33651 16.6626 65.1187
4.42516 16.3313 63.5596
4.34045 16.8773 64.9733
4.35753 16.0355 62.7646
4.28112 16.0991 64.0725
4.34153 16.7322 64.7047
4.3747 16.5728 65.032
4.37876 16.4108 66.0179
4.48837 16.8108 63.2371
4.27837 16.1153 64.3981
4.35851 16.7299 65.4181
4.36575 16.1854 63.258
4.23583 16.5403 65.6969
4.45468 16.5684 63.7808
4.28702 16.0591 63.7801
4.28052 16.3204 64.1699
4.3019 16.5516 64.6112
4.33436 16.1846 64.1721
4.29988 16.4563 63.6746
4.25668 16.1577 63.4562
4.23459 16.2297 62.9466
4.22623 16.0537 62.3651
4.18855 16.5175 65.2057
4.3356 16.3373 64.8061
4.33975 16.2305 62.9178
4.20457 16.4918 65.3862
4.34739 16.1727 62.6682
4.15866 15.801 63.3414
4.23748 16.1229 65.1709
4.36538 16.346 63.0386
4.23394 16.5265 63.9283
4.2508 16.4867 65.3939
4.36536 16.4634 64.4036
4.25118 16.3746 64.1852
4.27298 16.0935 64.0327
4.26904 16.1597 64.1591
4.28269 16.4024 64.9295
4.33756 16.2677 63.7212
4.2667 16.0691 62.4223
4.13259 15.7333 62.4555
4.16302 15.9818 64.6844
4.30773 16.4429 63.5461
4.18743 15.6484 62.0277
4.12625 16.1882 64.4208
4.24722 16.5584 63.4687
4.24019 19.4552 99.0916
6.52435 20.3848 62.575
4.10441 16.0362 63.3793
4.20914 16.3421 62.6253
4.16845 16.09 63.8271
4.22376 16.225 64.2888
4.24808 16.9604 65.9164
4.30664 16.0369 61.9907
4.06835 15.98 65.1256
4.28351 16.168 64.8454
4.31781 16.4711 63.8402
4.22865 16.513 63.5908
4.16721 16.32 65.4292
4.29954 16.1453 64.7685
4.26505 16.4166 62.7398
4.08277 15.6172 64.3234
4.21645 16.3498 65.3709
4.28858 16.1697 63.9999
4.20282 15.7675 63.2573
4.17863 16.0399 62.2087
4.09165 15.7217 62.5561
4.09728 15.905 62.3845
4.07767 15.7819 63.0161
4.13258 15.5617 61.9608
4.07929 16.1609 63.5963
4.19297 16.5142 65.8509
4.2875 16.0307 64.7888
4.23621 16.0571 62.8414
4.11857 16.1974 62.9902
4.1088 15.6695 63.2515
4.11647 15.6222 62.6077
4.10559 15.794 63.4727
4.15453 16.2351 64.9679
4.26341 16.5032 65.5531
4.292 16.2099 62.305
4.06835 15.7892 64.6201
4.24258 16.2039 63.3113
4.11469 16.2579 64.5871
4.20656 16.2514 64.4988
4.21002 16.1826 64.5814
4.19485 15.9392 63.1422
4.12063 16.048 63.1147
4.11145 15.9652 66.0516
4.319 16.6328 64.7734
4.21142 16.1628 65.98
4.29834 16.2238 64.4328
4.17014 15.7408 62.1016
4.03643 15.9095 62.0053
4.01811 16.038 64.8944
4.2122 16.1739 64.1459
4.19676 15.9402 63.6591
4.14025 16.0873 63.4646
4.15952 15.8885 63.5124
4.1554 15.7822 64.4873
4.19287 15.6716 63.3032
4.12793 15.9057 63.4102
4.11545 15.8095 62.4108
4.07173 16.177 63.027
4.04854 16.0567 65.0305
4.208 15.9916 63.9537
4.14046 16.3095 65.0994
4.22671 15.7455 62.3121
4.06346 15.7415 63.2611
4.11921 15.8669 63.2326
4.10752 16.1321 63.3027
4.11289 15.9296 64.6776
4.1971 16.2254 63.4253
4.08902 15.6699 63.1859
4.10372 15.6716 63.8049
4.19265 16.5806 63.8618
4.1196 15.9598 61.7195
3.97621 15.5463 63.1282
4.08104 15.635 63.688
4.1504 16.0747 62.9327
4.08156 15.569 63.1559
4.12189 15.9759 64.2296
4.14537 16.1802 63.4897
4.13353 15.8749 63.1048
4.09639 16.0842 65.2162
4.20795 16.032 64.5515
4.13426 16.3322 62.9261
4.09169 15.7224 63.2908
4.10638 15.8601 65.2309
4.21662 16.2385 63.7661
4.11772 15.7762 63.1037
4.10712 16.449 64.7505
4.18212 15.7911 63.6141
4.09506 15.967 63.5598
4.09396 16.2603 66.5544
4.30519 16.6092 66.2999
4.30947 15.9452 65.5229
4.24733 16.5022 65.1609
4.22202 16.6114 64.9115
4.21796 16.5976 66.4228
4.30277 16.5054 65.7829
4.23653 17.037 67.4751
4.31939 20.6309 104.839
6.70515 0 0