# pn-170911/RbIIR-44-USN7-1280-1959.psd
# Power spectrum* (dif=0,1,2) (really just |FT|^2)
# NOTE: only the first half! (symmetric)
# weeks: 1280-1959
# 436 clock-days, 101 excluded
# PSD: 1441
888.255 0.0876485 0.0591843
84138.1 2.4832 0.119106
169547 2.73739 0.123409
47512.1 1.23356 0.118623
37962.3 2.18609 0.120841
14557.8 0.805203 0.110207
10181.1 0.791087 0.113869
6614.66 0.70278 0.115113
5712.37 0.823824 0.126656
4072.01 0.686125 0.107588
3092.9 0.636765 0.116263
2763.08 0.737091 0.116599
2359.34 0.755159 0.113958
2138.05 0.804386 0.112939
1802.93 0.821667 0.11099
1679.17 0.814787 0.103318
1511.46 0.998201 0.119496
1361.22 1.016 0.112381
1286.23 0.959628 0.118222
1061.65 0.982065 0.11741
1114.07 1.17933 0.115174
1052.2 1.28692 0.122576
1049.05 1.37953 0.132383
874.664 1.34442 0.117146
898.009 1.68344 0.122533
945.433 1.89238 0.109276
883.649 1.82457 0.121893
807.796 2.12419 0.117716
827.268 2.21627 0.123452
841.273 2.29363 0.135625
814.928 2.52665 0.12344
751.004 2.65091 0.120447
752.093 2.99957 0.129448
757.102 3.04075 0.131074
705.704 2.91975 0.132391
822.027 3.70139 0.131791
738.339 3.82106 0.139659
785.547 4.18638 0.141104
668.331 3.67229 0.135507
718.582 4.51939 0.148979
748.558 4.9227 0.150982
744.341 5.10098 0.143569
642.678 4.3328 0.147586
643.184 4.89898 0.151895
723.716 5.46502 0.170183
698.744 5.88089 0.161964
645.287 5.71835 0.161229
601.32 5.76988 0.15349
676.862 6.44316 0.179556
645.398 6.3714 0.176646
651.854 6.63896 0.188085
621.93 6.64156 0.189711
617.98 6.88969 0.198934
617.983 7.08614 0.198768
596.516 7.42254 0.215
602.544 7.43421 0.21622
579.957 7.47362 0.213193
613.012 8.54753 0.23072
524.835 7.72862 0.244119
554.354 8.33759 0.255648
585.468 8.87853 0.261806
477.805 7.48648 0.261061
569.911 9.24403 0.291891
500.051 8.73569 0.274127
474.76 8.15234 0.282911
478.464 8.98618 0.294552
489.609 9.16312 0.295353
529.37 10.392 0.337578
447.204 8.76263 0.290758
440.925 9.16582 0.324792
478.287 10.1867 0.340389
509.955 11.2191 0.368041
460.564 10.3957 0.355581
415.522 9.33367 0.341119
400.011 9.57891 0.346561
420.255 10.6356 0.371222
430.969 10.8687 0.406236
421.132 10.9227 0.4131
431.954 11.5753 0.4306
390.674 10.4213 0.424151
384.315 10.4314 0.406044
338.409 9.59409 0.399842
374.913 11.2849 0.465668
359.317 10.9413 0.465098
380.141 11.9496 0.497207
353.972 11.1692 0.48547
357.73 11.7412 0.529027
375.385 12.4041 0.563855
319.58 10.7806 0.489426
336.558 11.8345 0.525906
333.236 11.9816 0.526436
384.312 14.0249 0.639545
351.129 12.7911 0.594985
328.096 12.3219 0.624941
292.208 11.2257 0.570214
321.396 12.9473 0.662155
445.014 18.6714 0.854194
286.05 12.3784 0.676298
285.268 12.2556 0.64172
314.918 13.1153 0.694232
296.597 13.3675 0.730005
299.849 12.9295 0.711598
269.08 12.9466 0.714248
294.564 13.6844 0.802113
242.402 12.3969 0.730826
252.153 11.8275 0.728423
271.285 13.1059 0.771464
259.37 13.6916 0.847757
276.225 14.7549 0.8889
242.294 12.4839 0.796376
257.363 13.3548 0.876696
248.958 14.0027 0.893413
244.451 13.1605 0.851146
243.717 13.9257 0.945704
223.244 13.1058 0.935195
250.217 14.5262 1.00487
250.002 14.8709 1.0242
224.197 13.5718 0.981993
187.083 11.447 0.811345
270.651 17.2859 1.26165
246.544 15.5235 1.129
233.767 14.9246 1.07716
214.459 14.2607 1.06184
220.552 14.1711 1.08181
205.323 14.2057 1.11123
201.939 14.1874 1.15145
208.235 14.6422 1.15543
212.431 15.1138 1.21928
208.762 15.6105 1.26057
209.791 15.6509 1.2562
203.287 14.772 1.2336
211.602 16.6367 1.34
219.251 17.2387 1.49185
211.053 16.5134 1.47313
184.261 13.8482 1.22646
184.166 15.1208 1.37066
174.857 14.3058 1.27633
198.389 16.7867 1.56673
183.217 15.8341 1.52671
178.313 15.0578 1.47054
186.251 15.7405 1.45573
153.513 13.1265 1.29076
158.657 13.7248 1.3399
180.856 16.3899 1.62168
230.031 22.3074 2.23936
173.265 15.6339 1.57733
161.358 15.7901 1.61258
157.523 15.3157 1.6077
187.066 19.1034 2.04006
158.482 15.17 1.63636
146.223 14.7229 1.58795
164.323 16.7048 1.81022
152.676 15.8435 1.78663
166.63 17.9379 1.98947
162.346 16.9128 1.8636
170.985 18.9018 2.19019
177.35 19.0938 2.22307
144.742 16.0767 1.91276
141.998 15.7707 1.9532
147.157 16.2727 1.91362
136.938 15.5429 1.93929
146.839 17.6193 2.17963
152.36 17.653 2.13634
130.837 15.3077 1.94651
133.678 16.2949 2.144
155.369 18.671 2.3868
137.29 17.096 2.23578
153.667 19.3639 2.56128
161.107 21.8813 2.96432
142.552 17.113 2.28435
142.318 17.853 2.39042
132.571 17.487 2.46734
133.953 18.0185 2.59809
141.339 18.007 2.53576
144.484 19.8845 2.99819
137.554 18.676 2.67901
124.588 17.2226 2.48916
127.949 18.0374 2.70397
131.103 19.0258 2.8121
138.093 19.8202 3.00852
130.43 18.665 2.86208
131.603 19.5516 3.01167
128.884 18.5526 2.89933
111.062 16.7649 2.6804
115.502 17.6904 2.89158
128.419 20.0017 3.23129
129.265 19.7683 3.11983
126.578 19.6184 3.19745
122.008 19.3976 3.14241
115.608 18.8605 3.16503
116.983 18.9584 3.2819
132.102 22.3649 3.93662
240.599 40.2888 6.655
113.153 19.0817 3.28046
109.463 18.3093 3.3141
112.724 19.1562 3.45915
121.746 20.8487 3.73928
110.019 19.5083 3.48514
103.019 18.7164 3.52516
99.8922 17.4562 3.13732
111.511 20.0237 3.81297
107.651 19.1955 3.64394
106.768 19.4591 3.8096
105.753 19.7176 3.86319
124.329 23.8908 4.70276
101.147 18.002 3.45028
107.388 21.3363 4.30436
105.417 20.0894 3.97898
98.8935 19.2265 3.9304
108.389 20.6003 4.16458
98.7264 19.2904 3.88746
103.119 20.7732 4.50629
96.3925 19.4734 4.07655
97.9767 20.4075 4.34926
103.92 20.9011 4.52824
102.997 21.7434 4.96909
122.016 24.5926 5.0717
100.544 21.0934 4.62827
94.4792 19.761 4.37683
99.6079 21.5453 4.89639
101.916 22.3321 5.07719
100.481 21.5877 4.82127
106.717 23.8274 5.60192
97.2279 21.0966 4.71428
89.9924 19.957 4.77597
96.1409 22.095 5.28988
89.1948 20.4559 4.88204
103.734 23.6275 5.55845
96.7841 22.8739 5.52838
90.9107 20.9957 5.07205
90.598 21.4023 5.2711
93.3567 22.4805 5.49064
87.4986 20.5736 5.16341
91.3671 22.5121 5.61489
80.8965 19.7898 4.98583
82.6557 21.0482 5.5802
91.7258 21.7693 5.44015
82.5926 20.6859 5.44767
86.2972 21.9674 5.67044
87.3614 22.6803 6.15512
94.9168 24.3165 6.4135
85.8336 22.4699 5.98646
77.3108 20.2255 5.55974
80.4404 21.4349 5.90186
81.9282 21.7062 6.04537
94.6481 24.8793 6.95258
80.5625 21.6712 6.21807
85.6405 23.1702 6.31359
82.2599 22.646 6.5162
79.4345 22.1778 6.35667
78.1387 21.5157 6.23765
76.0816 21.8383 6.59109
88.4456 25.0188 7.44747
92.3439 25.8875 7.46395
88.5701 25.7799 7.52722
73.7463 21.916 6.69431
77.1004 22.3781 6.71346
76.8815 22.7711 6.98907
77.5748 23.1475 6.99161
83.8703 25.5199 8.02708
79.1224 24.0089 7.51931
79.2037 24.2989 7.89211
77.999 22.6739 7.04945
78.1895 24.9146 8.2229
89.0646 27.3959 8.56871
73.2469 22.9828 7.34716
65.3478 20.0909 6.61918
74.0994 24.1549 7.91554
73.4946 24.3076 8.00542
79.8599 26.2992 8.70018
71.3587 23.2877 7.78791
65.3488 21.565 7.24076
63.0648 21.1444 7.29939
74.6035 24.9866 8.5793
67.159 22.14 7.63472
72.695 24.2817 8.69518
77.6478 25.839 8.78238
72.6493 24.9769 8.70327
74.755 25.6783 9.04231
63.6055 22.4987 8.2102
61.999 21.8741 7.82366
68.6134 24.1289 8.95712
70.1665 25.0595 9.05023
67.1854 24.1819 8.80486
67.5922 24.1457 8.9607
60.2012 21.4483 8.12507
56.3168 20.3482 7.90805
74.5002 27.5172 11.2649
149.33 54.0798 19.5077
64.9242 24.6957 9.60535
69.7059 25.9494 10.0533
66.7568 25.7242 10.0287
69.3746 26.0917 10.3274
71.385 26.3868 10.2342
57.9615 22.4074 8.95062
58.1295 21.352 8.5206
62.8287 23.6528 9.44709
58.3167 23.2693 9.6643
61.8904 23.854 9.80688
61.7253 24.4497 10.0963
63.7465 25.8978 10.5812
63.666 25.4767 10.4845
61.7434 24.2858 10.0222
61.722 25.1064 10.5027
58.4853 24.9729 10.5776
57.9632 24.2248 10.5497
64.0047 25.9175 11.0341
58.5028 24.629 10.5369
56.2054 23.1001 10.0164
55.8082 22.8486 9.84608
55.0371 23.4638 10.552
60.1154 25.7663 11.4334
61.1827 25.5363 11.1114
59.8174 25.3291 11.4362
56.1906 24.0163 10.6286
56.1125 24.675 11.2394
56.8041 25.0738 11.4101
55.1976 24.7374 11.5531
55.412 24.7867 11.3804
57.8362 25.4105 11.7722
52.7004 24.055 11.3213
53.4008 23.4638 10.7623
54.5615 24.7818 11.647
53.6182 25.5231 11.9733
56.4359 26.6799 13.0263
54.1066 25.1974 12.2054
55.7554 25.3562 12.2245
50.6395 23.8138 11.787
50.1494 23.0028 11.1883
44.6551 21.9068 11.1251
51.3911 24.7681 12.244
52.4446 24.2947 12.1481
49.4391 23.7763 11.894
50.6957 24.2955 12.1982
49.8322 23.1029 11.7084
49.0655 23.5782 11.7677
50.6468 24.5801 12.7746
46.8388 23.0823 11.7732
47.1156 22.9 11.7134
46.7684 24.0151 12.7891
50.3668 25.0965 12.9454
45.3868 23.35 12.4598
46.9309 23.8203 12.2568
46.2049 24.8412 13.796
42.6004 21.6959 11.6535
44.2609 22.7965 12.4813
47.1774 25.0496 13.8141
48.2239 24.6427 12.974
45.1978 24.1239 13.2538
48.2201 25.4053 13.9498
42.7785 22.5439 12.4932
43.3771 23.585 13.1607
44.324 23.51 13.1793
44.5603 24.1087 13.7172
46.1167 24.3603 13.5782
47.3942 26.3403 15.0594
44.3068 24.7682 14.0599
39.5527 22.1327 12.9682
43.0202 23.6745 13.7828
43.8354 24.5066 14.3604
42.9184 24.0145 14.1278
42.6432 24.118 14.3095
39.8332 22.8363 13.3436
43.5829 25.237 15.1781
48.5818 27.3708 16.1605
46.4858 26.6399 15.9938
41.8656 24.8241 15.1735
46.3954 26.4106 15.7078
43.6098 25.9071 15.8886
41.3566 24.139 14.6131
42.1597 25.7907 15.5945
42.7736 25.3125 15.8295
44.1387 25.4937 15.835
38.6349 22.9959 14.3783
41.6492 25.91 16.3345
40.2196 24.2096 15.3777
43.1226 25.112 15.2495
41.3784 26.0686 16.556
39.1739 24.1971 15.4255
37.6622 23.6562 15.4051
38.7052 24.087 15.9856
40.1265 25.9198 17.3091
41.7946 26.3112 17.6113
38.7743 24.0715 17.6806
100.666 63.3351 37.485
40.8782 26.4018 17.9049
39.1173 25.6707 17.5427
40.6163 26.008 17.3265
37.9471 24.1559 16.04
35.0607 23.1998 15.7065
35.542 22.691 15.4606
38.0027 25.2222 17.09
33.5632 21.2466 14.4533
37.6543 25.7325 18.0771
36.2764 24.8266 17.8518
39.6342 25.9557 17.6412
38.2531 26.3915 18.2937
36.8064 25.0972 18.0014
35.9012 23.6787 16.5102
34.8274 23.6551 16.4395
33.3738 23.1122 16.9801
36.3179 24.4144 17.3387
31.0786 21.8986 16.1114
34.46 24.2092 17.6321
36.3936 24.524 17.2571
34.4829 23.8841 17.2791
34.5819 24.7761 18.025
34.0153 23.0223 16.9359
34.5314 24.2101 17.755
34.1811 25.124 18.8399
35.9377 25.7181 19.1656
34.0489 24.3811 18.6846
36.8284 25.9181 19.4885
34.2758 24.2651 17.9557
33.1069 24.5576 18.6247
33.4421 25.2681 19.8119
32.613 24.3046 19.0779
36.1057 25.7333 19.275
33.2972 26.2679 21.5342
34.3923 22.9545 16.8397
32.2748 24.3045 18.741
34.1226 25.532 19.8351
32.3875 24.2979 19.0094
30.7506 24.0067 19.3514
32.9587 24.997 19.7983
30.4724 23.8354 19.2103
29.3094 22.7239 18.2431
31.6685 24.3118 19.6596
33.9524 25.9367 20.6356
31.8588 25.2337 20.6674
28.6443 22.4413 18.8077
31.5889 25.0707 20.4994
31.8979 24.8605 20.4464
29.577 24.1734 20.5263
32.827 25.5157 21.6267
30.5405 24.5716 20.987
32.7505 24.3481 19.4962
31.6291 25.077 20.5205
31.7456 26.0974 22.075
29.8662 24.8908 21.4966
31.0875 24.4315 20.6125
28.8363 24.5501 21.7394
30.2039 23.9655 20.4858
31.3724 25.9324 22.468
31.5379 26.0243 22.4682
31.8725 26.185 22.6379
30.369 25.4414 22.0426
27.9176 24.3657 22.0773
29.1701 24.013 20.777
29.4087 25.3965 22.3841
27.8805 23.8414 21.409
28.4116 23.9787 21.0609
27.9226 24.115 21.4954
28.6541 24.8739 22.373
26.9771 23.5481 21.2246
27.3226 23.4819 21.5868
29.6665 25.0541 22.2108
27.5215 24.2979 22.2102
26.1431 23.6299 22.3365
30.8844 27.2018 25.0442
29.4519 24.9895 22.8533
26.4276 24.1376 22.2195
26.611 24.0607 22.3501
26.5018 23.2816 21.7367
27.8919 25.4453 24.0323
26.6269 25.1215 24.2757
27.8928 24.7744 23.2214
27.5411 24.5014 23.7222
29.0396 26.5808 25.3422
27.8772 25.6298 24.6135
27.8928 25.217 24.2122
27.5542 24.295 22.5077
24.6512 23.7614 23.7136
26.9563 25.2013 24.4888
25.8323 23.877 23.5196
28.7575 26.5746 25.1655
26.4158 25.8546 26.0999
28.3972 25.7886 24.9201
24.9917 23.8815 24.4966
24.9226 25.7951 31.2466
64.2282 59.1187 48.9272
22.6924 22.6125 24.3135
24.5155 24.4595 25.2899
26.0716 24.9885 24.9924
26.4558 26.3864 25.9455
22.9086 22.8282 24.5698
24.5891 23.4507 24.1209
26.0088 26.0426 26.7949
25.1757 24.6805 25.1164
25.0423 25.051 26.1776
24.3715 23.8116 24.3124
22.8569 22.7375 23.6315
25.0359 24.9292 25.8709
23.6976 25.107 27.4045
25.1732 24.4794 25.0482
23.0162 23.4918 25.8011
23.8237 23.9966 26.3977
23.6908 22.9129 23.6422
21.8909 22.4259 24.3012
24.4084 23.8745 25.4125
26.7267 26.9402 28.3428
24.0477 25.0516 27.229
24.3993 24.8858 26.2098
22.2713 23.3261 25.0878
19.6746 21.3809 24.4007
21.2859 21.7912 24.1979
22.6567 24.3015 26.6316
23.0179 24.2382 26.4071
22.686 23.548 25.9094
22.3955 24.4843 27.4774
22.2522 23.9207 27.2122
23.9035 25.4312 28.1681
23.9818 25.743 28.9301
22.2144 23.7636 27.6237
23.0301 23.2879 25.1925
22.6881 25.433 29.0861
21.9258 22.6179 26.4007
22.4959 24.6647 28.5395
22.0032 22.426 24.6748
20.7033 23.2469 26.8869
20.9481 22.7876 25.7839
21.4918 24.1192 28.4118
21.9503 23.4422 26.476
20.8576 23.4383 26.8213
20.8629 25.2823 30.1599
21.6854 23.2048 26.2667
20.9292 24.8278 29.5874
21.1029 23.3608 27.9752
20.3475 23.1267 27.8037
20.8073 23.8884 28.3425
20.1834 22.7327 27.3199
19.852 22.2022 27.1194
21.9705 24.9387 30.3047
22.4457 25.7998 30.6998
21.1767 24.0389 29.5116
20.3407 23.7952 29.5982
21.0763 23.3102 28.7157
21.3998 24.6795 28.6507
19.3374 23.24 28.2909
20.2868 23.9319 29.5786
20.5564 24.7881 30.3015
20.3474 24.6224 31.5529
20.7047 23.4117 28.5695
20.2836 23.7018 28.9638
19.9004 23.6034 29.2831
21.0347 25.4917 31.919
19.4098 23.4992 30.1884
20.8584 24.5698 29.7507
19.6926 24.693 31.9262
19.2485 23.2226 29.9911
19.9805 23.9969 30.0609
19.6178 23.6932 30.232
20.2146 25.3058 32.992
19.7076 23.7107 31.0758
20.8154 26.1297 32.7433
20.3191 24.3899 30.2547
17.5278 23.243 31.6179
18.6186 22.3355 28.8101
18.2924 22.5021 29.9166
19.309 23.2274 29.842
19.9115 25.7683 33.7765
18.7344 23.816 32.2903
19.0235 23.2931 30.2784
18.0846 22.1664 29.0175
18.3525 23.7896 32.379
19.6212 24.5729 32.7185
19.3896 24.9906 33.557
19.129 23.5155 29.4851
17.6498 23.9039 33.2167
17.9309 23.5208 32.4289
18.4253 23.0322 30.7409
17.3005 23.0863 31.4687
17.851 23.2075 32.3224
18.6402 25.3182 34.8467
17.8696 24.4052 34.236
15.9256 24.333 47.1513
47.0478 56.9364 61.621
18.6952 24.6776 34.5813
18.7771 25.7831 36.2898
17.8961 23.9225 34.343
18.4495 24.2955 34.5543
17.8423 23.8212 33.1574
17.6334 23.8637 34.1468
18.0875 22.6355 30.9183
17.1565 22.326 31.7135
17.1339 23.2838 33.3477
16.8216 23.1533 34.2059
18.4949 24.1453 33.1017
16.3472 22.337 33.1681
17.7663 22.9573 31.6648
17.1037 23.6578 34.4541
19.7395 26.2917 36.3294
15.8742 22.1524 32.7107
17.4497 24.5695 34.5122
15.9752 22.2709 32.5674
16.2157 22.6559 33.8357
16.4013 23.0742 34.8296
16.4154 21.2499 30.3404
15.4946 23.4605 35.7608
17.0906 25.0038 38.0147
17.4498 23.8151 35.7788
16.751 22.6453 32.1293
15.6633 21.8721 31.4753
16.0406 22.4697 33.631
16.5012 23.4877 35.6653
16.2641 22.0859 32.3057
16.5697 24.5378 36.419
14.8812 21.5886 33.3754
15.5507 22.7337 35.4211
16.6654 23.1246 34.2805
15.7908 22.9007 35.3597
16.1601 23.0548 34.78
16.2474 23.9519 37.7978
16.823 23.5506 35.2599
16.5454 24.1942 37.0983
15.9288 23.5857 36.3132
14.4746 21.5192 33.6135
14.4573 21.5077 33.0382
13.6997 19.91 31.799
14.7249 22.0518 34.989
15.5175 23.3393 37.4211
15.566 22.1453 33.7552
15.3635 22.773 36.6225
14.589 21.6656 34.6413
15.5654 22.2581 34.1746
14.5743 22.256 36.2518
14.8969 21.3105 33.5644
16.0021 24.099 36.6229
15.1448 24.5374 41.2755
17.2481 24.1106 37.0675
13.6392 21.1848 34.2033
14.9048 23.8018 37.6809
14.2915 20.9049 34.2679
14.4975 22.3025 36.4372
14.0482 21.4102 35.2333
14.2912 22.1072 37.6596
15.3698 22.7039 35.2504
14.0313 22.7895 37.0176
14.6526 23.4139 37.8178
13.6593 20.4959 33.6481
13.1671 21.0171 35.1238
13.7564 21.9031 36.5214
14.305 22.3331 37.0004
13.2717 20.0259 33.6825
14.5512 23.5075 39.638
14.4239 21.6101 35.5269
13.9681 22.6558 37.6284
14.3679 22.8184 39.2723
15.5132 23.6903 38.5232
14.168 22.5895 36.5823
13.0844 21.5946 37.3381
13.3975 21.3252 35.7304
12.9515 21.1384 37.7517
15.4868 24.3948 39.9208
13.2713 21.6664 38.3896
13.5131 20.6283 33.8448
12.9389 21.42 37.132
13.8648 22.5147 38.1624
12.9146 21.8699 39.134
13.5089 21.1675 36.4201
12.7979 20.6626 36.0594
13.4357 21.8806 36.4288
13.8685 22.5065 37.5454
12.3606 21.2001 38.206
12.9109 21.272 37.5491
12.2807 20.5442 36.9033
12.9475 21.8511 38.9799
13.2211 21.8193 38.4572
12.0685 20.0049 37.5023
13.1035 22.2213 40.9413
12.6855 21.7581 39.0417
11.1689 23.9136 66.0614
34.0391 51.8875 67.0784
12.8951 22.8278 41.3282
13.2715 22.3085 39.0935
11.269 19.3014 35.0553
11.5965 20.6115 37.8347
11.9961 20.6891 38.9548
12.5293 20.3564 36.1391
11.5465 19.8497 36.068
12.3967 21.3344 38.7338
12.5028 20.9511 37.1965
11.2618 20.3355 37.6539
11.7317 20.9306 40.1642
12.5814 21.2697 37.014
11.5109 20.6034 39.5858
12.1906 20.213 36.2138
11.1157 19.3759 36.6961
11.7525 20.7377 39.5404
12.0591 21.7469 40.5608
12.0838 20.9052 38.8142
11.9937 20.5213 38.0013
11.5888 19.4595 34.7477
10.9483 21.0807 39.9499
11.1031 19.3788 37.3993
11.8912 21.061 39.2756
11.3049 19.6714 36.4595
11.2515 20.5679 39.6375
11.9153 21.7516 40.5044
10.6602 18.9082 37.757
10.9254 19.1137 37.8746
12.1788 22.1749 41.1612
11.6647 19.9134 37.7434
11.4006 20.9908 40.2449
11.253 19.6942 37.7892
11.5508 21.0085 41.6976
10.8485 19.2484 36.9526
11.4273 21.3729 38.5034
10.1084 19.1079 39.5533
11.3664 20.2604 39.4142
10.653 19.9385 39.0807
11.3369 20.7522 39.1689
10.4659 19.489 38.4774
9.97024 18.6089 37.9916
10.0952 18.1345 35.6779
10.0236 18.5863 37.3303
10.5749 19.6697 39.9584
11.2592 20.1668 39.4024
10.1098 18.4906 37.158
10.5103 19.9104 40.2803
10.6516 19.9632 38.9967
10.4661 19.1101 37.5078
9.9474 17.9153 35.1444
10.5281 19.6932 38.5751
9.95304 18.7455 36.4678
9.87867 18.3481 36.6878
9.29884 18.8922 40.7297
10.5414 20.1602 39.1229
10.2439 19.1134 39.5194
10.7728 20.0888 39.7601
9.69646 18.4599 38.6814
9.59405 17.8671 38.1478
10.5201 19.0135 38.7478
10.6148 19.9061 39.948
10.8373 20.6245 41.5366
10.2833 19.4898 39.0097
9.38718 18.2789 37.0217
8.94388 18.2856 39.4004
9.28284 17.8164 37.3941
9.58215 19.3422 41.865
10.5256 20.4396 40.515
9.29994 18.5117 41.1334
9.8198 18.5128 38.6248
9.99822 19.1753 39.2775
10.2331 21.1511 44.4463
9.5055 18.5951 39.7317
9.0349 17.4167 36.6841
9.88831 19.7298 40.6686
9.30337 18.5855 40.2776
10.028 19.2946 39.7192
8.81155 18.1189 40.1936
9.75157 18.6323 38.7186
9.93788 19.8837 40.7072
8.738 17.8764 39.3113
9.0759 17.9041 38.5664
9.30337 17.9811 38.5428
8.85228 17.7626 39.3202
9.92478 20.951 43.797
9.40644 19.3085 40.1292
9.01409 18.5118 41.6404
9.75125 19.079 41.6101
9.16464 18.4133 40.3089
8.76637 17.3466 36.8804
8.87033 18.4408 40.4561
8.73251 18.1218 42.2055
9.09937 18.2034 40.954
8.63892 17.3572 40.9025
8.28515 19.9491 72.8715
25.285 47.8098 69.5019
9.32118 19.0636 41.1232
8.6495 19.3002 43.3194
8.77942 18.7479 41.1281
8.92389 18.5843 40.7162
8.28449 17.8257 41.2305
8.46778 17.801 41.445
9.50461 20.27 43.4278
8.73559 17.8902 39.5319
8.53845 18.3948 42.1873
8.34025 16.7318 37.5955
8.486 17.3795 38.4006
8.01627 16.6742 37.5468
8.41482 17.7862 40.0273
8.33765 18.1965 44.4928
9.82664 18.8844 37.5127
7.23357 16.6289 39.81
8.23942 17.7468 40.4877
8.17669 17.632 40.5721
8.42018 18.0971 42.1217
8.11722 17.206 41.9948
8.95934 19.1393 43.8663
8.72485 17.6306 41.5541
9.12542 17.9734 39.939
8.9246 19.5476 45.6657
8.88262 18.9357 41.1511
8.03242 17.1723 39.3655
7.71585 16.5085 38.6999
7.9211 17.0346 37.8125
7.70759 17.223 41.7761
8.22841 17.8286 41.9726
8.13481 16.4782 38.8473
8.22235 17.6365 41.7838
8.26505 17.3254 40.075
7.86 16.0942 37.7075
8.33333 17.6788 39.9314
7.66844 16.7979 39.5589
8.03341 18.3287 45.1399
8.52949 17.7132 41.1328
8.09102 18.4343 45.4343
7.94042 16.8068 41.3898
8.08538 17.1255 38.1813
7.25496 16.8053 42.264
8.52225 18.8112 43.8215
7.89584 16.8138 39.3685
7.66241 17.1333 40.5426
7.29228 15.7475 38.4657
7.45926 17.0233 42.1057
7.84099 17.2077 39.8857
7.18492 15.9078 38.2951
7.54765 17.2006 42.0749
7.50561 16.4811 40.2954
6.97663 15.8895 39.3397
7.65303 16.8692 40.5159
7.22112 16.208 41.593
7.97197 17.4147 42.0796
7.95128 17.6295 42.2524
7.41186 17.6698 41.5021
7.21034 16.9752 41.3291
6.78509 15.9397 41.9552
7.78709 18.4435 46.2543
7.90093 17.077 42.5028
7.54797 16.1624 37.5033
7.00998 16.7037 42.1945
7.96134 18.8204 45.4416
6.81791 15.6203 41.6798
7.69332 15.9672 36.5371
6.93151 17.1058 45.1022
7.74433 16.7825 42.1217
7.4288 16.5743 39.7327
7.08625 16.6542 43.0433
7.75351 18.1092 45.8502
8.0716 17.6905 42.4931
6.99378 16.059 40.3441
7.41352 17.2729 41.0548
7.05391 17.4951 43.3627
6.7413 15.875 40.5523
6.88209 16.1907 41.363
6.45206 15.8417 42.7772
7.42012 16.893 42.7908
7.18972 16.7475 44.5124
7.51182 16.6352 41.4025
7.188 16.2391 40.1121
6.44204 14.9609 39.6341
7.33293 17.8114 46.7472
7.23915 15.778 39.4672
6.84881 16.7938 40.3088
6.17141 15.2391 41.6563
6.7917 16.2816 41.2558
6.84005 16.8749 41.9996
6.84819 17.8843 46.0709
6.54332 15.8412 44.8185
7.37678 17.1578 45.0448
7.15765 16.6593 43.7864
6.49272 16.2502 46.393
7.66673 21.8338 96.7144
20.8848 44.2649 68.0249
6.35795 16.866 46.3335
6.95463 16.2649 41.2854
6.48471 17.1954 46.709
6.91859 14.943 39.1625
6.55627 16.2033 43.1892
6.33488 15.9306 42.2337
6.90164 16.032 43.0159
6.8064 17.0972 43.2352
6.11603 14.0336 36.6047
6.04902 14.892 41.047
6.46628 15.2574 39.3569
6.46413 15.5016 40.1485
6.28452 16.2057 42.9629
5.90717 14.6264 42.0417
6.73003 15.7953 41.0991
6.25231 15.4736 40.7691
6.12856 15.6846 42.6878
6.34218 14.964 39.0301
6.71275 17.1753 45.4081
6.51939 16.1259 44.0654
6.41718 14.85 39.7924
6.34906 15.9308 44.0104
6.58552 15.8611 41.031
5.92851 14.6136 39.7167
6.11677 15.9107 45.3119
6.88744 16.6105 45.264
6.49454 15.1274 39.4285
6.02427 14.7375 39.1414
5.61987 14.2867 41.373
6.44159 16.1411 43.3727
6.43362 15.5617 42.9986
6.3281 15.6553 40.789
5.82552 15.9655 46.2574
6.29896 14.8661 41.2193
6.20661 14.667 39.8444
6.01592 15.4004 42.1226
5.79201 15.1703 41.0315
5.66785 14.5884 43.8443
6.68262 15.9105 40.9868
5.89194 15.5344 44.351
6.22783 15.601 43.1651
6.2045 16.4385 44.7378
5.90223 14.4652 40.411
5.74925 15.2352 44.1121
6.21527 15.6131 42.7009
5.84731 14.5652 40.682
5.83226 14.7628 41.5797
5.77714 14.4802 41.9636
6.12432 15.1614 39.813
5.52493 14.0313 39.4011
5.72221 15.291 43.1202
5.79578 14.5657 43.2368
6.28539 14.952 39.8393
5.54213 14.4038 41.3021
5.82001 15.4994 44.1053
5.87205 14.4182 41.1952
5.91908 16.1876 45.3699
5.62278 14.1821 41.1317
5.93187 15.4694 43.0281
5.69793 15.322 44.9901
6.01823 14.6132 41.4144
5.44801 13.5884 38.848
5.52077 14.4076 41.2012
5.60326 14.3517 42.7275
5.91528 15.453 43.9101
5.62624 13.9791 40.0424
5.65308 15.8813 44.3469
5.40675 13.7359 39.9359
5.47242 14.9628 46.254
6.18789 15.0137 40.7568
5.79086 15.4225 44.5113
5.64617 14.9932 41.6581
5.47693 14.4234 42.5272
5.44403 14.4176 42.8448
5.62417 14.4493 41.6364
5.60778 15.0123 41.8793
5.19618 14.1927 43.084
5.65526 15.2886 46.9156
5.84057 14.7988 41.6979
5.7102 15.634 43.7918
5.40724 14.5625 41.2865
5.12748 14.2138 44.0554
5.44294 14.5264 43.6595
5.3751 12.8407 38.0103
5.42651 14.8173 43.2788
5.43424 13.9322 42.1209
5.51035 14.2961 39.7779
5.04214 14.0901 43.3626
5.25897 13.8506 40.2131
5.06164 13.7138 42.9529
5.21611 13.7235 42.8905
5.31886 14.6714 44.3607
5.3224 14.9836 46.1213
5.38944 15.0568 47.4429
5.63852 22.2867 125.131
18.3172 41.2006 60.7059
5.10519 17.1586 48.6196
5.20092 13.7433 43.0809
5.04442 14.093 43.6048
5.0763 13.5625 42.0697
5.30661 15.4749 46.2568
5.626 15.115 42.8969
4.99883 14.3027 43.1917
4.95745 13.848 42.3459
5.05265 13.5878 41.1979
5.22089 14.2751 43.8471
5.305 14.2678 43.3936
5.19041 13.9297 43.1164
5.25387 14.1782 41.3972
4.91627 14.5189 43.5322
5.16707 14.6017 41.6469
4.74636 12.8612 39.429
4.69856 13.2803 40.8638
4.93907 13.4581 42.1387
4.99071 14.4275 45.5631
5.36099 13.9012 40.2832
4.70214 13.487 42.5227
5.24886 13.6405 40.6845
4.97111 14.3667 44.849
5.10135 13.0804 39.1444
4.83555 14.5797 44.1024
4.77577 13.8955 47.0246
5.34501 14.1683 42.9542
4.78958 14.2241 44.4672
5.04924 14.1301 43.9543
4.96965 14.1382 47.5953
5.4489 14.3802 42.9948
5.03692 13.9776 42.9633
5.01058 14.912 48.1499
5.58194 14.9416 47.189
5.40161 13.8366 41.5601
4.78357 13.2166 40.028
4.81919 13.9445 43.526
4.81815 13.0025 39.3644
4.47391 13.0765 42.003
4.81238 13.7785 44.1527
4.78669 13.4125 42.9032
4.63885 13.5974 42.3852
4.73563 13.3882 41.2113
4.587 13.9612 45.4564
5.19322 14.5184 44.2989
4.55702 12.162 40.1853
5.03916 14.3411 44.0269
4.7384 13.5008 43.6824
4.8042 13.3553 43.5962
4.81496 13.5229 41.7566
4.93155 14.3685 45.0622
5.00807 13.5596 42.2788
4.46227 12.7018 40.7105
4.47078 12.8531 39.8105
4.54908 12.6665 39.2007
4.35083 12.3901 39.4064
4.38506 13.1305 41.5835
4.33465 12.6868 43.192
4.6355 12.8502 39.8548
4.46644 14.4158 47.7338
5.2163 13.9633 45.0862
4.79496 13.5721 43.592
4.83379 12.9954 42.808
4.80947 13.7056 42.3596
4.87276 14.1132 43.0896
4.42915 12.7886 42.8288
4.73601 13.717 44.7859
4.85905 13.1808 41.052
4.27223 12.3956 44.2005
4.71416 14.0143 46.8815
5.13798 14.7765 43.5746
4.59219 13.0115 42.3414
4.48646 13.7738 43.7144
4.59174 13.4796 43.7987
4.43611 12.9641 44.5069
4.49468 13.339 40.7788
4.22621 12.2713 42.8807
4.76945 13.2756 43.5343
4.47171 12.7132 41.5049
4.49494 12.0101 36.956
3.95971 13.145 45.6731
4.82689 13.5767 41.9832
4.35793 12.5878 40.4772
4.43564 13.9928 45.8806
4.85807 14.1497 45.892
4.55799 12.6066 42.7815
4.41288 12.5536 41.6487
4.36426 12.3477 41.981
4.38849 13.5928 45.5242
4.88942 13.5462 41.8277
4.14303 12.7802 42.242
4.2832 12.7979 41.9589
4.49026 13.7043 46.4727
4.51579 14.2148 47.0519
4.3055 21.5962 144.586
15.8751 36.7332 58.1588
4.5112 15.1232 45.7185
4.03647 12.3407 41.1039
4.36467 13.8771 47.1147
4.61387 13.0069 45.2172
4.70433 14.1613 44.5465
4.44399 13.4907 45.9533
4.69104 13.4037 43.3779
4.28324 12.3034 39.4218
4.0463 12.0286 44.3646
4.69496 13.871 44.5873
4.44337 13.7309 44.4427
4.20353 11.9987 42.4468
4.6222 13.3669 42.8599
4.33697 13.4475 44.6016
4.44263 13.3191 43.6396
4.28854 13.2651 47.0359
4.49889 13.6131 45.3917
4.33064 13.0452 42.8086
3.96639 11.2292 36.9749
3.87776 12.0225 45.0601
4.50044 12.1857 40.5886
4.3279 14.2497 45.5018
4.25653 13.5716 45.9953
4.38936 13.6426 47.2175
4.50882 12.9842 42.7938
4.21266 12.9001 43.744
4.13846 12.223 44.1133
4.28014 12.9197 44.7492
4.23155 12.8689 42.9953
4.17517 12.7654 47.8018
4.63939 12.572 41.7901
4.10386 13.2528 44.6374
4.37341 13.5612 42.1225
3.88842 12.0893 46.0655
4.49739 13.6686 46.3202
4.40411 12.9639 41.9801
4.12452 12.259 41.2489
3.80325 12.2468 48.6107
4.3672 12.3031 40.7772
4.20819 13.0284 42.4446
3.77614 11.6445 42.2691
4.18617 13.3725 47.1937
4.49189 14.0895 45.0289
4.0897 12.7178 45.613
4.07233 12.0432 42.3795
4.06902 12.0241 42.6975
4.16756 11.9505 41.4703
3.85097 11.8783 39.2732
3.90088 11.5433 40.0329
3.89355 12.9431 45.6836
4.31969 13.1374 47.1742
4.39195 13.9008 45.4258
3.91827 12.0386 43.013
3.88338 12.2365 43.7104
4.12078 12.9482 46.0048
4.25555 12.0744 43.9782
4.28359 12.8041 41.2026
3.81087 12.2857 45.1883
3.9692 12.136 41.9214
4.04192 11.8568 43.3311
4.04833 12.6219 41.2036
3.76288 12.093 45.7591
4.38606 13.0801 44.0177
3.942 13.3527 48.0829
4.10721 11.8471 39.5578
3.65934 12.3295 43.7378
3.98027 12.072 42.1515
3.80744 12.1257 44.2404
3.96289 12.2787 43.6444
4.1415 12.7722 42.7969
3.89634 13.0289 45.0166
3.95882 12.4341 45.9816
4.00047 11.9988 44.2421
4.13071 12.5017 46.2234
4.23138 13.155 45.5997
4.0125 12.3636 42.1771
3.79942 12.5368 44.5619
4.0331 12.2224 47.0555
4.22465 12.9539 43.0441
3.82659 12.4098 46.5321
3.96493 12.3527 43.4093
3.82639 12.6579 46.1484
3.98367 12.955 46.4096
4.13295 11.4397 42.896
4.00536 12.7989 41.4309
3.70472 13.8187 49.5231
4.21836 12.6981 44.6746
4.11677 12.9535 46.8955
4.0533 13.2252 45.4447
3.79785 12.2153 42.5073
3.5788 11.7024 41.3194
3.69876 12.2334 47.5664
4.33228 13.7772 47.1311
3.87876 13.9371 48.1215
4.18103 24.1299 171.371
14.5696 32.2173 51.9387
3.98401 14.9184 48.6402
4.17867 13.2133 42.8784
3.65378 12.1845 44.9582
3.78894 11.6059 41.8937
3.86368 11.882 39.8416
3.51083 12.061 47.8439
4.16953 12.5696 43.1966
3.65756 12.5989 45.2132
3.84103 12.3166 45.8465
3.90983 12.2714 47.4427
4.10308 12.1283 44.3455
3.95852 13.2651 46.6751
4.01885 13.2261 49.23
4.0067 12.1591 40.6898
3.61063 11.9738 46.2054
4.06421 12.3762 41.9982
3.56616 12.9068 46.6172
3.89056 11.8916 45.0396
3.91632 12.7539 41.7955
3.56424 11.577 43.9137
3.64363 12.0215 42.8368
3.60983 11.6403 45.839
3.87521 12.6393 45.3009
3.77862 11.9156 48.6728
4.22189 13.5078 45.9951
3.82885 12.5224 46.0844
3.84667 12.7126 47.2928
3.8906 11.8417 41.2945
3.66771 12.0709 43.7977
3.64803 11.8992 47.2696
4.02723 12.0595 42.0356
3.59393 12.633 46.0247
3.82177 12.9969 45.6119
3.75248 12.1811 47.2411
3.98772 13.0089 45.128
3.63521 12.0236 44.1795
3.58624 11.8908 43.7059
3.46737 11.5545 42.8145
3.46497 11.9724 44.9448
3.48354 11.4105 43.1994
3.62918 11.8043 43.8504
3.77161 11.7824 45.2991
3.9755 12.6604 43.7183
3.67793 11.8966 43.076
3.4048 10.9946 42.3383
3.43292 11.1008 43.3169
3.55548 11.2612 42.6206
3.61641 12.322 43.5693
3.4412 11.0377 40.1867
3.39233 11.5394 44.1131
3.56769 12.0043 44.4514
3.71523 12.11 44.1367
3.67913 12.1104 42.5771
3.50852 11.0435 42.6971
3.57522 12.7382 45.3362
3.64113 12.2476 46.3677
3.61258 11.6704 43.1822
3.50584 11.9338 47.8619
3.66638 12.4284 44.7288
3.56059 11.4405 45.7829
3.7471 11.5986 41.7437
3.51982 12.6339 47.6393
3.66486 10.7383 42.3369
3.45872 12.3766 47.9297
3.80196 10.8781 43.0303
3.65563 11.789 41.2436
3.35481 11.5013 42.9982
3.55813 12.1644 43.8218
3.48248 11.7198 44.8556
3.47163 12.3839 45.1217
3.41726 12.3555 46.0027
3.78433 11.1727 42.5166
3.38267 11.5725 46.1732
3.66508 11.4751 45.3965
3.65805 11.9786 43.9551
3.67362 12.8753 44.3495
3.45674 11.8452 46.5792
3.82012 12.0001 45.7389
3.5729 11.9248 42.834
3.40177 10.6447 40.5026
3.3139 11.0654 44.0047
3.59401 11.991 46.4326
3.70143 11.8157 43.1833
3.50252 11.5412 43.3791
3.33453 10.901 42.2462
3.48111 11.4862 44.5601
3.59788 11.9954 44.4309
3.44182 12.0496 44.3478
3.5191 11.5927 43.0935
3.41647 11.7702 45.2026
3.41606 11.7144 47.281
3.60104 13.3626 45.318
3.5637 12.2111 45.6287
3.63207 13.5788 47.7226
3.54821 21.7678 175.752
13.1184 30.3526 48.6498
3.61481 13.7445 44.2666
3.44201 12.3755 45.1609
3.50352 11.29 41.4674
3.40804 12.2158 42.1853
3.27931 11.6504 45.3448
3.4452 11.7275 46.3718
3.56445 11.3181 45.0362
3.54736 11.8716 44.975
3.38868 10.736 37.7368
3.14729 10.1148 40.1452
3.2252 12.3081 44.6047
3.4594 11.3311 42.2046
3.2243 10.4028 42.0983
3.3089 12.0075 47.9355
3.72425 11.0318 41.2979
3.18332 10.7611 42.1466
3.26352 10.4268 43.6433
3.44442 12.2759 45.4052
3.30188 11.0086 41.9749
3.37264 11.307 42.198
3.3409 10.6344 43.2095
3.43532 11.3403 43.9513
3.42235 12.0516 44.6791
3.4682 11.3051 45.1292
3.4826 11.4723 44.3804
3.44953 11.8547 45.0015
3.37016 11.4001 44.3003
3.44006 11.8519 45.8686
3.48004 11.0154 44.8626
3.49638 12.184 45.8221
3.49955 10.6486 37.9516
3.00758 11.1732 45.4115
3.47415 10.8271 43.2041
3.41647 12.2388 48.16
3.63932 11.1821 40.2821
3.15002 10.9704 43.0082
3.13902 10.5919 40.4322
3.26552 11.408 44.0652
3.32086 12.3028 44.0982
3.21231 11.3745 47.1333
3.61233 11.3997 47.1261
3.57559 12.166 43.1339
3.24897 11.8697 45.4375
3.41424 10.2427 39.1635
3.04678 11.2015 46.6045
3.59121 11.0056 40.001
3.19013 10.555 41.5293
3.16802 11.5118 44.6685
3.49043 11.5204 46.4453
3.71126 12.3162 46.6536
3.52754 10.9913 42.5373
3.21829 11.0509 41.0319
3.09336 11.3824 47.4225
3.60036 11.0343 42.6265
3.35004 11.7068 45.0563
3.4748 10.7937 41.5578
3.27367 11.0256 42.3877
3.0857 10.4831 42.1725
3.26152 11.9948 43.163
3.24238 11.2413 44.8266
3.50361 11.2169 39.5544
3.07183 12.2005 50.5523
3.70865 10.9916 43.7401
3.19855 11.0009 41.6122
3.11557 11.7104 46.3101
3.55689 11.2552 44.9913
3.54378 11.684 45.0476
3.49239 12.3994 45.907
3.39255 11.4556 42.8306
3.31166 11.1554 42.2942
3.08924 10.8625 45.8552
3.46801 11.8257 43.286
3.16157 10.7142 45.8017
3.32636 10.6826 41.1826
3.16129 11.3595 46.8299
3.2734 10.9779 44.8842
3.2968 11.6661 43.9797
3.32735 11.6223 45.5736
3.2852 11.0955 42.8156
3.24417 11.8607 42.363
3.14178 9.99045 41.6147
3.22561 11.472 43.7089
3.18501 10.4261 43.1374
3.18325 11.6231 43.9786
3.20265 10.4715 42.2791
3.16457 10.267 40.9233
3.09815 10.9297 41.5744
2.91562 10.6323 43.4818
3.15224 11.7828 50.47
3.73447 12.2496 44.494
3.17349 10.5375 42.9111
3.23057 11.4846 42.3223
3.28725 12.4505 45.1809
3.27013 13.4619 45.2607
3.19049 24.4085 186.936
12.2925 25.5566 40.2186
3.01175 13.0762 45.4907
3.38166 12.5439 47.164
3.29764 10.7783 41.0212
3.09192 10.7817 40.3871
3.02423 10.8197 39.5197
2.81302 10.3421 41.6495
3.09437 10.772 45.4602
3.3817 10.6962 41.1913
3.02033 10.1936 36.7594
2.85895 10.4196 44.9196
3.29246 11.5527 43.8711
3.20871 10.6373 42.7892
3.12159 10.8318 41.0209
3.17313 10.1369 40.6195
2.97539 11.1276 41.9645
3.20529 12.1115 47.815
3.36666 11.3823 42.3785
3.13897 10.7535 45.1377
3.24802 11.7697 47.6485
3.48635 10.9893 43.8832
3.16354 10.2354 43.4621
3.05021 11.0892 41.2608
3.02876 10.314 44.375
3.23802 12.2841 44.6627
3.26134 11.7633 47.7995
3.36783 11.3856 43.1122
3.21268 10.3898 46.032
3.442 12.0367 45.6299
3.2094 11.0083 44.1535
3.13257 10.3794 41.3643
3.03347 10.259 43.5215
3.13483 11.2782 40.3453
3.03302 11.11 45.4049
3.36731 11.4077 43.5491
3.15631 10.4868 43.509
3.1615 10.9334 42.0289
3.15688 11.7933 43.6071
3.12899 10.4607 44.6863
3.36592 10.8214 43.8028
3.11889 11.9228 43.4139
3.23812 9.73247 39.0714
2.9702 10.3967 43.4095
3.23139 11.3845 44.2299
3.12881 10.224 42.0118
3.00992 11.0392 41.6716
2.9587 10.3744 42.0109
3.12452 11.4536 47.4301
3.41877 10.4706 42.6054
3.14027 10.8169 43.1183
3.0771 10.6025 43.3027
3.18047 10.9715 38.2393
2.90569 10.4807 42.3935
3.13856 10.4105 43.4062
3.27686 11.0577 43.3165
3.36251 11.0217 46.8561
3.38956 11.4472 42.4088
3.11347 10.9122 41.8629
3.05761 10.793 43.8981
3.26541 10.9045 41.7174
3.01963 10.6594 40.8215
2.96398 11.0718 45.3754
3.20335 10.3027 43.2703
3.14933 10.9814 41.6135
3.07246 10.9705 44.1902
3.36452 11.6165 46.0847
3.19748 11.2838 42.4265
2.93877 10.4836 45.9343
3.34809 11.2677 42.2244
3.17912 10.4013 43.9819
3.24169 10.4867 41.9483
3.06307 10.2805 41.975
3.108 11.526 38.1977
2.7994 10.8763 45.977
3.36287 10.1809 42.4415
3.10323 10.2682 42.2824
3.24319 11.9067 47.1768
3.41015 12.1575 48.976
3.45169 10.8062 43.2862
3.14625 11.6308 44.0893
3.25177 10.8632 45.4458
3.20438 10.9869 42.2124
3.22587 10.5309 42.5676
3.01656 10.7819 41.2432
2.99147 10.6326 44.6771
3.17654 11.0009 43.5182
3.18889 11.1213 44.7047
3.16176 11.1951 44.3829
3.28099 11.0665 43.3653
3.12813 11.7654 46.7974
3.40863 11.6932 46.3911
3.52301 11.2011 44.1922
3.24677 10.4223 39.6213
3.02355 11.3194 44.2964
3.26396 12.129 42.6681
2.96966 22.862 157.737
10.4344 0 0