# pn-170911/RbIIA-29-RbIIR-1280-1959.psd
# Power spectrum* (dif=0,1,2) (really just |FT|^2)
# NOTE: only the first half! (symmetric)
# weeks: 1280-1959
# 685 clock-days, 221 excluded
# PSD: 1441
6029.81 0.155289 0.0240369
336931 5.51491 0.0107517
1.73613e+06 34.9163 0.0116037
132677 4.91311 0.0109024
160856 9.27552 0.0115324
63232.4 5.04606 0.0113021
39930.1 4.828 0.0114066
33334.3 4.40809 0.0116736
27536.7 6.12573 0.0125198
19317.1 4.80068 0.0126317
16129.5 4.92926 0.013192
11985.8 4.57517 0.0134821
11196.1 5.10329 0.014672
9228.63 4.75877 0.0146374
8072.63 4.98975 0.0152502
6757.17 4.47444 0.0158051
6054.48 4.66793 0.0166092
5544.87 4.77601 0.0173636
4885.12 5.14218 0.0180736
4115.81 4.63934 0.0190985
4015.16 4.66064 0.0199919
3615.2 4.54414 0.020507
3130.3 4.64102 0.021746
2865.36 4.31899 0.0224346
2651.34 4.70609 0.0231869
2389.2 4.31415 0.0240306
2306.24 4.85989 0.0263617
2031.08 4.6537 0.0259713
2105.42 4.98024 0.029144
1764.63 4.73848 0.0315701
1746.08 4.77206 0.0303466
1684.43 4.85792 0.0337476
1456.74 4.62842 0.0349186
1444.12 4.64057 0.034913
1443.8 5.10354 0.0402842
1222.08 4.50643 0.0379607
1288.77 4.83373 0.0411761
1148.02 5.16189 0.0439645
1181.17 5.30154 0.0478807
1041.86 4.85006 0.0459499
1024.19 5.1437 0.0510422
934.193 4.789 0.0490818
903.494 5.25482 0.0564098
916.979 5.3568 0.058471
807.082 5.04763 0.056363
831.759 5.14847 0.0605677
882.002 5.8204 0.0675667
775.983 5.30604 0.0660862
743.646 5.60269 0.0713956
702.675 5.41768 0.0738351
671.781 5.5052 0.0751119
691.113 5.7685 0.0832055
663.868 5.75233 0.086205
625.931 5.69957 0.0851025
634.367 6.05509 0.0952028
597.649 5.98715 0.0955547
571.993 5.7516 0.0969907
551.2 5.99878 0.104328
529.201 5.83088 0.101106
538.708 6.31514 0.119422
484.408 5.88939 0.114567
534.565 6.58677 0.12682
534.275 6.83981 0.132743
495.225 6.75007 0.139952
486.92 6.86104 0.142221
463.727 6.45435 0.140018
470.561 6.86927 0.15144
442.803 6.69156 0.152697
442.08 6.72352 0.158249
444.594 7.6458 0.187469
430.704 7.31856 0.179007
390.457 6.70849 0.173389
421.752 7.42671 0.193555
422.566 7.61777 0.201587
417.417 7.92249 0.218554
391.219 7.73327 0.220287
350.446 7.14839 0.209681
353.738 7.11057 0.211747
364.936 7.86587 0.235412
335.533 7.59654 0.235751
343.07 7.61582 0.246112
338.003 7.82777 0.25706
365.043 8.8289 0.296299
322.155 7.74381 0.261255
343.795 8.70915 0.306248
343.065 8.59759 0.305063
308.638 8.50761 0.31863
320.832 8.96949 0.332082
307.885 8.61567 0.331241
331.073 9.7868 0.377823
283.24 8.1089 0.322032
297.603 9.246 0.368823
275.722 8.25791 0.343267
271.615 8.57488 0.3592
271.315 8.72982 0.374774
269.543 8.91656 0.395009
265.6 8.88701 0.397148
265.835 8.94884 0.412236
265.137 9.65009 0.451437
261.836 9.45885 0.44412
270.258 9.79386 0.490725
237.75 9.24632 0.459767
245.466 9.84171 0.492431
239.576 9.30673 0.484441
254.261 10.132 0.522338
250.497 10.0428 0.535461
240.005 10.0654 0.551481
231.237 9.93239 0.552174
232.713 10.0979 0.581404
236.762 10.4447 0.600314
228.756 10.2552 0.598185
223.173 9.94973 0.588921
229.409 10.5044 0.640585
225.277 11.2468 0.69257
218.093 10.777 0.685692
218.543 11.1707 0.720852
206.188 10.8801 0.69978
211.055 11.2973 0.734709
200.249 10.7631 0.724584
214.736 11.2828 0.768487
212.384 11.6994 0.802866
194.478 10.8403 0.770307
203.151 11.4711 0.821475
203.943 11.5173 0.839721
187.949 11.0451 0.815458
191.422 11.3701 0.856454
199.403 12.2977 0.917359
181.365 11.1132 0.885281
199.339 12.5611 0.987643
180.102 11.6031 0.932767
178.345 11.5944 0.929098
177.494 11.4289 0.94452
184.999 12.7287 1.06096
197.738 13.8595 1.17817
165.498 11.9267 1.0242
175.19 12.1065 1.05255
169.811 12.4 1.08881
178.577 13.4071 1.21965
172.846 12.875 1.1795
179.418 13.5008 1.22891
159.356 12.3099 1.15521
167.42 12.8749 1.22882
153.215 12.2511 1.17469
158.149 13.0749 1.28319
169.341 13.9594 1.38245
167.49 13.8402 1.38526
159.886 13.4529 1.36759
164.155 14.1551 1.44891
154.381 13.5217 1.41384
158.024 13.665 1.45327
158.196 13.8028 1.46727
158.584 14.2579 1.54386
152.888 14.0256 1.53442
157.122 14.7187 1.63888
152.226 14.4042 1.63215
145.861 14.0732 1.59497
156.653 14.8461 1.71508
139.668 13.6403 1.60077
134.518 13.0493 1.53775
140.35 14.2854 1.71554
133.704 13.6917 1.68609
139.691 14.395 1.76191
138.76 14.3977 1.7973
144.532 15.4456 1.94235
130.488 14.002 1.78103
140.085 15.4278 2.01157
142.964 15.594 2.01621
138.68 15.2981 2.03623
137.699 15.3749 2.06904
125.672 14.3643 1.96773
134.575 15.1124 2.0382
125.919 14.6881 2.03365
126.874 14.7135 2.07126
129.135 15.2149 2.17066
128.942 15.388 2.22726
129.937 15.9788 2.32122
124.83 15.6143 2.29836
118.669 14.6598 2.17966
115.686 14.679 2.20879
121.203 15.5297 2.34304
119.835 15.7051 2.41625
119.912 15.1614 2.35381
116.441 14.9374 2.32047
118.128 16.0801 2.5921
111.544 15.4817 2.46156
115.461 15.7918 2.53051
104.855 14.1976 2.3049
116.803 16.6218 2.75081
106.557 15.7585 2.65611
115.34 16.7378 2.84111
114.602 16.4791 2.80936
107.176 15.8969 2.75646
107.927 16.3524 2.88536
111.2 16.6516 2.93438
111.915 16.7604 2.93625
110.369 17.0314 3.05551
108.399 17.2099 3.06183
108.683 16.9446 3.09307
104.751 17.0084 3.18112
103.581 16.8974 3.14199
104.853 17.4458 3.31874
101.147 16.4511 3.10846
103.94 17.4654 3.36483
98.139 15.5379 2.9875
108.612 18.1801 3.56763
99.2521 17.1572 3.3962
101.484 17.2263 3.39772
102.473 18.0075 3.63776
104.07 17.7787 3.57843
100.602 18.3057 3.73629
95.369 17.4173 3.63091
97.6381 17.7683 3.73631
99.8759 18.0603 3.77228
94.1069 17.7095 3.75946
92.0321 17.3082 3.73121
101.066 18.9507 4.12637
91.4523 17.0403 3.67947
90.5283 17.147 3.81235
87.2364 16.9814 3.79472
86.5232 17.1693 3.86691
87.248 17.4088 3.96554
86.2456 17.1202 3.93752
85.3223 17.719 4.07562
88.2619 17.77 4.13107
93.2368 19.4306 4.57215
84.2697 17.0889 3.96106
87.4735 18.6186 4.48652
79.3848 17.1762 4.20836
92.0036 18.8468 4.55156
91.2885 19.1936 4.58155
83.1477 17.7095 4.41307
90.0463 19.2019 4.78098
85.3306 18.5347 4.61317
83.788 19.0301 4.87668
84.5829 18.5557 4.70229
85.9587 19.3128 4.92899
76.5365 17.1737 4.42464
82.4231 19.0939 5.05208
78.1386 17.5383 4.64312
83.1963 19.3021 5.20399
82.3158 19.5606 5.18986
76.9339 17.9675 4.98287
77.3326 17.871 4.84261
75.0519 17.5274 4.72762
78.4126 18.762 5.13012
75.1224 18.8957 5.29237
81.0889 20.4854 5.75428
74.5015 17.9793 5.12902
80.2029 19.8855 5.81799
79.0411 20.2788 5.78968
78.1207 20.5318 6.0829
75.0677 19.3752 5.59783
72.0891 19.6656 6.02844
82.1942 20.1435 5.83053
71.8686 18.9851 5.63387
78.2752 20.842 6.25108
71.6939 19.282 5.90471
81.4184 22.5276 6.85119
69.3948 18.5225 5.69686
71.9669 20.7093 6.5936
70.5678 19.2735 5.93607
75.0736 20.8705 6.72306
69.0616 18.8047 5.92652
68.4232 19.8403 6.38618
69.079 19.7614 6.36036
70.7878 20.3117 6.71761
71.2206 20.7037 6.65763
69.1704 20.1746 6.72555
67.7159 20.591 6.84289
63.6674 18.9108 6.31825
63.8507 19.329 6.48965
67.3209 19.7651 6.59032
59.1255 18.8767 6.6537
61.5498 18.2104 6.25935
63.7707 20.5957 7.22205
64.7694 19.5689 6.82716
60.4951 17.9244 6.4051
60.1443 18.95 6.73835
62.455 19.7624 7.19904
62.6596 19.972 7.12173
62.6435 20.2299 7.2852
62.082 20.3843 7.47121
64.6623 20.8318 7.63661
63.9756 20.5445 7.52399
58.3441 19.1327 7.2019
57.6893 19.0153 7.24863
59.4902 19.5715 7.27719
54.9493 18.7109 7.14506
62.2453 20.7331 7.95865
58.3319 19.452 7.46809
60.3812 20.1765 7.63378
56.5212 20.0471 7.89116
56.6372 20.2848 8.00992
58.0232 20.2079 7.90416
59.6579 20.5585 8.24209
58.602 21.1591 8.49932
56.2345 19.9435 8.19852
60.4132 21.3523 8.62729
54.749 19.2208 8.00608
59.6923 22.4072 9.00774
55.4283 20.1464 8.49775
56.6735 20.4721 8.40929
51.9396 18.5758 7.96575
57.4049 20.9855 8.73203
54.8508 20.4163 8.57858
58.2604 22.3145 9.69649
55.1858 20.3003 8.46613
53.2166 20.9353 9.21466
56.5712 21.1261 9.11199
54.7508 20.964 9.33358
55.6973 20.72 8.92811
50.942 20.4303 9.22261
53.9554 21.5909 9.58564
44.4715 17.9154 8.24802
54.9868 22.3733 10.0333
50.1021 20.671 9.26002
54.4072 22.3775 10.2283
50.052 19.6889 9.09028
53.7693 22.4607 10.3894
48.7645 20.6512 9.68779
48.453 20.0188 9.59971
49.6765 19.9199 9.22563
48.8071 20.3785 9.81058
53.7597 22.3229 10.6323
47.1355 20.2097 9.71128
51.8102 21.4595 10.2071
47.1908 19.8991 9.56761
46.1517 20.6392 10.1167
49.3874 21.1847 10.2526
48.9006 21.4313 10.7462
46.1964 19.8983 9.92914
46.3686 20.6048 10.5409
48.2596 20.4582 10.2473
46.284 21.0874 10.7963
44.4225 19.3681 9.89766
47.4629 20.5408 10.42
46.1749 20.671 10.4182
44.6854 20.4437 10.7372
47.2872 21.6233 11.097
41.9127 19.3865 10.1109
48.6669 22.8174 11.7916
41.4147 19.015 10.2728
42.7713 19.4573 10.2513
41.8431 20.6371 11.0409
37.3306 17.5891 9.63821
43.8171 20.0978 10.5889
41.2749 19.8981 10.9133
40.2539 19.2446 10.5424
38.9714 19.1561 10.5103
43.368 21.2276 11.7383
40.8764 20.576 11.3778
41.6669 20.4188 11.383
43.1064 21.6653 12.407
39.9467 19.8902 11.4562
41.9212 20.1808 11.1451
38.6274 18.9637 10.9404
38.6748 19.9991 11.6432
41.1623 20.2372 11.7316
37.9657 19.7597 11.3382
38.3985 20.3638 11.9302
40.7818 21.3131 12.3892
41.1701 21.486 12.8017
40.5143 20.5391 12.1032
37.7928 19.4942 11.6869
42.5701 22.0739 12.9405
35.7047 19.1212 11.4712
36.2725 19.1728 11.5471
35.759 18.6151 11.4428
37.3615 20.2285 12.3335
39.9846 22.0275 13.5855
35.7993 19.3136 11.9011
37.6354 20.5443 13.118
38.4806 21.1812 13.2048
36.4206 20.4481 12.4105
34.5915 19.9829 12.8774
36.0327 21.4455 13.5463
35.0142 19.7551 12.7528
35.9636 20.0745 13.004
35.7106 20.0974 13.0689
37.3559 20.749 13.0549
36.503 21.2243 13.7247
33.3833 20.0845 13.059
34.0136 19.3241 12.8158
35.8033 20.7968 13.4519
33.684 20.485 13.7947
36.2317 21.0899 13.8271
32.6568 19.5935 13.4412
33.2797 19.6784 13.3421
34.1509 20.178 13.5514
32.1418 19.6284 13.2213
32.0547 19.6196 13.6959
32.3158 19.0485 12.8374
31.5303 19.4418 13.5887
33.4102 20.2075 13.7389
29.023 18.6174 13.1554
31.9274 19.8133 14.14
32.6291 19.9896 13.6689
32.8085 20.6014 14.5777
34.35 21.3015 14.8706
32.4731 20.2607 14.047
31.2815 20.4444 15.0263
32.0234 21.4558 15.5147
30.7593 20.1498 14.759
31.6594 19.8436 14.3479
31.9215 20.1301 14.4315
30.6274 19.6028 14.6563
30.52 20.0608 14.6031
29.7067 19.5093 14.2294
30.7525 20.3794 15.2908
32.9536 21.1383 15.5356
29.4335 19.2111 14.5032
28.0864 19.0767 14.5896
27.9864 19.0487 14.8005
31.0147 20.7506 15.7827
31.0348 21.0007 16.0369
27.7918 18.831 14.5432
30.3493 20.4936 15.619
30.1701 20.7157 15.9711
30.2026 21.1433 16.6141
29.3943 19.9827 15.7194
32.4234 22.1978 17.2905
30.4784 20.2255 15.7548
29.8573 20.7904 16.2633
30.1077 21.2941 17.247
29.535 19.865 15.5742
28.3097 20.298 16.2733
30.5614 21.1474 16.8603
29.2335 21.0115 17.3978
27.9257 19.7582 15.8524
28.3673 21.3301 17.3739
29.9436 21.0289 16.8718
26.411 19.0417 15.5304
26.2697 19.6369 16.5144
26.7942 19.8402 16.3417
26.1523 19.7272 16.2321
26.1099 19.3754 16.3403
27.3295 20.1107 16.6695
27.5 21.3838 18.2999
28.7076 21.3382 17.579
27.2123 20.0411 17.3606
27.8458 20.6392 17.9117
28.3742 21.363 17.6913
24.5369 19.1763 16.8589
28.1744 21.2966 17.9811
26.825 20.4514 18.0173
26.6255 20.1399 17.283
26.5571 20.1421 17.6701
26.1896 20.3183 17.4085
26.1836 21.0019 18.509
25.6613 21.2892 19.172
26.1207 19.8521 17.9738
27.0614 21.0122 18.4566
26.2604 20.624 18.2799
25.3273 20.1444 18.3378
24.6492 19.1195 17.1401
25.2033 20.4723 18.6056
26.25 21.1713 19.1129
25.8274 21.0168 19.3503
24.6694 20.3859 18.5406
24.5301 20.06 18.5287
24.3881 20.5629 19.6993
25.4119 20.995 19.5266
24.4669 20.2906 19.3444
25.1684 20.5554 18.8803
23.5838 19.3477 18.2369
23.9182 20.0189 18.6853
23.6961 20.3961 19.8944
25.4752 21.3579 20.3641
24.7295 20.1746 19.0099
23.9725 20.9561 20.0002
23.6338 20.403 19.8325
22.9413 20.4368 20.4104
25.4469 20.9302 20.0851
23.8106 20.2379 19.965
24.8291 20.8977 19.9075
23.2533 20.7756 20.4562
24.3955 20.3863 19.7482
22.8196 20.2976 20.3569
27.2235 23.278 22.2777
21.2931 19.1873 19.6533
22.7611 20.147 20.2898
22.606 19.9858 19.757
23.869 20.7949 21.1108
22.5423 19.432 19.2299
22.6293 20.6039 21.2323
23.6254 21.4994 21.6967
22.3567 20.4291 21.2477
22.8878 20.5017 21.0182
22.1282 20.2715 21.2474
23.1739 21.3453 21.7244
21.4864 20.1599 21.5014
21.7348 19.5529 20.1693
22.8058 21.3397 22.3086
23.0814 21.0094 21.8884
20.5379 19.208 20.3092
20.6146 20.0426 21.6812
21.6932 20.0601 21.3748
21.5619 20.6624 22.7366
22.0035 20.388 21.399
21.3179 20.4252 21.7798
22.444 20.5626 21.7778
21.9388 21.4137 22.9376
20.2805 19.3468 21.2661
19.7411 18.6387 20.2881
21.418 20.8146 22.47
20.4464 19.2735 20.8762
20.384 20.0559 21.9182
19.9208 20.5613 23.4559
21.857 21.2746 23.4547
20.6187 19.5049 21.6877
19.154 19.0447 21.6276
20.9558 20.6469 22.6913
21.8226 21.2975 24.0308
21.6038 21.3519 23.5143
20.9836 20.8962 23.5462
20.8978 21.6361 24.6814
20.2979 19.2846 21.6886
20.414 21.2782 24.4986
20.9817 21.3883 24.6737
19.9496 20.8084 24.2054
19.8406 20.578 23.7562
20.21 21.1094 24.9059
20.3227 20.2133 23.1893
20.9939 20.8584 23.8642
18.7983 19.5921 23.5074
18.3775 18.6936 21.3467
18.1858 19.1581 22.7877
19.5679 20.0218 23.3242
19.0798 19.8574 23.4332
17.864 18.5097 22.2491
18.28 19.6148 23.9685
18.9355 20.8084 24.965
19.0272 20.4321 25.1836
19.3875 19.4933 22.6298
18.4518 20.2855 24.4607
18.6959 19.7365 23.8541
18.3143 20.1706 23.9239
17.4213 19.6301 24.5034
17.5642 19.8509 25.2042
18.5137 20.1446 24.8754
19.0401 20.4589 24.4903
17.9113 20.0085 25.8923
18.9131 20.1276 24.6242
18.264 20.719 26.2965
18.2476 19.5844 24.596
18.3205 20.2486 25.2955
18.6714 19.5977 24.2159
17.771 19.787 24.7146
17.4392 19.7935 24.6541
16.4731 18.996 24.8476
18.8317 21.5489 27.0672
17.697 19.0298 24.2878
18.2164 20.5732 26.2613
17.0511 18.9517 24.1717
16.9013 19.5446 26.5097
17.5888 19.7322 25.1999
15.6041 17.5627 22.7284
16.6824 19.9594 26.42
17.5039 19.5667 24.8954
16.4325 18.8738 24.022
16.3048 19.7576 26.5157
16.9469 20.8378 27.9497
16.7554 19.5079 26.103
17.3057 20.3822 27.4806
16.787 19.6741 25.6304
16.2643 19.03 25.841
17.3436 20.8456 27.8764
16.1249 19.6219 27.4549
16.9769 19.4224 25.2509
15.7321 18.5588 25.1483
17.1455 20.448 27.7877
17.1465 20.6647 27.6068
16.5128 20.0862 27.5157
15.5307 18.4569 25.119
15.4421 19.2306 26.2582
16.354 19.6088 26.7291
15.587 19.1909 26.5321
15.367 19.0863 27.2304
16.3892 19.8895 27.7795
16.1254 18.8963 26.6113
16.538 19.3907 26.7586
16.8625 20.2391 27.918
15.0196 18.2649 25.8299
16.193 20.2943 28.5538
14.6543 18.5204 26.0927
15.3354 19.7087 28.0851
14.6148 18.2997 26.2762
14.9443 18.7488 26.683
15.7188 20.7446 29.3132
14.6526 18.4211 26.9356
14.5298 18.209 26.8486
15.9027 20.3094 29.1138
16.1218 21.3526 30.7971
15.5411 19.0631 27.9138
14.6329 18.8969 27.9047
14.2382 17.9964 26.1422
14.6835 19.3435 28.8742
15.0148 17.9623 25.8474
14.7729 19.7433 29.0987
14.3491 19.1126 28.169
14.8672 18.65 27.7054
13.7315 17.2865 25.8953
13.9702 18.2487 27.5421
14.0529 19.1164 28.7795
14.2436 19.1161 28.7548
15.3177 18.6063 26.5452
14.0737 18.499 28.1785
14.047 18.7097 28.4393
14.1516 19.0713 29.2498
13.8473 18.4687 28.3958
14.5521 18.7275 27.8964
14.7712 20.6878 32.744
14.6168 19.464 28.4774
13.3776 19.2122 30.4507
14.081 18.2149 27.0768
13.2785 17.9182 27.6089
13.1446 18.4069 28.5577
12.7304 16.9961 27.8898
14.3028 19.4175 29.397
13.8046 18.307 28.5765
12.9896 17.7467 28.2107
14.21 19.0592 29.4501
14.0445 19.1139 30.5026
14.419 19.4867 29.8823
13.2803 18.0962 28.8075
13.6511 18.9307 28.2915
12.4808 18.7658 31.1769
13.5554 18.9952 30.1726
13.0729 18.6337 30.3169
13.8916 19.1942 31.1622
12.4929 17.2618 28.4202
14.4371 19.5401 30.6987
13.2344 18.9834 31.0893
13.533 19.282 30.087
12.4671 18.1664 30.7426
13.241 18.6477 31.133
13.9878 20.2001 32.8587
13.2364 18.3725 30.0591
13.1761 18.6581 30.238
13.2768 18.7308 30.7266
12.3387 17.5874 29.5966
12.82 17.9182 28.8756
13.2914 18.928 31.9091
11.9126 19.5116 31.7108
12.1687 18.2214 30.876
11.8865 17.1989 29.5531
12.838 18.1609 30.0499
13.066 19.1124 31.4253
12.1387 17.2872 28.9978
10.7729 16.4543 29.1621
12.1142 18.1734 31.527
12.6563 18.4036 29.6349
11.4993 17.6634 30.9119
12.3405 17.9212 29.6697
12.1909 18.6871 31.2035
11.506 17.5971 30.8662
12.2595 18.0918 30.3286
11.5329 16.8536 29.0262
11.2813 18.2911 33.2879
12.3544 18.2594 32.1574
13.0045 19.0576 31.8612
12.2139 18.7926 32.3238
11.9323 17.7073 30.8596
11.8167 18.3938 32.5494
11.4271 17.6007 30.6232
11.7889 18.1113 31.6474
11.2949 17.541 32.3019
12.3392 18.3702 30.8219
10.9084 18.3844 34.0255
12.2235 19.2125 34.128
11.1013 16.7633 29.7081
10.8872 16.3854 29.9021
11.2855 16.8924 28.8378
10.8517 17.1635 30.5947
10.5372 17.0009 30.2982
10.5029 16.8794 32.1252
11.4948 17.6772 31.5295
10.6445 16.9229 30.875
11.4953 18.1107 32.5182
10.8102 17.4768 31.7306
10.9032 17.822 34.1118
11.569 16.8266 29.8694
10.9962 17.5472 31.3188
10.8745 17.3752 30.9424
10.0726 16.0514 31.5034
10.924 17.1295 30.9805
10.6773 17.391 33.8966
11.2855 16.785 29.862
9.78043 16.5813 31.2553
10.528 17.3103 32.7367
10.6461 17.3655 33.1091
10.7918 16.6009 30.491
10.6716 17.3532 32.5558
10.6663 17.3056 33.6293
11.4105 17.4225 31.3025
10.7753 17.3283 31.6861
10.3129 16.5274 31.9138
10.0984 17.2974 32.5112
10.2437 16.7062 31.3396
10.0092 17.5055 33.8
9.46026 16.0589 32.2942
10.3908 16.2867 30.5689
10.6271 17.8095 34.3793
11.1077 18.2163 34.4792
10.3104 17.5564 33.6514
10.0958 16.3908 31.6201
9.97564 16.9294 32.7477
10.4633 17.4672 34.0478
9.92388 16.6085 31.9222
10.131 17.5476 34.5739
10.1462 17.7678 35.2822
10.5136 18.0194 35.1521
10.221 16.1864 32.1684
10.0763 17.4124 34.4579
9.58007 16.0258 32.0577
10.3409 17.0429 34.3037
10.7902 18.7409 36.3751
10.8757 18.5696 35.5614
10.2638 18.3812 36.5115
10.4765 18.151 35.8623
10.2741 18.934 38.2316
10.1841 17.4416 35.4797
10.5012 19.4685 39.3865
10.4435 17.8379 36.8612
10.5192 18.0936 35.7592
9.81083 17.3123 33.8477
9.80524 17.6092 36.4762
9.99465 18.0571 36.518
9.94612 17.3796 35.6151
9.70056 17.1041 35.5573
9.97714 18.0694 36.1543
9.37673 17.4798 35.5893
9.47709 17.3983 36.9765
9.656 17.1203 35.4403
9.8561 17.4283 36.1315
9.57534 17.0034 35.925
10.2627 18.921 38.6371
9.55127 16.6974 34.565
9.14645 16.8506 34.9008
9.47235 17.5969 37.3905
9.22994 17.3008 37.5859
9.73107 17.1028 35.5129
9.46928 16.3891 32.5626
8.94906 16.695 34.9236
8.43922 15.769 34.4191
9.24135 16.2385 34.8569
9.70804 18.3413 38.2174
10.0988 18.8417 38.9336
9.10402 16.8394 36.2256
9.80646 17.8955 38.1717
9.31053 16.728 36.0893
9.10855 16.1669 35.5018
9.29129 16.9982 37.5747
10.1609 17.3462 35.3547
9.40762 17.6824 37.79
10.299 18.9628 38.513
9.30433 17.3226 37.616
9.48163 19.0671 41.1746
9.03304 16.1482 35.4965
9.28661 17.1395 37.1079
9.44213 18.3444 41.0768
9.82483 17.3039 35.6879
8.83204 16.9943 36.1976
9.01826 17.0603 37.6289
8.77061 17.1946 37.5529
9.10102 18.3426 41.416
9.96153 17.8638 40.5029
9.72358 18.254 37.7771
9.29892 18.0352 40.3581
9.12818 17.0038 36.4803
9.01862 17.9364 38.103
8.43194 16.9747 37.9021
8.20104 16.5016 38.6874
9.0471 17.025 37.2787
8.55667 16.6466 38.5729
8.67071 16.237 35.9914
8.15113 16.6842 37.9075
8.82973 16.5235 36.9609
8.52668 16.6082 36.8849
8.35862 16.7281 38.8693
9.04122 17.2514 40.1978
9.29522 17.0574 36.0307
8.58531 17.6714 40.5784
8.36013 16.9474 39.5179
8.65551 16.39 34.9459
8.07454 16.491 38.364
8.9327 17.8309 41.8596
9.12568 17.6329 38.665
8.63814 17.5921 40.6015
8.39263 17.3673 39.6311
8.26205 16.2287 38.1633
8.45998 16.3837 36.8382
7.68317 15.5712 37.77
8.57941 16.662 38.5919
7.94571 16.137 39.1963
8.45881 17.5001 39.6437
8.09829 16.3119 38.5902
8.71503 17.3659 40.7697
8.38776 16.4741 37.7822
8.05225 16.6123 39.0932
8.28481 16.613 38.4133
8.15094 16.1966 37.5004
7.68182 16.3301 38.8629
7.40005 14.8139 34.6
7.21919 15.657 38.6341
8.15071 17.5839 41.5237
8.53998 16.2243 38.0715
7.95137 16.5649 38.9456
8.04843 17.1799 40.8022
8.19809 16.9616 39.9951
7.84202 15.9717 37.587
7.95048 17.416 41.3189
7.74128 15.3355 37.9232
7.95077 16.0777 37.9393
7.77388 16.3986 39.7269
7.72356 16.957 42.2913
8.36971 16.9379 39.1566
7.82142 16.1609 38.5959
7.82063 16.8437 40.0152
7.47023 15.0374 36.4651
7.61268 15.8834 39.333
7.9745 16.6818 40.2116
7.83511 16.7546 42.2266
7.9082 17.2654 41.5786
7.89624 16.5451 42.5557
8.18393 16.9064 39.945
7.25046 15.5952 39.2703
7.57573 15.2462 38.7102
7.47179 16.1885 39.9654
7.83856 16.0919 39.3208
7.48736 15.4308 38.1985
7.21238 15.989 41.264
7.84311 16.0555 38.9721
7.6965 15.6497 39.9852
8.02916 16.4972 39.7305
7.64523 16.1156 38.5692
7.12616 15.8125 39.8799
7.08622 14.8699 38.7461
7.30708 15.6875 38.9514
7.45432 15.921 39.0882
6.8513 14.412 36.484
6.92797 15.0077 37.6556
6.96577 15.6623 40.6803
7.3994 14.8363 35.3839
6.81448 15.4494 40.7779
7.31369 15.3002 38.7461
7.19799 15.5655 39.2876
7.2661 15.1399 38.2209
7.25873 14.9392 36.9596
6.63544 15.1353 38.7746
6.5902 14.9083 38.7337
6.75716 15.1693 40.031
6.84906 15.6965 40.0569
6.96585 14.4095 35.688
6.64026 15.0317 39.5781
6.66658 14.7712 39.8207
7.015 14.5058 38.4847
7.50283 15.6473 40.0436
7.1741 14.753 37.3114
7.05928 15.6222 40.5806
6.78843 15.1562 38.17
6.72755 16.0586 41.8387
6.77627 15.0891 41.022
7.10369 16.5669 44.1349
6.94193 15.5392 39.515
6.92521 15.023 39.2716
6.71322 15.5309 43.4795
7.54872 15.7212 39.7015
6.79351 15.7161 39.0096
6.646 15.7143 42.7673
6.9714 15.4852 40.0215
6.40557 14.5481 38.9745
6.64742 14.8543 38.7568
6.62757 15.1884 41.626
6.84754 14.9101 38.7128
6.72685 15.2953 41.0548
6.59866 14.7561 37.9066
6.16549 14.6571 39.3023
6.609 15.7158 40.7953
6.06316 14.8023 41.2408
6.5969 14.0229 38.3761
6.67193 14.6727 38.2783
6.38511 14.3449 39.1184
6.31637 14.3973 38.1238
6.16668 14.5177 39.5436
6.41095 14.1513 38.5874
6.41752 15.59 41.9387
6.39186 14.8604 40.3871
6.58344 14.8868 40.4427
6.38821 14.8976 42.6823
6.84837 14.7651 39.8068
6.16237 14.2255 37.7348
5.70534 13.6644 38.0144
6.18374 14.6684 39.2346
6.26975 14.706 39.8868
6.25548 14.7882 39.714
5.82768 13.6784 41.1458
6.69373 15.0345 41.1973
6.35732 14.3192 39.4162
6.15152 15.4656 40.9211
6.03788 14.0046 38.5416
6.0104 13.9027 38.6902
6.10707 14.6852 40.781
6.1167 13.868 39.0053
5.98536 13.901 38.1846
6.19088 15.1648 43.9193
6.18167 14.244 39.7907
6.2874 15.2033 41.3713
5.8169 13.4166 38.0953
6.20024 14.8565 42.3172
6.12932 14.5372 41.0935
6.19459 14.7342 39.7338
5.99092 14.2987 40.2437
6.12433 15.2551 42.6636
6.22942 14.4829 39.4063
6.35922 15.2519 43.2024
5.91498 13.9746 38.733
5.79343 14.7718 42.4758
6.17756 14.5875 41.4881
6.15884 14.6999 41.5254
5.70041 13.5543 37.824
5.63096 14.1871 41.8394
6.04131 14.4996 40.4878
5.84912 14.6404 40.2502
5.39392 13.5338 41.2163
6.08602 14.7089 42.9796
6.4089 14.3393 41.1281
6.09595 14.7905 39.8502
5.6481 14.9632 43.9403
6.02131 14.7779 42.5779
5.86056 14.1928 41.1587
5.83298 14.7695 44.8307
6.09598 13.6568 39.4553
5.89026 14.3349 41.8856
5.73114 14.0994 41.042
6.03333 15.1964 43.8231
6.09072 14.7542 41.1196
5.63917 14.2325 42.4045
5.87818 14.2063 40.4356
5.61878 14.5606 45.1075
6.18546 14.783 44.5903
6.3061 14.7222 41.6995
6.02669 14.6241 41.5225
5.63553 14.0732 41.1319
5.58907 13.7917 39.8024
5.39876 13.5081 42.3467
5.84993 14.2718 42.4051
6.02858 15.2272 44.4383
5.88863 13.5306 39.3921
5.54402 14.2192 41.1243
5.56865 14.6906 42.5441
5.59172 13.6744 41.1114
5.53478 14.4114 44.1155
5.81048 13.6865 40.2689
5.65996 14.4614 42.1419
5.57133 13.2918 40.9265
5.64289 13.8663 40.689
5.65484 13.5091 38.7279
5.34407 13.9989 42.8409
5.34949 13.5866 40.0603
5.40002 13.6841 41.2461
5.49077 13.5339 42.9464
6.01518 14.097 40.6387
5.4415 14.0351 44.0138
5.62001 13.8177 42.0306
5.60285 15.0138 44.3152
5.77004 14.7519 43.7376
5.65108 14.6574 45.8866
5.77629 12.9 38.0385
5.20977 13.0928 40.01
5.18567 13.3731 39.4519
5.04202 13.8206 41.6743
5.34443 14.3581 44.3634
5.57782 14.4227 44.5782
5.65258 14.3357 42.94
5.5308 14.1238 40.1738
5.0766 13.5419 41.6157
5.05113 13.1001 41.7908
5.39053 13.7323 43.8684
5.61483 13.8343 42.7674
5.53826 14.2538 42.344
5.36028 14.2238 43.4461
5.54136 13.8584 42.2979
4.96715 13.2347 40.6995
5.16025 13.5644 42.4194
5.57543 14.2341 43.5139
5.1636 13.591 43.5119
5.38946 13.4399 43.0989
5.52573 14.3297 44.4835
5.38905 13.2599 41.313
5.24583 13.1873 41.2999
5.28611 14.2212 42.7174
5.05481 12.9333 40.4003
5.19367 13.441 41.4666
5.23582 13.6363 44.9331
5.43832 13.5004 42.4881
5.34901 13.8862 43.6601
5.66434 14.4048 43.6627
5.21816 14.0238 44.7138
5.38579 14.0193 42.8277
5.12662 14.5185 47.3511
5.54267 13.8285 43.3609
5.19215 13.2723 42.9116
5.21063 12.7758 40.0118
5.29385 14.1626 42.2169
5.04912 13.5339 43.3653
5.20779 13.9136 44.6381
5.39322 13.4381 40.6453
5.02355 13.0903 39.8927
4.89377 13.632 41.6011
4.96459 13.7217 44.0912
5.18929 14.1199 43.9707
5.24286 14.1693 44.3034
5.1669 13.7072 46.0366
5.26304 13.3654 42.0894
5.12136 13.1008 42.1481
4.80199 13.1085 43.4484
4.80799 12.5251 42.6736
5.02564 13.226 41.3773
4.88399 13.2414 42.7304
5.06537 13.4848 43.7079
5.04588 13.1613 43.8169
5.01227 13.4116 41.7979
4.99831 12.9881 39.4602
4.68851 12.8449 42.0013
4.88399 13.4979 44.0395
5.14974 14.0922 45.0316
4.82089 13.0789 43.0105
4.9408 12.9706 41.545
4.66903 12.6622 41.4149
4.82236 13.2532 45.2175
5.10378 14.3285 44.7459
4.9947 13.5525 43.7773
4.95013 14.0459 44.6671
5.14049 13.0478 42.3195
4.66521 12.2308 40.1768
4.37065 12.4888 44.7948
4.97403 12.4274 40.7607
4.90762 14.0615 44.1972
4.88639 12.0864 40.5342
4.66369 12.552 41.5326
4.79761 13.4223 42.5357
4.77698 13.3925 43.2123
4.54589 12.2995 43.8181
4.91481 12.686 40.0452
4.50334 13.4855 44.9054
4.94086 12.9102 42.8749
4.56167 12.0176 42.1119
4.8501 12.9535 41.9951
4.48407 11.962 43.0438
5.04004 14.1455 43.2735
4.75851 13.3868 43.3964
4.62985 12.971 41.3426
4.59719 13.5097 46.095
4.70729 12.6253 43.0752
4.93718 13.6462 43.6331
4.48935 12.4914 43.9792
4.9038 14.1528 44.0203
4.42038 12.3568 43.8868
4.61061 12.2332 42.1241
4.8763 14.5235 48.1931
4.79741 13.0755 43.9903
4.59219 12.9085 43.4114
4.48132 12.4018 42.8821
4.72041 12.32 43.1751
4.70104 13.0608 42.8222
4.75009 12.8625 41.6788
4.60453 13.3086 45.5205
4.68842 13.7106 45.23
4.64619 12.5616 41.8689
4.66778 13.4053 46.6204
4.86284 13.6362 44.221
4.53204 12.9542 43.3272
4.34429 12.1579 42.1537
4.55634 12.2546 42.5323
4.36505 12.1425 41.2936
4.23541 11.7601 40.1874
4.22657 12.3491 44.4131
4.69321 13.3119 43.1263
4.32983 12.4728 44.3715
4.54273 12.2385 42.3833
4.51842 13.5659 45.882
4.58063 12.8705 42.5035
4.29415 11.8452 41.7297
4.49389 13.0286 45.3285
4.74422 13.1271 45.3988
4.69697 13.5806 43.3622
4.33395 12.1422 43.1155
4.44049 13.2446 44.726
4.54683 11.7166 41.8444
4.51122 12.9321 42.3608
4.13201 12.2764 44.2097
4.64136 12.8054 43.5255
4.58632 13.2557 44.9261
4.45363 13.0436 47.1272
4.82461 13.5291 46.1682
4.57979 13.0506 43.5218
4.40148 12.6315 43.3805
4.26522 12.572 45.0875
4.58713 12.6508 43.4244
4.28074 12.2456 44.2943
4.35904 12.133 41.503
4.26439 13.1841 46.6163
4.59074 12.4469 45.6637
4.66939 13.2105 44.5751
4.44471 12.965 44.1639
4.4148 12.0047 41.2076
4.24755 12.3682 43.8268
4.41657 12.7677 45.7067
4.70185 12.8871 45.9872
4.6633 13.0897 44.1647
4.53726 12.8666 44.8112
4.25965 12.5436 42.1821
4.08738 12.7507 47.1513
4.7124 13.4868 44.2751
4.38145 13.3941 45.7357
4.27459 11.7448 41.6744
4.37003 12.5119 47.0526
4.54116 12.9763 43.8118
4.24993 13.0262 44.9965
4.26902 12.4667 45.3155
4.4777 13.253 47.55
4.75147 13.6121 47.6063
4.59244 13.1321 43.6929
4.05259 11.9532 46.3955
4.32182 12.9368 44.2251
4.41658 13.397 46.7018
4.46345 12.4628 43.4601
4.06799 12.8654 47.9969
4.48157 13.0332 44.9629
4.29698 12.6295 42.4429
4.17805 12.6006 46.3232
4.40493 12.238 43.8639
4.19175 12.621 46.9305
4.54666 13.268 45.3867
4.19525 12.7415 47.193
4.31812 13.0929 46.9407
4.38711 12.327 44.8631
4.27615 12.7987 47.4479
4.51723 12.6945 44.1451
4.23992 12.456 43.2994
4.23344 12.2081 42.8871
4.27389 12.7557 46.3773
4.2111 12.2317 45.1802
4.24854 12.9221 44.8632
4.218 12.3776 47.7912
4.56294 13.4737 44.6426
3.95323 12.7542 47.8776
4.48476 12.5986 47.4241
4.51263 13.4866 48.4676
4.42392 13.4907 50.7356
4.59595 13.9093 47.6743
4.39725 13.2462 49.5885
4.5149 14.0535 50.1557
4.68172 13.5494 46.6427
4.241 13.2742 49.0245
4.40357 12.7455 47.3041
4.37459 13.1289 45.191
4.19476 12.908 47.4423
4.31773 12.8032 45.2335
4.27969 12.6678 44.1022
4.03023 12.4741 47.239
4.30596 12.3428 47.2003
4.50901 13.0184 47.8683
4.38413 12.5371 45.711
4.21193 12.8399 45.6153
4.03519 12.4825 45.8374
3.89889 12.3634 46.2366
4.18257 12.658 48.1666
4.49329 13.2113 46.1759
4.2594 11.8156 42.0263
3.90508 12.1284 47.3885
4.30883 12.8482 44.608
4.0898 12.7749 46.8605
4.05853 12.4667 47.2649
4.21172 12.4778 47.0966
4.42168 13.338 45.1086
4.07053 11.6848 43.6531
4.10315 12.2113 45.1185
4.12137 12.5767 48.0547
4.29402 12.6758 46.0393
4.0396 12.8162 44.5537
3.86185 11.3527 44.8074
4.02348 11.154 42.5869
4.0313 12.3038 43.0343
3.99256 12.3863 44.2665
3.90901 12.1836 46.2182
4.07834 12.5189 45.497
4.04938 12.0672 44.6544
3.96207 12.2659 46.248
4.07954 12.8069 45.8506
4.04818 12.5075 46.0117
3.9792 11.931 45.6064
4.05969 12.5047 45.0429
3.84571 12.0764 44.1742
4.02521 11.842 46.0298
4.18746 12.5751 44.8171
3.7207 12.0513 44.6014
3.93858 12.2331 43.3337
3.64725 11.3798 44.2515
4.01113 12.1031 44.6388
3.87836 11.6219 45.3683
4.10659 12.4202 46.793
4.08182 12.7854 44.5813
3.84949 11.8644 45.7441
4.02 11.9754 45.2148
3.95444 12.1032 41.9069
3.62631 11.488 44.0963
3.85906 11.5956 44.4596
3.95184 11.9878 45.3987
4.01649 11.8302 44.7417
4.02026 11.3338 43.8463
3.78498 12.7931 48.0307
4.09382 12.1974 46.3977
3.98866 12.0801 43.9583
3.95816 12.9809 48.8817
3.98749 11.5047 42.6157
3.70892 11.7084 46.2174
3.91695 12.132 42.8266
3.84216 11.0307 45.9344
4.0084 12.025 42.2002
3.56409 11.7562 44.3706
3.67746 11.7475 46.5147
3.99441 11.6124 43.0155
3.80159 11.9322 42.7384
3.60522 11.4729 46.3209
3.99437 11.8351 45.9455
3.95448 11.855 41.1244
3.47072 12.1864 48.8392
4.03207 13.0926 47.8285
4.07255 12.5247 48.0652
4.04205 12.1745 44.8897
3.90463 11.7624 45.3503
3.95803 11.4459 42.3416
3.60869 11.8316 46.7289
3.98581 12.5532 45.9885
3.88749 11.9919 45.7174
3.91083 12.5505 46.5912
3.8402 12.0219 47.5462
3.81648 11.7673 46.0904
3.88622 12.0687 45.6634
3.87141 12.196 45.2688
3.96097 12.0632 46.3878
3.81296 11.5688 45.0765
3.87884 11.8833 43.9204
3.67563 11.7033 45.2812
3.75744 12.9378 47.3896
4.0122 12.3018 47.4854
3.82891 13.0433 49.7646
4.07363 11.827 47.6088
4.04893 12.1787 44.7266
3.79429 12.5561 48.8952
3.88872 11.3745 43.3355
3.75717 12.1424 45.3605
3.6564 10.7253 43.0901
3.59321 11.7614 42.909
3.43398 11.208 45.2529
3.70799 11.2299 43.8011
3.54991 12.4233 46.4943
3.79104 11.4121 46.2201
3.82739 11.7322 42.8531
3.66701 12.4826 46.9644
3.8362 11.5846 42.5851
3.52787 11.7896 47.9576
3.88019 11.6896 45.7422
3.82171 12.2064 43.7375
3.4316 10.7338 44.8551
3.77753 12.0531 44.2822
3.62796 11.4123 46.0322
3.72338 12.0676 47.2536
3.899 12.3432 48.1021
3.983 12.2589 45.5175
3.76733 11.5692 44.5516
3.72883 12.3531 47.3827
3.7838 11.2845 46.1111
3.89827 12.5256 45.1107
3.61618 12.3996 47.6643
3.85247 12.4304 45.9842
3.69424 11.5221 45.5707
3.78932 11.8367 45.7373
3.70586 12.4931 45.1573
3.61849 11.4275 45.8699
3.57297 11.1547 47.4511
3.78808 11.5861 45.538
3.73221 11.0366 43.5864
3.64648 12.3981 48.8842
4.0725 12.1676 48.228
3.88422 11.72 43.0089
3.67542 12.505 47.9115
3.96398 11.8576 44.8116
3.69999 10.9516 43.1072
3.59994 11.2375 45.1461
3.61398 11.1825 46.6692
3.84726 11.6222 44.6403
3.82717 12.4787 45.7258
3.686 11.387 43.2916
3.46804 11.2837 47.9479
3.87341 12.3434 46.5747
3.79432 11.628 48.2997
4.00501 12.5422 45.801
3.65332 12.09 47.4065
3.71906 11.9247 46.8285
3.7751 11.9825 45.6247
3.69013 11.474 47.9896
3.85141 11.891 44.228
3.5397 11.7749 47.06
3.77444 11.5948 43.025
3.52779 11.4599 47.7561
3.90586 12.1012 44.5931
3.5498 11.2155 47.7013
3.80035 12.156 46.0079
3.58774 12.4324 46.5846
3.67174 11.7134 46.9994
3.75214 12.6544 50.4287
4.00693 12.2086 46.3054
3.65401 11.7867 46.6575
3.7352 12.1689 50.0821
3.75479 12.2199 46.9261
3.74565 11.7475 43.2709
3.45089 12.1693 50.154
3.865 11.4087 45.0646
3.63219 11.7851 46.9282
3.77123 12.5019 47.7836
3.68199 12.0543 47.3032
3.90643 13.1793 48.3872
3.74371 11.4718 46.633
3.67561 11.9081 50.2235
3.92926 11.6005 44.7986
3.5811 12.0791 44.1263
3.38162 11.2467 47.5138
3.73309 12.1218 48.543
3.70546 12.3491 46.6723
3.51237 12.0946 47.4372
3.78026 11.7288 46.4294
3.69791 12.0539 47.3771
3.75791 12.2535 47.7516
3.81223 11.5842 46.6855
3.74502 12.7071 48.3248
3.7945 11.4494 46.3592
3.6246 11.6109 48.1507
3.85494 13.0837 50.179
3.8366 12.0994 48.9842
3.70155 12.5906 48.9626
3.77968 12.3723 47.1489
3.61325 11.7501 47.7175
3.79497 11.2542 44.0326
3.41071 12.8997 51.6654
3.90915 11.6289 46.2444
3.6315 11.3791 47.539
3.66553 13.1742 51.3409
3.91186 12.4589 46.8951
3.7012 11.3528 48.0718
3.7398 12.093 43.0051
3.32984 12.2865 50.0243
3.59655 11.8257 45.6916
3.68924 11.1374 44.8365
3.38128 11.8922 46.077
3.62128 11.6294 47.6448
3.66475 11.4403 46.1415
3.57616 11.4963 45.436
3.40127 11.7505 45.2229
3.43959 12.1973 49.8116
3.80369 11.7015 46.2792
3.535 11.416 44.2939
3.42175 11.8655 48.2766
3.77369 11.9331 48.1841
3.81715 11.5265 45.5576
3.55756 11.5833 45.2208
3.55952 11.3997 45.1712
3.40876 11.5047 47.268
3.62159 12.416 47.639
3.69034 11.8017 46.0079
3.73269 11.922 46.9201
3.52493 11.444 46.2991
3.69572 11.8713 42.5592
3.41259 11.0408 49.6274
3.69389 12.0694 46.5574
3.63242 11.2234 45.1858
3.63288 11.7923 48.0107
3.69347 11.26 46.4251
3.57259 12.4461 47.6298
3.61435 11.1267 47.9813
3.75918 12.7045 46.308
3.46897 11.9458 47.2557
3.6337 10.9006 45.4307
3.46143 11.5864 44.6915
3.52906 11.0642 46.7995
3.70479 11.8091 46.2442
3.51038 11.4902 46.2159
3.59205 11.4344 42.969
3.33791 11.7641 46.2463
3.65861 11.33 47.6897
3.90415 12.5722 47.1609
3.80095 11.2761 48.8972
3.83972 12.8881 47.2855
3.6874 11.4083 48.3646
3.75605 11.1625 44.8457
3.63118 11.8543 47.461
3.75178 11.8494 47.4443
3.70332 11.6879 47.4102
3.62393 11.9857 48.5586
3.7704 11.8055 48.6297
3.82397 12.4242 47.2135
3.61089 11.6974 45.212
3.58274 11.5205 47.1211
3.6987 12.0846 49.0264
3.80797 11.8962 44.6977
3.39488 11.5696 46.1193
3.44559 11.6385 47.2827
3.64012 11.9053 48.813
3.82828 11.9632 47.6597
3.67698 11.8492 46.3531
3.703 11.6954 48.8064
3.62582 11.8581 46.5879
3.58806 11.8045 46.9543
3.64736 11.6055 47.9498
3.70913 11.8946 44.7871
3.48658 11.8853 51.9829
4.02291 12.0093 45.0688
3.42778 11.7946 47.1731
3.63574 12.6752 49.7951
3.70196 12.1224 48.803
3.66753 12.0382 46.8382
3.5787 12.1592 47.312
3.63776 11.6654 43.3335
3.355 11.1124 49.2225
3.65286 11.8383 46.8436
3.69467 11.8353 44.0211
3.45974 11.4244 50.0009
3.75211 11.8964 46.5441
3.57688 12.0651 49.2391
3.64787 11.6466 48.9523
3.76949 12.5902 46.9857
3.62884 11.937 45.6204
3.48762 12.2336 51.5674
3.90286 12.2052 46.5353
3.60541 11.6748 48.2382
3.70592 12.2387 50.2747
3.78476 12.9952 51.8823
3.85764 12.6186 52.5821
3.94171 0 0