# pn-170911/RbII-av-RbIIR-1280-1959.psd
# Power spectrum* (dif=0,1,2) (really just |FT|^2)
# NOTE: only the first half! (symmetric)
# weeks: 1280-1959
# 179 clock-days, 159 excluded
# PSD: 1441
26024 0.605389 0.0189377
1.04982e+06 21.1934 0.010231
2.00412e+06 40.8728 0.00958125
450490 11.9523 0.00969184
272416 13.8649 0.0102271
135505 8.08842 0.0108742
97643.1 8.18761 0.0122393
69061.8 8.01636 0.0115805
62921.4 12.4628 0.0146147
44293.2 9.95301 0.0144256
33607.5 9.33162 0.0133018
30851.3 10.6917 0.0163437
24645.7 10.4203 0.0184791
22155.5 9.77558 0.0200105
18573.5 9.75579 0.0193795
15162.3 9.31344 0.0204225
12348.1 8.01651 0.0182546
11657.4 8.74661 0.0222035
9135.59 7.82684 0.0238364
8484.34 7.66388 0.0232994
7359.82 7.0747 0.0244676
7164.99 7.71395 0.0267672
7514.96 9.07408 0.0297332
6087.94 7.50006 0.0283836
5209.06 6.84547 0.0269874
4732.35 6.99363 0.028641
5175.99 9.46432 0.0374373
4077.81 7.11739 0.0349775
4014.81 8.67294 0.0420335
4187.37 8.61937 0.0429299
3395.21 7.83761 0.0420377
3418.77 7.99524 0.045786
3412.24 8.95348 0.0533647
3180.46 8.81926 0.0560951
2854.68 8.24129 0.0560994
2616.92 8.07625 0.0568917
2435.08 7.65894 0.0587981
2256.69 8.40494 0.0603349
2385.95 9.73514 0.0740174
2144.42 8.40756 0.067679
1943.22 7.46884 0.0654487
2197.95 9.47799 0.0816201
1904.74 9.52754 0.0911095
1608.72 7.46209 0.0773124
1768.4 8.95387 0.0924184
1570.9 8.03467 0.0896348
1517.27 7.92708 0.0880468
1521.82 9.31465 0.11299
1509.04 9.73983 0.122378
1379.83 8.60915 0.113642
1248.47 8.23656 0.106572
1400.72 8.96747 0.124417
1202.4 8.92904 0.127279
1181.57 8.90136 0.126088
1149.13 9.78858 0.147514
1081.24 8.62021 0.133805
1091.9 8.81918 0.141232
1032.43 7.97531 0.137464
1084.12 10.7778 0.181781
988.437 8.84493 0.160876
955.837 10.1249 0.175532
948.801 9.1783 0.158007
983.677 8.96106 0.166576
867.568 9.66457 0.196493
942.684 10.8551 0.222292
874.447 10.1707 0.220796
778.461 9.47981 0.20222
887.839 11.485 0.261252
729.703 9.19019 0.207648
750.743 9.61521 0.226997
779.688 10.921 0.26564
740.799 10.8853 0.27396
692.384 10.3127 0.274058
736.301 10.5956 0.278375
656.088 9.71364 0.261867
627.189 10.5825 0.284611
635.026 11.3082 0.334786
718.968 10.7329 0.322612
575.173 9.18018 0.279696
646.252 11.3699 0.344819
636.082 11.0495 0.349679
557.52 11.0384 0.340767
583.073 11.8866 0.389955
593.541 11.1895 0.391193
569.419 11.0597 0.375846
593.367 12.2272 0.434827
566.3 12.6385 0.46083
525.686 12.7529 0.464183
487.034 9.79455 0.367231
537.641 12.2861 0.48893
492.546 12.5573 0.500928
460.183 10.6696 0.414305
491.862 12.8964 0.51468
466.767 11.306 0.451619
428.657 11.1631 0.481946
486.127 14.6344 0.650829
483.91 13.4054 0.587224
447.913 12.9896 0.558606
434.815 14.5354 0.684399
479.061 13.5826 0.632991
447.877 14.5433 0.696616
387.84 12.0189 0.605735
414.759 13.2164 0.665744
395.663 12.513 0.614852
412.267 13.8124 0.713648
366.092 13.2077 0.702841
380.257 12.5715 0.664218
379.853 13.6881 0.751391
332.329 12.1102 0.695067
350.369 13.0628 0.761276
405.588 14.811 0.842917
380.229 14.2053 0.869898
361.845 13.6225 0.803961
363.028 14.7852 0.907678
324.89 12.8557 0.806673
319.797 13.0995 0.841708
357.998 15.9948 1.04697
338.211 13.9319 0.903323
363.188 15.3874 1.03582
315.221 13.8179 0.959405
306.021 13.6989 0.945439
375.714 16.5212 1.15406
315.612 14.4685 1.03644
301.382 13.986 1.05624
324.944 15.7516 1.13504
300.697 14.5566 1.09615
295.449 13.7328 1.02717
317.671 15.5476 1.18707
303.797 15.5885 1.20426
264.393 14.6931 1.15997
261.393 13.9823 1.12199
301.54 16.7691 1.39491
238.384 14.2534 1.18709
255.066 14.0851 1.18927
252.594 14.5832 1.25002
245.767 15.541 1.34848
262.783 14.5793 1.28348
251.012 15.4665 1.38639
255.014 15.8442 1.4395
243.69 15.2037 1.37812
227.966 14.8097 1.38331
229.503 16.3562 1.54269
244.4 16.1259 1.55002
232.839 14.8441 1.43372
228.914 16.9987 1.67089
254.173 17.3597 1.69868
235.86 16.6707 1.70217
236.084 16.4677 1.72913
220.867 15.2799 1.59733
237.392 15.1337 1.56757
223.548 16.2562 1.72711
196.488 15.3023 1.68257
218.465 15.8372 1.7136
216.986 18.1608 2.02205
219.58 16.1328 1.87636
221.894 17.3963 1.9356
209.218 17.2158 1.96879
204.629 15.1766 1.78833
213.229 17.6503 2.05071
189.293 15.506 1.84373
158.255 13.7564 1.67963
212.587 16.962 2.09457
195.691 16.646 2.02846
201.233 16.553 2.12451
182.862 15.712 2.02126
190.664 16.2773 2.10544
207.362 19.3683 2.47334
169.637 15.8107 2.13042
183.61 16.6294 2.26164
175.194 16.5148 2.19564
173.867 16.1958 2.18721
159.79 16.6649 2.36816
163.232 16.2441 2.25917
180.595 17.7058 2.56396
170.432 17.2241 2.47305
160.287 16.2853 2.38022
178.552 17.4518 2.5371
166.164 16.866 2.47656
180.504 18.4984 2.71674
151.733 16.2368 2.50612
153.398 16.7234 2.48707
169.499 18.2905 2.87833
151.375 15.2767 2.3837
172.758 19.4105 3.05501
164.922 17.1814 2.74151
161.67 16.9217 2.73142
153.864 17.3032 2.75249
158.588 19.4162 3.22109
136.244 16.4872 2.82902
148.854 17.4644 2.91065
139.527 15.2369 2.63335
143.191 17.2612 2.94844
149.122 17.3063 3.01418
146.684 17.4884 3.06476
146.61 17.2282 3.06287
164.154 19.2898 3.40046
134.201 14.5635 2.59645
141.081 16.029 2.95928
133.888 17.216 3.1566
142.233 18.9715 3.4483
138.546 17.1231 3.1943
132.986 17.8716 3.38466
140.622 18.7431 3.62332
142.211 18.42 3.61864
138.868 18.845 3.60242
123.301 16.2952 3.2421
128.069 19.2609 3.86919
114.636 15.7733 3.22462
134.797 18.6128 3.68937
114.252 15.5304 3.2668
123.286 17.8484 3.64916
113.081 16.7886 3.50336
133.179 19.9893 4.05012
122.889 17.6013 3.78139
123.889 18.2267 3.81681
121.212 20.6049 4.45934
113.739 17.158 3.91592
117.503 19.6765 4.27978
106.155 18.3761 4.18279
131.632 18.4483 4.15037
110.404 16.5547 3.78492
123.587 18.1869 4.10205
98.5187 17.0031 3.99846
116.27 20.7898 4.7264
115.878 17.5976 4.19655
105.964 17.9129 4.1768
104.35 18.1227 4.34046
112.263 19.4029 4.65594
94.841 16.8749 4.16441
110.731 19.4763 4.78927
110.607 18.7617 4.64765
100.69 18.5797 4.67401
96.4555 18.3168 4.55226
104.906 19.5433 4.9608
100.881 17.364 4.31985
84.7057 15.6049 4.10301
99.9628 18.3006 4.80792
101.767 18.0994 4.78796
91.728 17.0363 4.48753
100.967 20.859 5.47227
88.0127 17.407 4.80136
95.0612 18.3923 4.98482
104.364 18.341 4.98925
100.255 19.4531 5.13323
103.863 21.1514 5.86707
87.8773 17.5861 4.91337
94.0361 19.4205 5.5698
90.6239 16.8547 4.64606
86.85 19.7496 5.88329
99.1307 22.5603 6.39439
98.5459 20.9794 5.94071
94.6159 18.7996 5.65546
101.928 22.3379 6.51001
92.8008 18.6468 5.52251
88.9504 18.7797 5.57817
93.669 18.9298 5.73059
82.6435 16.8953 5.20065
88.8157 19.6446 5.97895
98.8204 21.9283 6.73104
83.5818 18.6111 5.82062
87.7636 21.3997 6.69498
74.9748 16.4364 5.16247
85.3821 19.3365 6.28546
86.6773 20.5204 6.45836
83.6546 19.2729 6.11329
80.1801 20.6215 6.66096
88.507 19.7422 6.52777
84.1429 20.0442 6.54814
86.6015 20.3567 6.88235
66.2744 16.3246 5.46603
69.5419 16.5574 5.66038
83.0292 20.3237 7.01915
86.0201 19.9541 6.76596
70.3028 17.8046 6.1935
75.6749 17.1521 6.10442
67.9344 16.1216 5.59452
68.5461 17.8175 6.22645
77.3896 21.282 7.62013
77.5888 21.2289 7.59595
65.5065 17.0357 6.13998
72.8969 18.9114 7.05324
70.4574 18.9884 6.80364
71.2927 18.0781 6.81405
68.7173 17.2173 6.39642
63.88 17.2761 6.56027
65.4642 14.9941 5.61134
71.879 20.744 7.89656
65.2236 18.0102 7.10213
72.9946 21.2238 7.85006
66.7868 17.3392 6.73446
68.6344 18.9451 7.08815
66.4936 18.3001 7.31839
75.811 22.7356 8.87524
64.4819 18.2293 7.05865
67.7358 18.2108 7.27408
69.4191 17.4811 6.88928
71.0098 21.1944 8.74607
62.9905 19.2892 8.00473
66.3598 17.4657 7.45939
59.4894 19.1695 7.78549
61.7036 19.2332 7.85865
58.778 16.5563 6.88991
65.2027 19.0505 7.97189
64.0628 19.4263 7.93473
62.2686 21.0039 8.89313
60.397 18.2225 7.68081
59.3481 18.9082 8.31256
60.6185 19.0458 8.12237
54.2078 17.2837 7.40934
65.6674 19.2989 8.49501
60.3484 18.138 7.85936
58.6809 18.0906 8.19029
60.9065 19.4716 8.70524
59.2342 18.2342 8.39483
65.8306 20.8391 9.04191
55.2756 18.3781 8.44964
66.0972 20.5181 9.4777
58.4294 18.3769 8.7032
66.3272 20.4954 9.31512
62.7403 20.4913 9.65073
59.6983 18.3666 8.65295
56.7702 18.5394 8.54178
54.494 18.2605 8.7921
60.3334 20.0863 10.0544
53.123 18.9098 8.95233
58.3096 20.5782 9.85822
56.7168 18.9328 9.02758
53.7188 18.9664 9.35038
56.3019 18.6476 9.17092
49.9518 19.1977 9.52914
58.3593 20.1783 10.0641
53.4204 20.0633 10.2457
51.6123 18.3805 8.68556
50.9228 18.9462 9.64453
48.0665 19.1634 9.84316
58.1565 21.0256 10.5298
55.9404 20.329 10.4282
44.3008 17.4194 9.04367
50.5795 18.3224 10.0181
60.4369 20.3444 10.4349
50.2214 19.6503 10.1125
48.7043 18.7094 10.0086
49.841 20.4707 10.8116
51.1067 19.599 10.289
46.4855 17.3527 9.25822
43.6329 16.7017 9.04762
49.9656 19.1691 10.8047
50.02 17.1163 8.90817
53.2474 21.5516 12.2268
49.9205 17.675 9.49718
47.9229 19.6309 11.2806
49.0432 18.554 10.183
45.6744 16.1287 9.29217
50.6826 20.8415 11.59
46.602 19.8609 11.2148
44.935 20.1797 12.138
46.5061 19.1923 11.0826
46.242 17.8691 10.2544
40.1722 15.4613 8.63463
44.397 19.6411 11.7232
44.5705 19.7165 11.1057
40.6231 18.0837 10.5988
46.3673 18.7811 11.312
46.1946 18.5961 11.5349
40.0519 17.7587 10.7012
46.2171 18.3027 10.563
40.0792 18.6824 11.5521
46.1062 18.3492 10.9886
42.8506 19.3392 11.4699
43.6168 19.5934 12.1979
35.759 16.6717 10.6721
47.0485 20.322 12.379
40.5263 17.7535 11.4304
46.5785 20.4304 12.2558
41.2038 17.6551 11.6367
42.7446 20.7113 12.8435
45.6529 20.8113 13.0439
43.3796 19.9036 12.5315
38.7444 16.1775 10.1664
37.1464 18.0043 11.4302
43.1486 17.7254 11.9363
39.2607 18.1707 11.6655
37.3744 18.6578 11.8257
37.1468 17.7765 11.9979
39.9624 18.9066 12.5825
36.9636 17.8305 12.0842
40.1328 18.578 12.6985
36.8971 17.9136 12.1611
41.0375 18.2142 11.9156
36.0262 17.3525 12.4351
38.8779 19.31 13.1176
41.0164 20.0584 13.8259
44.6628 20.452 13.6011
34.1819 17.543 13.072
42.8547 20.4322 13.9445
33.6984 18.2261 12.6551
34.4708 17.8293 12.9618
38.9673 18.9241 13.5442
41.2305 19.3813 13.4591
34.1348 16.3971 11.637
31.6625 16.5425 12.1109
34.7186 18.0104 12.7342
42.8929 20.7856 15.2869
36.6119 19.7777 14.471
36.3074 18.4818 13.6583
33.732 17.8398 13.4169
35.7235 18.4074 12.8218
38.8908 17.9207 13.1969
35.6527 18.4988 13.8362
33.2664 18.0802 13.4628
39.7881 19.1572 13.8901
33.6407 17.925 13.3191
32.3307 17.6514 13.5167
34.0149 18.5946 13.88
33.0184 16.3749 12.4753
32.006 17.5913 13.5362
30.3009 17.3444 13.6127
39.2832 19.4447 14.8775
38.229 17.9078 14.1006
33.6876 18.3205 14.1631
35.6969 19.9437 15.3042
37.8231 20.9363 16.9052
34.2169 17.8738 15.0948
36.7838 21.2642 16.4279
36.5277 20.7014 15.8751
28.0241 16.7948 13.561
30.5137 17.7175 14.087
29.7702 17.3733 14.4138
31.9041 18.3659 15.2599
32.6274 17.5333 13.7054
27.3799 15.344 12.6467
31.2628 17.3584 14.323
33.3462 18.9317 15.6984
32.8648 18.708 15.4371
34.3125 20.141 16.23
30.8963 19.3077 16.4339
29.8652 17.6926 14.8761
30.1985 16.6192 13.6587
31.6708 18.5519 15.6227
28.6445 21.3525 19.9087
33.2714 18.2945 13.9539
29.8094 17.2896 14.9688
31.8889 19.302 16.5069
29.9981 17.7489 15.2845
35.6681 20.1524 17.7254
26.7372 17.4955 15.0752
31.4479 20.082 17.9159
29.2935 18.826 16.0104
28.9294 15.7683 14.0787
28.5357 18.6175 17.1633
30.3325 17.8072 14.7999
29.4356 19.5875 17.1837
30.8418 22.1777 19.8123
28.186 17.2446 16.1227
24.6176 18.6873 16.1378
28.5052 17.9245 16.1262
25.5358 18.2216 18.2907
32.8944 17.7753 15.3717
28.4529 18.103 16.5162
27.9031 17.3784 15.9548
26.4405 19.4562 18.3053
30.7769 18.6201 17.3316
24.2793 16.1999 15.0422
34.7618 20.5451 19.2871
27.4562 17.3087 15.9504
25.9537 16.1606 15.0565
24.4435 16.3704 15.8364
25.9061 18.5952 18.0405
26.215 18.4258 17.0023
29.179 18.2123 17.9894
27.0169 17.5257 17.5257
27.1799 17.1364 16.5708
30.814 20.0874 19.0388
26.1537 19.0836 18.3924
24.3028 16.9142 17.8761
25.0561 17.1125 16.4228
29.0556 17.0581 16.0131
26.7011 18.9116 18.3125
25.5508 17.9101 18.776
26.6237 15.3987 16.275
26.7256 20.7985 20.2032
26.6953 15.6576 15.1354
24.521 17.572 18.0086
26.068 18.3455 17.6781
25.9793 18.1122 19.5615
26.0413 18.9711 18.8627
25.2044 19.7989 20.3461
26.0894 18.7087 19.0701
25.7942 19.9939 19.7858
22.1725 16.0031 17.208
24.2429 19.1125 19.6726
26.3203 17.8263 18.141
25.6268 18.416 19.3844
23.5303 16.6413 17.1074
22.1161 16.0799 17.1156
27.5415 18.0215 17.6491
18.8846 14.1929 15.6166
24.8878 19.3838 21.668
26.5264 16.463 16.6914
26.1215 20.3428 21.0585
24.8413 20.8311 24.2958
24.4605 18.9584 20.3687
23.3132 18.9497 20.0622
23.6435 16.4428 19.273
26.8209 18.2941 19.636
23.9997 16.199 17.3609
22.0351 17.3636 18.7719
20.2367 15.4143 17.1512
19.0742 16.2106 18.4736
25.2005 17.0357 18.5237
20.2543 15.3138 16.8093
22.7107 16.8039 18.6073
22.6938 17.8968 19.3591
23.1058 17.5226 20.9254
23.3699 18.4615 21.0003
21.5804 18.4221 20.9968
21.326 16.8907 19.387
22.8623 16.7213 19.8017
22.4235 17.9892 20.6665
25.0866 17.2823 19.9616
18.5901 15.9791 18.662
23.0397 19.2633 21.8666
21.5006 16.6465 19.2334
20.1058 17.1389 19.5049
21.9477 17.3447 20.9659
21.0429 15.5826 17.8319
22.7247 19.4498 23.767
21.0981 14.9414 17.5466
19.1633 17.0767 20.0282
21.8681 17.2127 18.42
21.9319 18.7406 23.4061
19.4232 17.3684 21.6804
21.0293 18.3882 21.4337
19.7911 17.1919 21.3006
20.1433 16.5523 19.9961
22.3205 17.6341 21.1089
19.1544 17.2363 21.8296
21.0222 17.1407 20.5369
18.9041 15.8638 19.293
19.7659 16.3064 20.9253
20.3576 17.6446 20.7513
19.8009 16.1972 20.729
20.531 18.4681 23.2272
19.8883 16.866 21.3542
18.3357 15.4049 19.1597
19.2371 16.3469 19.546
19.1824 16.3539 20.8968
19.7315 17.653 21.083
20.6362 16.8956 21.3648
16.8591 14.1697 20.0965
20.6123 16.8101 21.4372
20.6232 16.8084 21.0218
19.3465 17.962 21.3993
16.967 15.9581 21.4871
19.3642 17.0722 22.6304
16.6542 15.0649 19.2619
21.604 18.867 24.7442
19.794 16.7693 21.4915
18.6875 16.8283 21.4201
18.5981 17.0164 22.9284
17.1709 15.7038 21.0684
20.9689 18.1308 23.7563
19.1614 17.0446 21.9437
16.503 17.7007 23.9875
19.4796 17.3249 22.995
18.7446 17.8123 24.1251
22.4986 18.7636 24.9256
20.5875 20.7197 28.724
21.7302 20.0785 25.4616
19.8037 18.4938 24.484
19.3878 20.5988 28.3919
17.7059 18.813 25.4781
19.9796 16.6457 23.2804
17.8544 18.7709 25.3771
16.6533 16.2107 23.1916
17.8103 17.1638 23.9692
19.4828 20.3929 28.2142
22.162 19.2258 25.0786
16.2345 15.8493 22.8872
17.1813 14.6171 21.2105
18.6281 18.2204 25.3681
15.3599 14.2952 19.7209
16.825 17.0719 24.2568
17.6613 15.1163 21.2063
17.1971 17.1671 24.6811
18.0267 17.1925 23.7254
18.2745 16.1409 23.6358
14.3099 14.1752 20.6608
16.8358 16.1242 23.887
17.8374 16.9064 22.6171
17.2049 18.0075 27.2051
15.9133 15.8781 22.3605
15.4433 14.6852 21.4013
16.327 15.3797 22.9196
17.1665 17.2098 24.9402
14.9541 15.9858 23.7869
18.1577 16.8309 25.2375
15.7244 16.0655 23.1615
16.4455 14.3267 21.2923
15.2827 15.4145 23.2861
14.0226 14.6631 23.2524
18.8649 18.1458 25.4107
16.0068 16.983 24.7441
14.974 17.3885 27.5641
19.7949 17.8914 25.3289
15.405 16.0688 23.586
14.7154 16.0766 24.2823
18.451 17.7006 25.2568
15.5285 17.5727 26.4818
14.0043 14.1925 23.4543
17.6491 20.5442 32.2164
17.4924 16.8734 26.9741
17.2642 18.0457 27.998
16.939 18.1143 28.2614
16.2602 15.919 24.3621
16.5802 15.3357 22.8481
15.4863 17.3206 26.6155
14.2687 15.5292 25.514
14.5336 16.4636 26.0924
15.4848 16.8859 24.6891
16.952 14.787 22.4692
15.9941 15.8113 23.8654
15.5259 15.7687 25.4279
15.7291 16.3982 23.9457
15.353 18.0216 29.3637
15.7465 16.8604 24.8769
13.8952 15.5537 25.3828
14.7996 15.9645 26.171
19.0045 20.5634 32.4617
14.3373 17.5948 25.9382
15.0405 16.7893 27.7914
15.435 16.2535 26.1549
13.2213 15.862 28.1212
15.2501 16.0572 25.5589
14.7234 16.7749 27.4227
14.8284 17.3626 28.1945
17.4329 20.1862 31.8141
13.8249 16.9916 25.6922
13.9913 14.9446 25.2506
15.0378 15.4927 27.0625
13.0665 14.9813 24.0131
16.3082 18.1757 31.0144
13.8354 15.2982 26.7669
13.872 15.8764 25.794
14.2032 16.3893 27.2208
13.5801 15.6636 26.7989
14.183 17.4053 28.9396
16.118 16.1453 27.6448
12.6738 13.7613 24.5466
13.4583 14.1731 24.2786
13.9235 15.9108 26.9939
14.2004 16.3068 27.9634
14.7867 15.4121 28.5372
13.3686 15.5186 25.6975
15.5327 16.5581 30.9311
15.8299 17.8672 30.4346
17.2562 18.4472 28.0001
13.313 14.1877 25.7807
15.5552 16.761 27.9533
14.307 17.374 28.6281
15.9934 16.0271 26.9031
12.3354 15.2458 28.2353
14.8559 15.2131 27.4104
14.9137 18.3831 31.7995
15.4329 17.1719 27.8738
15.237 16.3609 28.2317
14.114 20.7058 36.8525
12.65 15.2354 27.2862
15.7847 18.1055 30.8647
11.7017 14.6553 27.592
14.0288 15.2019 27.3498
15.4724 15.3316 27.4007
12.7551 15.738 28.4925
16.5284 16.6651 26.526
12.3846 16.2441 30.3157
14.2557 17.7511 32.5293
17.2282 20.209 38.1755
15.1032 17.3243 29.2355
14.8392 17.9717 32.255
13.3647 16.9903 32.9507
14.8424 20.9387 38.3794
17.1844 20.5099 40.5857
17.0641 22.9858 40.7726
13.2514 16.7445 30.2114
14.6447 17.1452 33.6118
14.0901 20.1993 36.5205
16.1178 20.5108 39.9807
13.5129 18.4469 37.6268
13.4803 18.276 32.4041
13.4336 15.898 28.2998
13.5589 18.8167 36.3515
13.4223 16.9628 34.6062
15.1748 17.829 28.9489
11.562 17.843 32.268
15.1571 17.4808 33.2086
12.672 14.8829 26.7855
11.6027 13.7852 27.7606
12.4483 16.2865 30.1236
11.4857 15.5938 31.7564
12.7001 18.088 34.9075
13.0605 15.3763 31.0904
13.5575 18.9346 36.9451
16.299 22.5927 40.3142
15.3363 18.2806 34.0908
13.5099 18.4094 36.6295
14.8505 21.3641 43.9777
16.0214 22.3137 38.3257
13.6214 16.2066 31.8376
11.9 15.3437 29.1814
11.5871 15.3316 30.4737
12.2156 15.353 28.7853
12.7574 15.6715 31.0123
11.1815 15.6071 29.7937
11.5375 13.3374 26.5546
11.1735 15.5929 30.9745
12.0918 15.7972 31.5233
12.5037 15.0053 27.8206
10.9834 16.0214 34.409
11.9961 15.0558 31.1849
12.0496 17.814 33.6405
11.808 16.5648 32.864
12.1769 17.2872 33.7861
10.9574 15.8566 31.4774
12.565 15.2185 29.1189
10.7514 15.9608 31.3233
10.5048 15.8474 32.9396
12.461 15.9258 31.3499
10.9683 13.4977 30.1381
10.6275 16.3955 34.6484
12.2719 15.6154 32.5539
10.9918 15.2671 30.2456
12.0349 15.2591 28.7058
10.8896 14.3468 31.3557
10.5666 15.9422 34.4204
13.062 14.6834 28.2594
11.3063 17.1976 37.3264
10.6124 15.2055 32.5565
12.7032 15.717 35.022
11.8565 16.2135 33.4394
11.8465 16.6818 33.7371
12.304 16.4558 32.1408
10.2821 15.7359 33.1247
11.4508 14.144 31.7766
11.8317 16.9243 35.8086
10.5614 14.9266 31.6221
11.8495 13.5688 28.3061
11.0253 16.3847 32.5278
10.812 15.7894 30.999
10.237 14.4995 30.0365
9.91059 14.081 32.1982
11.0847 14.5194 29.568
11.1257 17.2298 41.3874
11.1141 13.736 31.6088
11.3502 14.632 29.4092
10.0211 14.9536 31.0872
11.5684 15.1145 31.4506
10.5498 16.8279 35.5963
11.7464 18.0264 41.8376
12.3581 17.3181 36.5588
11.5423 15.2278 30.7526
9.92442 16.9695 39.0847
11.1311 15.9232 32.0066
8.42989 13.9298 32.8414
10.4504 14.7584 32.0726
10.5784 14.137 32.6963
11.3746 16.7559 34.304
11.8628 13.6564 29.2878
10.6923 15.0389 31.817
8.6863 13.6432 30.7546
11.3 15.7005 34.5129
9.4673 14.5795 36.2598
12.3741 16.9065 35.4312
10.8186 15.2465 32.1928
9.30859 14.2011 34.0649
11.1109 14.7441 32.1516
8.95293 12.6767 29.0227
9.67648 12.9734 30.0609
11.4663 17.0631 37.8405
9.64485 15.4296 32.2183
10.2567 13.5593 31.7889
10.0462 15.8049 35.2038
8.28043 12.0963 27.0126
9.27604 13.5507 31.583
10.9631 15.9112 33.2076
9.91156 16.0967 36.3241
10.6906 15.2363 35.6397
8.74887 14.216 34.7569
9.46514 13.3416 31.083
9.51084 14.5605 30.073
8.40059 12.8068 30.5408
10.5871 15.0195 34.1258
9.9714 14.6381 32.9151
8.87645 13.7293 33.5471
10.0931 14.7595 34.9543
8.22943 11.394 27.2399
8.8906 13.8337 33.4207
10.0132 14.5213 35.2339
9.13369 15.5309 34.5162
8.65287 12.417 29.4615
9.06851 13.5204 29.4836
9.47473 15.7628 36.6996
9.88896 14.6605 35.0677
8.82686 13.8465 31.1695
9.24969 12.7183 31.1425
8.8577 12.9546 35.6127
10.7606 15.2777 33.2197
9.9517 16.2762 37.6095
9.09369 14.0574 36.9802
10.9061 15.8515 36.519
9.61181 13.4692 32.4516
9.0476 13.9647 30.5159
8.70771 13.5448 31.4998
8.33988 12.5175 35.0903
10.329 13.4639 30.4285
8.79116 14.2698 33.4167
9.05517 14.0069 30.8678
8.4274 14.4163 33.1988
8.99827 11.3864 29.6866
8.35322 12.2264 31.0058
9.63299 14.1913 33.5556
9.34259 16.0114 35.834
8.39957 13.6062 33.8102
10.0161 13.7755 34.0317
7.79184 13.8707 32.7452
8.27642 13.3711 36.8519
9.9407 15.2581 37.3468
8.17636 13.9501 34.7477
9.11106 15.2067 38.4466
9.85036 15.6284 40.6397
10.0079 15.0399 32.6356
8.77893 12.7695 32.0358
7.4477 13.7742 36.7886
9.52107 14.6139 35.9136
9.79315 15.043 36.2355
8.35536 14.2368 38.4967
10.3575 15.7024 40.1052
9.49087 14.3663 34.1432
9.94927 17.8491 41.9854
9.28391 15.8877 40.6911
8.93645 15.038 37.2986
9.49079 12.8222 32.2479
8.79457 13.5716 35.1733
9.62262 17.1869 41.1306
8.89838 14.4295 37.5896
8.06335 12.4657 33.3405
8.59369 14.4891 35.422
9.04779 13.6372 37.8903
8.92719 13.6826 39.156
10.1287 15.7672 35.3755
8.64348 13.5427 38.0132
9.71753 16.3145 40.5244
9.24485 15.9488 37.4582
8.14738 16.4011 40.2176
7.83019 13.5765 38.4459
10.3259 15.0026 39.8692
9.49106 16.1886 41.1095
9.00792 14.4993 34.9654
8.51426 14.5814 37.7809
7.89603 13.3474 37.1937
10.3139 14.0556 32.5984
8.17001 13.9467 36.2448
8.95106 17.1333 43.0102
8.72161 13.4583 36.2466
8.30506 15.4782 41.6751
8.51767 13.7636 36.4819
9.8253 15.7216 39.3897
7.85496 14.4752 40.9383
9.41187 14.9087 39.6257
8.45361 15.6054 37.6259
8.24153 14.3659 36.8986
9.64438 16.0368 41.8428
7.81682 13.7083 39.5679
8.79894 13.9639 38.2902
8.19727 13.2509 34.6795
7.9824 12.9283 34.2138
9.04989 14.4829 35.2742
7.94232 14.3392 39.1514
8.66043 16.7561 46.1204
9.24249 13.3713 37.2487
7.91426 14.8448 38.0222
9.79495 14.5618 38.0031
8.98516 16.2006 42.0266
8.20165 13.8307 36.6993
8.41511 12.5314 34.5737
7.8945 13.915 38.8247
7.8585 11.8682 34.1547
8.51036 13.3688 37.4861
7.66423 14.9297 38.7947
8.90227 13.587 35.6313
7.23341 14.0763 38.5303
7.81343 13.2164 37.8356
8.80355 12.482 37.0619
8.92701 16.4472 43.4223
8.30062 15.9354 38.9069
8.42607 13.0252 36.3314
7.14272 14.3641 38.8801
8.39027 13.854 36.372
8.16525 16.4265 44.6873
8.50149 13.8581 38.2105
7.7306 11.5404 33.8309
7.06096 13.0273 36.3579
7.03515 13.669 37.5554
8.31194 15.7572 45.6262
6.96536 11.4503 31.213
7.71071 14.7939 36.9174
7.89739 14.0786 39.954
7.13702 13.8362 41.4283
9.43329 13.2572 36.5501
6.29538 12.0167 35.2326
7.89665 13.5813 39.1522
8.55219 13.5547 37.0456
7.49131 14.4585 41.6451
8.91569 14.2889 35.9327
7.16283 13.2325 39.2273
7.30302 14.3013 38.3316
8.3465 13.7986 37.637
7.44282 15.3919 45.8098
8.76838 15.1933 43.9171
9.15129 12.5326 33.7344
6.90844 14.3465 41.1562
8.1079 12.6284 38.5908
8.22942 15.3875 42.9709
7.43733 12.4046 34.5374
8.23173 12.6072 34.9134
7.15374 14.5714 43.6945
8.34521 14.4705 42.6266
8.1875 12.6827 32.9716
6.95929 12.482 36.6903
8.34019 14.6705 44.4291
7.78241 13.8847 40.9771
7.61443 14.542 39.7184
8.43986 14.8735 44.0126
7.66602 14.1926 41.8384
7.84681 15.8447 45.9382
8.31383 13.7023 36.7781
5.82167 12.6077 38.4354
8.7024 14.8571 40.2541
6.47753 12.0898 35.034
6.53455 13.7225 40.91
8.96928 16.1908 48.2198
6.62697 13.2341 37.6499
7.57739 11.712 37.9196
8.13664 14.8488 43.7605
7.61295 13.582 42.3147
9.385 16.658 46.5505
8.42524 16.0114 46.4238
7.51269 15.1929 42.1244
7.75536 12.5094 44.4563
7.53916 15.4117 40.2538
7.72658 13.6772 43.3954
7.30702 13.6021 39.5878
6.86338 13.5795 37.3153
7.67289 13.4555 43.6109
6.81925 13.1666 42.6942
7.29288 13.2449 38.3058
8.25177 15.3266 44.4643
6.83081 14.0722 41.5237
7.3497 13.2534 37.9253
6.45454 13.8539 46.086
7.21401 14.3101 43.9779
7.39919 14.2936 42.5181
7.71285 16.0602 47.5842
8.10873 15.293 43.8405
8.08354 13.293 40.1457
6.88867 13.7975 38.9118
7.68233 13.0603 40.1461
6.97183 12.1368 37.5454
6.64879 12.6337 36.634
7.26034 13.4956 43.6558
7.40931 13.6567 37.8121
6.32497 10.7127 37.4589
7.10272 13.7978 42.027
7.19437 14.615 38.5521
6.65944 12.2249 41.0265
8.32599 14.0534 39.4443
6.12286 14.4376 46.7419
7.94465 11.4911 34.5197
6.54967 13.1557 37.3363
6.74869 11.9579 39.5524
7.13439 11.3853 34.8212
5.90086 14.0762 45.4406
7.16201 13.8086 42.562
7.82551 13.4151 37.6732
6.75955 12.6981 40.3847
7.65684 12.3642 37.6234
6.54111 12.5531 40.04
7.04512 13.6194 44.883
8.94092 13.0985 37.697
5.93571 11.994 33.0406
6.53196 12.1441 36.2131
5.80317 13.3092 45.7712
7.02934 15.4809 50.0613
8.15932 13.108 38.137
6.24289 14.1691 45.9937
7.61486 14.879 42.8716
7.18641 11.7334 38.8764
6.39021 13.3193 39.0952
6.96027 11.9144 37.8724
6.41914 12.6493 46.2331
6.48282 15.123 47.95
8.20321 15.6534 48.5521
7.12022 16.4689 48.2029
7.47195 13.5782 46.0414
7.43903 12.8501 41.6967
6.38445 13.4108 41.9665
6.85171 14.3142 43.3967
7.03839 12.4267 40.1137
6.62172 12.561 37.1999
7.13331 11.7309 38.2114
6.68263 12.9726 39.4319
5.57552 11.6786 39.6629
7.01962 12.5524 42.81
6.06188 12.9177 41.3268
7.28371 15.3752 48.3461
6.89033 13.5693 39.368
4.85453 11.8858 44.4998
7.91385 15.2349 46.8056
6.6843 14.1623 46.0536
6.64326 13.8685 46.4498
7.60161 13.8715 41.9503
5.74807 11.7127 35.9228
7.4782 12.6383 41.2686
6.9347 13.5919 44.3291
6.87324 14.9221 44.1863
6.97536 14.3073 44.2451
6.02792 11.601 37.2084
6.43139 13.7617 39.6511
6.27892 12.4317 45.4073
5.93622 12.1344 41.7601
7.15074 11.8889 42.6227
6.56826 14.9766 43.5575
6.17013 13.2224 43.159
7.11415 14.7961 46.9094
6.7041 11.789 46.2679
7.69535 14.144 39.384
6.90797 13.1124 45.5715
6.48549 13.5543 48.4314
7.40565 13.9595 41.8374
6.97287 14.4584 43.5635
5.47975 12.5866 45.6233
7.90986 15.1816 53.6438
7.14267 13.1348 38.3814
5.98843 11.7456 39.6097
6.20768 12.8316 42.0374
6.02625 13.5725 42.8738
6.68225 12.6809 41.1379
6.1804 11.3867 37.9831
5.83482 14.4583 52.8345
7.69201 14.7205 43.6948
6.49321 14.0535 46.8036
6.68084 13.3748 44.5793
6.57656 12.9701 44.0368
6.07314 12.7366 43.9416
7.59317 11.5427 37.7599
6.55052 12.5525 43.1016
6.10695 15.3227 44.947
6.85387 12.9065 45.4664
6.05789 14.2737 47.0222
6.59597 11.9879 42.4797
7.25762 13.4124 47.2506
6.645 14.0539 43.7199
6.85719 11.0736 43.4156
6.67736 13.9979 40.9427
6.25625 12.9899 43.3108
6.77624 11.4939 42.4732
5.99781 13.3614 45.6923
6.83192 13.0852 36.8524
6.02289 12.2006 43.8105
5.36369 13.1044 44.4209
6.71143 12.6785 43.923
6.36337 13.3958 44.762
6.07055 13.1808 46.7137
6.86249 11.6738 36.7723
5.63963 13.0529 46.7662
6.83894 12.243 36.7051
5.67842 13.7467 50.19
6.29928 13.1976 41.7423
7.30803 13.008 44.8078
6.18991 13.6336 45.3982
5.95939 14.795 43.89
6.25351 12.9109 47.9858
6.25188 14.0841 44.8038
6.5643 13.0575 46.0361
6.07616 13.8828 47.1331
6.07771 14.0999 47.7234
7.12163 13.88 47.4056
5.93126 13.8025 50.5415
6.6293 13.8082 46.2562
7.08812 12.2268 39.7302
5.36443 13.0234 47.8009
6.4565 13.7189 47.9966
6.35476 12.4294 45.6311
5.67314 13.6996 50.0325
6.57804 12.7799 42.4616
5.72473 11.7257 39.9641
6.36245 14.5163 47.905
6.6623 15.9088 56.7307
6.01596 12.1551 39.5475
5.82024 13.2998 46.1589
6.43359 12.6891 43.0174
5.44118 12.2229 41.9138
6.38031 12.7597 47.5335
6.09249 14.6162 47.4458
6.05412 12.2985 44.8126
6.7559 13.5817 46.4689
5.40945 13.4015 44.693
5.49182 11.8939 50.046
6.51573 13.0203 44.7962
5.50269 12.0772 39.4205
6.40314 11.9257 39.5862
5.3651 12.6451 46.9173
6.1241 12.4411 42.6781
6.40117 12.4883 40.0569
5.15511 10.9983 39.2457
5.8332 12.7295 42.8939
5.87115 13.8231 51.6814
5.86236 12.8317 45.2694
6.47164 12.4259 44.1316
6.12839 12.2896 37.7765
5.11241 12.6426 45.8541
6.35351 11.8035 41.665
4.93772 12.3563 43.4693
6.00703 12.704 43.0786
6.31305 11.0196 39.5845
5.10039 10.8692 44.6162
6.67691 14.6283 53.6517
6.0761 14.8675 50.4629
6.18183 13.5282 46.0407
6.97353 13.3854 46.8581
5.39628 12.6628 44.9225
5.80075 12.1835 47.2834
6.37846 13.1305 39.6447
5.70575 13.0773 43.753
5.96676 9.98679 40.8968
5.78354 13.5849 47.9569
6.15124 12.9259 45.143
6.14275 12.315 45.3261
5.36507 15.2486 52.9353
6.67715 12.2315 48.4381
6.45359 13.681 54.0845
6.03361 13.7881 47.9755
6.36839 13.1244 49.0245
5.01128 12.1537 43.9998
6.07548 14.3202 53.539
6.8763 13.8528 49.4355
5.4295 13.1556 41.8904
5.90948 11.2044 40.6248
5.43646 11.5292 46.2763
6.26327 12.1727 47.9453
7.04418 13.0735 42.9954
5.49627 12.7553 49.462
5.78303 15.09 52.0247
6.38209 12.5835 46.5988
5.56795 13.4187 42.5404
5.79787 10.0545 42.7879
5.43881 13.4678 48.1492
5.77415 12.6211 48.6126
6.96299 11.9172 40.7846
5.11076 12.332 50.712
6.29042 11.3566 37.1569
5.98219 13.7968 48.9303
5.77773 12.3373 40.0863
6.00208 12.5089 46.9004
5.64937 12.277 49.578
6.37761 13.1182 52.2396
6.94928 13.4063 46.0521
4.9986 13.384 43.6624
5.93363 11.8144 46.0302
6.19672 13.9829 48.4799
5.64453 11.7793 41.5826
6.28854 11.4889 42.5265
5.42507 11.5166 36.0378
4.53979 11.3073 45.7827
6.2549 12.8177 44.8696
4.85469 13.8097 53.886
6.42409 10.9504 42.197
5.66627 13.554 43.8123
5.22735 11.3405 44.0367
6.0843 12.1225 45.0392
5.90591 12.3882 47.9686
6.62582 14.1842 49.2734
6.46901 12.6274 50.3903
5.91672 13.2183 45.2647
5.81064 13.2097 44.2101
6.01007 13.5985 51.0034
5.5596 13.5798 46.0032
5.47412 12.4678 46.0726
5.65175 11.6297 50.9996
6.20636 11.5327 41.9683
5.87336 12.2122 41.6843
4.84143 11.5986 43.455
5.68128 12.6151 45.1188
6.05745 13.6643 55.3338
5.77085 12.0237 48.4267
6.07841 11.8035 48.619
5.45807 12.9698 47.9235
5.28533 13.3051 45.4673
5.92252 13.2181 47.6164
5.61177 12.5966 45.467
6.41912 14.1458 43.4235
5.3235 12.1662 46.7723
5.36461 12.7892 47.3117
6.77488 11.3892 48.1997
5.88115 13.0335 51.458
6.36785 13.1642 43.7094
5.67414 10.8441 44.2291
5.542 11.555 40.917
6.12792 10.6433 44.3555
5.93243 12.9354 40.0863
4.66587 12.3191 48.3272
5.94529 12.2754 47.5151
4.92844 11.4137 45.7144
5.33956 13.3435 51.0639
6.94001 14.1043 44.8047
5.10694 10.8083 44.042
5.65251 13.2573 46.9733
5.73315 12.7194 52.0468
5.82863 11.6514 42.8315
6.28395 10.9308 43.8178
5.32258 11.0343 42.2666
4.91066 10.563 37.4467
5.40176 10.0777 45.9632
5.57733 12.5514 46.6799
6.003 14.1371 51.1156
6.30929 13.377 53.4656
5.79244 12.9791 42.7135
5.43827 11.7485 45.2027
5.49349 11.3863 42.947
5.01373 12.6829 48.9087
5.66797 12.1055 45.5274
4.91241 12.4838 44.9971
5.99699 12.2071 47.2685
5.29035 12.2968 50.1922
5.44308 11.5185 47.3856
6.25468 12.1777 51.0257
5.89383 13.6516 45.5914
5.25795 12.5538 45.9856
5.59998 10.861 46.0187
5.20902 12.9527 52.637
6.52598 12.9731 43.2601
5.48835 12.4552 44.8577
5.26789 12.5814 52.8028
6.62924 12.8783 46.9089
5.25427 12.4821 42.214
5.60065 12.5175 50.5609
6.08916 12.9406 44.3135
5.37446 12.3249 49.2597
5.94718 11.3229 45.6856
5.54069 13.4913 49.1543
5.49772 11.074 44.5555
5.22818 11.8345 44.1188
4.58729 11.5639 43.7053
5.54848 13.7589 48.1694
5.62532 11.649 53.8529
5.44263 11.974 40.9872
5.48369 11.6401 42.3211
5.39255 11.1342 39.8239
4.45959 10.4255 43.5806
5.4934 13.3526 47.8604
5.28126 11.5466 51.422
5.71782 12.9497 42.1388
5.38305 11.0786 50.3785
4.96557 14.43 52.3228
6.26391 11.638 44.2851
5.23187 12.2727 43.8521
5.11764 12.1668 45.3502
5.75417 11.1802 47.5971
5.26366 12.5662 44.9385
5.32999 11.2479 43.2877
5.0732 10.013 46.9331
5.18325 13.6438 47.2075
5.53952 11.8222 44.5106
5.02563 11.8661 46.9212
5.35185 13.5519 46.9512
5.86185 11.5846 50.6086
5.68588 12.5392 43.7527
4.74997 11.7488 47.992
6.06287 11.015 49.3023
5.21568 13.5074 49.49
5.31485 12.1392 46.6077
4.87318 14.3573 51.7751
5.58833 11.1951 51.0688
6.22454 13.7839 47.871
4.63783 11.1646 47.1956
5.62091 11.9227 48.1737
6.07346 12.9415 47.7436
4.57316 12.5168 48.6893
5.82025 12.012 48.8428
5.3456 13.6864 49.1045
5.64092 13.1617 50.3208
6.26634 11.7576 48.6449
4.53849 12.2014 44.0474
5.44429 11.5923 45.6742
5.75678 11.2599 48.3337
4.98443 12.6581 45.8517
5.67628 12.1872 47.9266
5.06278 11.1714 46.8355
5.61898 11.9893 52.0235
5.95577 13.1926 42.4373
4.49351 11.7715 46.7709
5.41057 12.446 47.2825
5.23196 11.4313 48.5847
4.55311 12.1327 41.8172
5.36723 13.1114 54.3603
5.09925 12.2168 46.619
5.36156 12.8288 49.3876
6.04514 13.2406 50.6416
4.97659 12.2514 51.9216
5.89274 12.0728 45.3486
4.87171 11.7779 46.0425
5.01163 12.8648 49.4702
5.54797 12.5874 46.3884
4.37751 11.8299 54.7607
5.79351 12.8191 46.6773
5.32591 10.7809 44.6612
4.81964 13.5356 54.2536
6.04231 13.415 51.8871
5.51569 12.8978 43.2878
4.12251 12.1987 51.0072
5.70496 11.4968 50.1314
4.94749 12.8893 46.5647
4.7848 11.762 44.5979
5.17587 11.9111 52.8092
5.01575 11.7018 46.9613
6.00257 13.2266 48.4177
4.82365 12.5758 45.2624
4.791 10.8518 43.6748
6.03016 12.4702 52.9599
4.8278 12.7849 51.7358
5.79572 11.5682 48.9598
5.77064 12.5445 48.0201
4.7633 11.9517 47.4184
5.45634 12.7126 42.1258
4.73223 12.1155 47.6346
4.63377 10.119 47.4698
6.16103 13.2767 46.1692
4.64382 11.8138 50.4908
5.90798 11.5853 47.1089
5.06053 13.3618 49.0226
5.05956 12.9617 57.569
6.40645 14.0958 50.6666
5.17778 12.4376 49.2943
4.93009 13.7878 53.8891
5.87097 11.4749 45.391
4.81719 11.6184 46.72
5.0649 11.1082 43.9607
5.3729 14.3033 55.072
4.65972 11.8181 47.6244
5.32522 12.0349 44.2856
5.10243 11.3294 48.3521
5.2447 12.0111 45.9565
5.53322 12.2562 52.1343
5.1432 12.8079 46.8826
5.40756 13.1222 49.3428
5.87159 11.7167 46.13
4.4592 11.9397 44.7667
5.47538 10.7699 51.9689
5.39569 12.2922 43.7197
4.84783 11.9582 47.6921
5.87029 13.5544 50.6197
4.91817 11.1309 44.9711
5.16004 13.0682 48.7611
5.36942 10.8729 43.9182
4.25872 10.9243 44.0214
5.41662 11.7731 44.5343
4.85198 12.4691 53.35
5.30171 12.0895 47.3825
5.62731 13.5979 46.4422
4.63068 12.2261 56.4738
5.99952 12.2207 43.5942
5.4576 11.5581 47.8139
4.39674 11.8078 50.5181
5.54015 12.7764 49.7082
4.76438 11.2051 41.4047
4.6234 11.7431 46.4588
5.63877 12.1891 49.6465
4.92275 13.2185 49.6743
5.52542 13.0046 52.4238
6.05125 12.0514 48.2949
4.97063 12.1515 42.4083
5.1515 11.4405 47.5272
5.46915 11.3277 53.1525
4.7863 12.1175 50.0963
6.3947 11.2787 44.3754
5.14686 11.7698 53.8947
5.36899 13.0552 48.4122
5.30321 12.6904 46.9749
5.14011 12.2533 52.156
5.83359 13.7762 60.292
5.87512 12.013 40.894
5.10772 11.3174 45.7637
5.58131 10.1172 43.872
4.92788 12.9945 48.0112
5.70179 11.1237 54.295
6.32072 14.7357 46.8916
4.52365 11.0069 50.578
5.92944 11.5603 43.5457
4.48234 13.3878 54.4526
4.85708 11.9624 44.4619
5.76739 10.5867 38.7562
4.3946 12.7398 55.5128
5.80846 12.7106 46.7181
5.24395 11.8583 42.2292
4.4913 10.8017 52.6141
6.11675 11.9863 44.328
5.13461 13.5162 54.4914
4.66925 12.4887 48.2685
5.8587 12.4594 59.1621
5.47505 12.9971 42.3128
5.63079 12.8565 48.39
5.78632 11.0283 47.7129
4.70783 13.6239 53.4523
5.67233 11.7897 47.672
4.98152 11.3685 47.6579
5.30364 12.3014 50.4408
6.07441 12.0737 48.7817
5.05655 13.7172 54.5623
5.57243 14.0227 50.8538
5.7674 10.8224 42.8288
4.78139 10.827 49.9383
6.14916 11.7743 46.5479
5.2342 10.8705 41.1499
4.7193 11.4776 50.0955
5.94831 12.4352 47.2771
4.70898 10.6157 46.9826
5.44609 12.8061 46.8926
5.28826 12.0162 53.0759
5.64804 12.6915 51.1649
6.06483 12.7851 54.3259
5.84076 13.0764 49.986
5.48169 12.1714 52.4748
5.93679 13.2662 45.5928
4.72036 11.9029 41.6446
5.10544 11.3152 42.3175
4.65404 12.2358 63.4395
5.30355 12.9746 41.9891
5.78339 10.6691 44.3651
4.4894 13.1914 51.5625
6.10408 12.8067 56.066
6.94671 12.49 45.6764
4.56214 0 0