# pn-170911/RbIIR-59-RbII-1280-1959.psd
# Power spectrum* (dif=0,1,2) (really just |FT|^2)
# NOTE: only the first half! (symmetric)
# weeks: 1280-1959
# 336 clock-days, 2 excluded
# PSD: 1441
77893.7 1.16246 0.0296683
2.1471e+06 53.0659 0.0516704
3.13962e+06 55.3738 0.0471396
803912 15.9756 0.0408935
532197 17.4032 0.048554
328040 9.16911 0.0439136
225470 9.30865 0.0461133
156375 8.27372 0.0474644
127653 8.03725 0.0487803
102517 7.72472 0.0513786
72870.3 6.37401 0.0495875
73872.6 7.43215 0.0467878
50388.8 6.7756 0.0504963
50598.7 6.32483 0.0512312
41086.2 6.37653 0.0562603
40261.6 6.57155 0.0504394
30880.9 6.33212 0.0551967
30207.6 6.05671 0.0553315
28068.7 5.48113 0.0559584
23876.7 5.58887 0.0569413
16370.7 5.91033 0.0584829
25096.9 6.71539 0.0600787
19906.9 6.00325 0.0644931
14918.4 5.69097 0.0631722
13200.6 5.50112 0.0606248
12562.3 5.98344 0.0622556
10275 6.26603 0.0781841
11110.9 5.67318 0.0665364
10699.9 6.42742 0.0691194
9164.47 6.73285 0.0743284
7650 6.07132 0.0763258
8587.58 6.44212 0.0769797
8235.25 7.16037 0.0805953
6736.25 6.42263 0.0810824
7674.16 6.43294 0.0839627
6756.72 6.46864 0.0823119
6258.07 6.71511 0.0920688
5948.46 6.55956 0.0886965
5526.37 7.78542 0.0983874
5626.74 7.13076 0.105834
4849.35 7.09828 0.100745
4260.44 7.26989 0.0951058
4691.69 7.93757 0.107947
4174.94 7.18524 0.128881
3875.73 8.08702 0.12419
3771.17 7.60837 0.122054
3907.49 7.38798 0.117261
4031.56 7.99413 0.133564
3344.59 9.57483 0.156927
3414.46 7.42706 0.133111
3473.13 7.16487 0.141776
3500.54 7.32582 0.135794
3008.42 8.31917 0.152838
2885.63 8.27729 0.17973
3016.39 10.1761 0.180425
3056.46 8.23526 0.156778
2882.4 8.86831 0.186434
2977.35 8.02453 0.175614
2950.52 9.32032 0.203458
2620.88 9.37657 0.210659
2658.27 8.83663 0.192666
2732.42 10.0001 0.214667
2537.98 9.24099 0.230561
2726.68 10.0328 0.234897
2694.78 11.137 0.273209
2415.63 9.88124 0.256292
2305.85 10.84 0.309392
2488.49 11.3582 0.300832
2059.21 9.16112 0.267276
2039.89 9.27913 0.257009
1999.2 11.7264 0.355329
1902.79 12.3104 0.3828
1843.5 11.3123 0.351488
1669.81 10.9925 0.340288
1768.42 10.4874 0.332206
1769.07 11.3322 0.370278
1830.76 11.3365 0.365111
1615.96 11.2053 0.368105
1553.43 11.0195 0.375571
1662.45 13.6702 0.485021
1453.49 13.0305 0.497308
1394.99 13.1512 0.453488
1417.6 12.3099 0.469899
1324.93 11.0142 0.44154
1400.37 13.8311 0.520326
1455.95 12.2136 0.461771
1171.51 14.6895 0.584574
1240.38 13.4854 0.556554
1232.74 13.986 0.541959
1171.81 13.5301 0.595377
1025.23 12.7009 0.552764
1242.26 12.3769 0.568563
1167.77 15.077 0.674058
1094.66 12.0817 0.529886
1192.1 12.8841 0.64763
1271.28 16.1172 0.792411
1195.11 21.2237 0.950601
1136.29 14.5886 0.693091
1063.69 13.1624 0.664805
896.529 14.6537 0.751608
934.288 12.4041 0.629765
1226.55 15.5652 0.834486
1089.11 18.5835 0.997487
1042.85 14.8898 0.776935
1029.49 16.1132 0.909169
952.836 13.206 0.727397
864.208 17.0987 0.936373
994.118 13.991 0.776861
919.898 16.3767 0.954545
856.586 16.4863 0.97555
793.42 15.4531 0.987726
940.367 16.6249 1.00598
936.166 16.1747 1.01649
745.222 20.3474 1.32051
888.483 19.5233 1.32385
888.901 15.3546 1.02682
646.838 16.2964 1.05335
696.434 17.0235 1.16247
778.286 17.6382 1.20289
749.671 15.199 1.09623
791.786 18.333 1.32769
729.862 21.9428 1.54638
671.68 14.9889 1.11175
868.739 17.8411 1.32576
757.608 16.0928 1.21049
745.06 17.702 1.34813
661.25 14.8632 1.14843
632.526 21.5579 1.68303
664.955 19.3546 1.4753
558.439 16.6012 1.37903
667.222 19.0665 1.58566
621.293 16.1383 1.39122
562.625 15.5503 1.38726
664.454 19.9244 1.70582
579.315 16.6897 1.45708
653.523 19.2068 1.69995
661.623 17.0973 1.56717
569.37 19.526 1.79435
578.608 22.4186 2.04655
547.373 15.2146 1.44158
587.215 19.2664 1.81257
576.378 17.0865 1.66786
507.381 17.0719 1.6863
603.647 25.3693 2.53588
625.104 21.0591 2.11377
548.487 18.0558 1.8584
472.86 17.597 1.8586
528.308 16.5292 1.75885
476.529 15.6866 1.66393
501.215 17.8365 1.97526
580.537 28.491 3.12631
467.845 18.7025 2.03128
530.1 19.6958 2.20763
539.179 19.5483 2.15126
485.033 17.035 1.97914
492.57 19.413 2.21772
426.741 19.4971 2.32435
549.999 23.0694 2.69303
449.499 20.5353 2.47675
421.628 21.2151 2.56565
434.239 19.6772 2.4228
400.52 20.7076 2.55566
441.895 21.8342 2.7434
435.601 21.7462 2.88859
449.25 17.3857 2.2203
488.37 21.3232 2.75151
419.507 23.4093 3.01861
366.045 21.8895 2.89382
484.909 18.6963 2.52137
372.117 19.8892 2.63541
399.156 20.4782 2.77247
306.926 18.4319 2.61611
353.437 24.509 3.30903
396.69 18.4576 2.62837
369.973 19.5203 2.86015
369.339 25.4432 3.67785
358.215 19.3014 2.84306
400.331 21.7307 3.25404
352.207 20.2594 3.10038
360.703 22.535 3.48938
377.977 19.7553 3.01221
405.781 21.3453 3.54763
328.871 23.7774 3.63582
366.636 20.4864 3.39081
379.593 21.149 3.31481
398.59 22.3822 3.66293
373.133 21.4657 3.51431
394.775 19.645 3.2783
344.001 20.6239 3.42576
282.663 19.4206 3.30209
336.496 21.0899 3.68931
403.919 26.176 4.57245
366.418 29.4478 4.9935
348.657 18.897 3.26604
316.001 19.7515 3.535
295.776 19.134 3.37547
296.979 19.1382 3.53792
368.989 23.177 4.17036
282.461 23.1292 4.34842
274.426 22.0936 4.23121
326.263 23.1987 4.34404
289.405 20.4422 3.85488
267.077 21.8921 4.22401
309.372 19.3436 3.89461
311.969 24.6867 4.88594
256.324 20.2387 3.99575
335.162 24.4014 5.00042
308.836 22.809 4.4924
261.034 20.8463 4.36357
302.461 24.8676 5.0176
255.439 19.7774 4.04828
296.319 21.5625 4.45001
283.391 21.2469 4.58236
284.543 26.0751 5.40425
279.023 21.7424 4.63387
253.997 21.1936 4.64476
271.058 21.621 4.88691
283.72 24.9485 5.43726
261.963 20.682 4.56717
272.848 21.1857 4.74921
268.472 23.007 5.2442
272.889 20.3939 4.67902
278.606 21.3035 5.09158
280.922 24.4888 5.7824
262.677 20.0619 4.64835
248.746 20.7443 5.01881
257.93 22.5812 5.33239
233.211 22.2218 5.48054
240.429 19.7663 4.95557
249.81 26.2087 6.54474
252.384 22.1904 5.31964
205.597 17.7801 4.67858
246.592 20.1575 5.06951
228.483 21.4135 5.42849
228.322 22.0016 5.59391
213.066 21.2194 5.83776
212.882 21.3725 5.47904
232.498 20.4137 5.32934
236.617 22.4114 5.75664
235.373 25.7383 7.00106
191.305 21.8825 5.9341
221.892 21.7145 5.83143
212.719 22.2887 6.1061
184.623 20.152 5.54379
178.378 20.6125 5.64483
184.835 20.839 6.00602
223.926 25.3614 7.02928
183.639 20.8029 5.95838
186.424 21.4007 6.07288
218.338 22.7169 6.57928
185.767 20.7994 6.24216
200.117 23.4986 6.79681
185.298 22.7796 6.99028
193.105 25.0929 7.36758
214.923 24.4541 7.29375
153.562 17.0837 5.31588
196.464 21.4237 6.58423
181.789 21.0847 6.62736
195.068 23.4007 7.02807
181.685 23.0544 7.29225
186.658 20.2753 6.63299
178.854 24.4274 7.58309
162.895 21.9579 7.07561
170.715 21.9319 7.10423
167.25 22.1245 7.24429
182.911 21.579 6.96732
209.191 21.4486 6.84212
187.523 20.6 6.9048
157.149 23.9481 7.82674
177.046 20.1978 6.83238
185.082 18.6654 6.56951
182.527 24.7729 8.36711
163.369 20.6785 7.25342
173.323 21.3327 7.24182
154.756 20.5813 7.08049
172.737 19.5341 6.81747
147.613 20.0031 7.02362
171.29 21.0592 7.4569
157.646 25.0159 8.73203
162.409 21.6222 8.08148
142.961 21.6931 7.88586
153.521 20.4304 7.51804
158.31 20.6637 7.46802
144.75 20.2305 7.36578
119.843 18.6483 7.00165
111.949 18.7014 7.26001
110.81 20.7054 7.98819
169.077 21.6273 8.46265
147.742 30.9265 11.4545
104.898 21.5753 8.22517
132.907 22.4436 8.69871
118.349 20.2473 7.87163
129.465 22.2476 8.90601
142.245 22.5281 9.1396
139.843 21.2458 8.5585
137.737 21.3082 8.50745
140.292 22.6348 9.50779
130.01 21.5874 8.56375
132.671 22.0949 9.08822
137.85 18.5187 7.72529
122.841 20.8928 8.68495
148.167 20.6466 8.45616
125.291 19.6347 8.27027
137.426 20.6638 8.65304
129.889 22.5939 9.57718
139.107 20.9123 8.71134
125.665 19.2506 8.45648
112.577 19.3097 8.46027
115.192 23.2327 10.1842
153.026 21.7571 9.48606
144.015 22.046 9.77179
128.368 20.8626 9.3275
114.184 19.0599 8.33685
113.059 20.8295 9.53831
107.874 19.9537 9.26135
122.221 24.0302 10.8838
127.329 21.1476 9.50156
112.051 19.2226 8.89091
104.633 20.2294 9.62951
134.594 21.3931 9.77201
118.118 21.9435 10.1244
111.352 19.7585 9.55832
137.713 22.374 10.5043
125.332 22.5363 11.2512
117.86 20.2306 9.61886
123.278 24.0872 11.554
107.339 19.8341 9.73255
108.733 20.2245 9.69659
107.491 20.1211 10.2564
91.527 20.1553 10.0507
109.443 20.9779 10.3802
100.405 21.4704 10.6474
98.558 19.9847 10.0246
94.6887 20.0494 10.2585
98.4686 21.3003 10.8851
108.848 20.8643 10.9759
89.7552 20.4981 10.4345
93.4922 20.9872 10.8108
111.453 21.7903 11.3825
106.836 19.3134 9.7308
94.4569 20.1743 10.8045
93.5702 18.915 10.0568
95.2868 21.1022 11.4093
106.35 21.2572 11.2801
99.1246 17.9385 9.97189
104.949 20.0198 10.5998
108.497 20.4937 11.3301
91.8594 19.9532 10.8716
101.384 19.4484 10.9058
106.929 20.8112 11.4049
107.937 21.756 12.3116
100.006 19.9193 11.111
97.3828 18.6124 10.4313
100.544 19.6922 11.5215
110.647 20.668 11.4419
116.971 22.1051 12.8362
103.272 20.7271 12.081
102.904 18.0225 10.439
101.672 19.3692 11.0666
106.291 18.9562 10.9099
97.3722 21.2442 12.2852
86.26 20.0019 12.149
97.4454 20.1225 11.9487
106.113 21.4972 12.5875
96.1268 19.9733 11.9636
81.1137 19.9314 12.0716
88.7376 19.2318 11.6868
96.3001 20.2772 12.1349
91.7091 20.9034 12.8706
87.1904 19.4168 12.25
90.573 21.1053 12.9663
79.9178 21.8016 14.1539
90.1294 18.8434 11.546
92.4493 21.5123 13.2705
75.2897 20.7694 13.283
94.4858 22.5992 14.059
94.9612 22.7809 14.4605
83.4827 19.5854 12.4169
79.4248 19.7266 12.6741
86.266 20.7761 12.9188
89.4894 22.0512 14.3261
78.9775 20.2569 13.2979
80.2643 18.3027 12.2354
82.7374 19.1516 13.2175
92.4969 27.5991 17.0862
88.7634 18.5895 12.4022
84.7629 18.7157 12.5539
75.7384 18.7206 12.6764
86.2965 20.4189 14.0477
93.4683 18.5601 12.553
86.0875 21.5058 14.394
92.0586 21.0119 14.4973
82.5259 20.3207 13.8208
93.9619 22.1279 15.102
74.1808 22.391 16.3147
82.6445 18.5291 13.5342
63.3954 18.1822 13.0493
79.1175 20.0365 13.9002
73.6014 19.8329 14.4181
82.831 18.2808 12.9558
80.4499 18.6334 13.5034
68.3509 19.7437 14.445
83.2216 22.147 15.6479
81.2323 19.8562 14.1389
65.6133 20.4965 15.1083
69.086 19.2554 14.731
80.1197 21.0377 15.2658
71.8876 20.3559 15.1585
77.5926 20.1606 15.2179
69.4293 19.9128 15.5651
80.7322 22.5101 16.1502
86.8822 21.457 15.7313
74.0614 20.0772 14.4802
77.6021 19.0095 14.7556
69.0922 18.6582 13.7945
63.1465 18.9435 15.4054
76.009 19.7528 15.4021
74.4128 21.0605 15.9633
71.0947 21.3491 16.3671
64.3906 20.407 15.8513
65.1373 18.9232 14.631
64.8968 20.4547 16.5556
64.8454 20.1433 16.3801
67.7084 20.2439 15.4728
70.4122 20.4091 15.9975
59.2245 18.7806 15.0427
60.4422 19.4083 16.0456
65.9447 19.3597 15.8847
66.4952 18.3249 14.9498
72.299 19.752 15.6646
60.955 19.235 15.7299
66.9692 18.3984 14.9362
70.9856 19.0525 16.3364
69.2406 21.3039 16.8669
70.5006 21.0538 17.4507
70.8527 18.7121 15.6486
63.4901 19.3385 16.5704
63.7643 19.0664 15.5642
66.8625 18.9152 15.8721
67.5578 20.6063 17.776
70.7498 19.3295 16.1221
73.7304 18.4017 15.9987
68.4625 19.7376 17.3573
72.6631 19.599 16.9121
66.5413 21.1175 18.5704
67.7133 20.6523 17.9691
56.6292 19.4046 17.272
61.8015 20.5369 18.1629
62.5001 19.927 17.3034
53.4276 20.7693 18.0135
60.2108 19.7111 17.7478
56.9154 18.806 16.8923
77.7277 23.4207 21.1766
65.7575 19.2003 17.6421
52.4678 19.9388 17.5717
57.275 20.5042 19.1336
76.0574 19.0247 17.9537
55.8429 19.4195 17.2673
64.8525 20.7113 18.6509
48.2789 19.3301 17.5795
53.9801 20.3866 18.9897
69.9285 19.0854 17.8941
57.6453 19.5727 18.2873
53.7006 19.4203 18.2584
51.1046 20.8193 19.452
55.6664 18.5969 18.1057
54.18 19.6642 18.2136
54.847 19.5618 18.9028
61.8169 21.9047 19.6341
61.3445 18.6453 18.3372
48.4796 18.0778 17.71
58.0066 21.8128 21.6799
57.725 20.5905 19.3995
60.2061 21.5746 20.4834
56.6688 17.9987 18.0787
56.1952 19.9912 19.3471
51.2911 18.8214 18.9585
51.8536 20.7116 20.0426
54.1051 21.182 22.2988
62.4094 18.6445 19.9928
60.2367 28.2717 26.0425
53.5433 19.6032 20.0255
59.3043 19.7928 19.7893
52.2847 18.6786 19.536
55.0423 20.2493 20.9068
64.3889 19.356 19.2828
55.4053 21.4751 20.7093
48.1315 19.8916 21.3621
53.2875 20.6962 20.5455
48.9561 18.9889 20.2885
50.8627 21.2873 21.9949
57.4958 21.137 21.6317
50.5666 18.9751 20.7933
48.9755 18.6201 19.5174
53.5323 19.1873 19.9412
53.8511 18.2146 18.9068
47.1354 17.9868 20.1611
57.5749 20.2782 20.6615
50.6795 17.9635 19.0774
56.5223 19.6674 20.783
50.8294 19.2657 21.2771
48.7893 19.5949 21.0726
49.3549 18.6921 20.4087
52.1698 22.7308 24.0384
46.2784 19.6207 22.6511
49.1324 19.7796 21.3937
45.2232 18.1887 20.1672
42.328 19.6554 21.0544
46.9392 19.1121 21.8944
54.5359 19.6201 21.0818
47.3231 18.0741 20.6397
52.5168 19.227 21.7895
51.6642 19.7121 21.507
47.9799 19.9499 23.2585
55.8595 19.8499 22.6209
46.1515 19.0648 22.2227
53.0638 20.5252 22.3631
48.4339 21.144 24.5845
46.0033 18.9823 21.8122
48.1404 20.2849 23.1934
42.8523 18.7247 21.647
52.161 18.9799 22.4907
45.1289 20.48 23.6426
45.7161 19.3061 23.5774
47.6356 18.6311 21.602
52.727 20.2657 24.0455
45.58 19.9509 23.0429
52.2004 19.5104 22.4836
46.9049 19.0101 23.4629
52.1396 20.1732 23.0595
46.5402 20.3382 24.2344
42.9882 18.6086 22.1978
44.7794 17.5157 20.5273
42.3998 16.93 21.275
44.7525 19.4303 23.0284
43.9077 19.9586 24.2686
46.3412 19.6268 24.0619
51.0216 16.8896 21.42
43.0767 17.7833 22.2409
50.5546 16.9005 20.1829
42.6174 19.0974 24.4343
42.9549 19.7792 24.2657
45.6867 19.3475 23.2812
42.336 19.0486 24.5331
43.9386 18.8505 23.5581
46.2156 18.9334 23.7128
48.8389 19.8472 24.7649
41.736 19.6103 25.7663
48.8555 20.4989 24.8358
42.9083 19.8959 25.5705
38.8812 19.7269 25.1951
45.6746 17.1486 22.7226
37.9575 18.893 23.4034
37.7047 19.0694 24.6648
48.3168 18.6568 24.0423
43.5618 17.6178 23.1837
34.4636 18.6767 25.0332
53.0089 20.8678 27.3082
46.2186 20.7333 27.3329
43.1217 19.0106 24.2599
37.1067 18.1192 23.8673
43.8031 18.4214 23.4195
41.1165 19.1289 25.4424
46.4866 20.4828 26.7259
44.5115 18.9284 25.2772
41.471 19.2311 26.1017
41.705 20.3028 26.304
43.9029 18.0421 24.7814
37.5675 17.8318 24.0657
43.1184 21.9573 29.7681
39.402 21.2464 29.726
41.2991 19.8733 26.337
37.0535 19.484 27.8289
32.9777 19.4763 26.3948
31.1609 17.7788 25.471
54.9814 19.091 27.453
37.3437 26.6086 34.4456
36.3448 19.7541 26.2801
40.2549 20.5924 28.8421
37.3179 18.4065 25.3233
38.6499 18.423 26.7085
36.945 17.3181 24.5659
38.3562 19.1136 27.2676
37.4358 19.1012 27.231
38.7109 20.1836 28.5107
31.7689 18.4292 26.2879
37.5297 17.7037 25.3233
36.2516 18.4782 27.1194
30.2696 18.8824 27.07
36.5986 19.3347 29.1286
35.1445 17.409 24.4408
32.4293 17.086 24.156
33.2879 16.6118 25.3441
37.639 17.9105 25.3362
32.9273 18.6561 26.9329
31.1001 18.7803 27.7453
35.2598 19.7572 29.6882
41.0384 19.1609 27.3729
36.0549 18.2569 28.6769
39.7846 18.7982 26.2397
34.4183 19.3934 29.4355
39.4011 20.5445 29.9632
35.0181 18.6045 28.5284
35.1658 17.5038 26.0711
37.1456 19.51 29.0677
33.2404 17.7511 26.2433
29.6481 20.3438 29.1921
36.1107 17.7935 26.5762
30.9515 17.9922 28.4371
34.4716 19.4944 30.1677
35.3338 19.849 30.2942
36.3365 16.3078 25.4584
35.5286 18.453 27.2124
33.4825 17.7181 28.2818
31.7933 21.1792 33.42
33.0356 17.6407 26.4073
33.6569 19.946 30.3057
32.2252 19.8987 31.7155
37.2811 19.731 30.3595
30.2773 18.134 29.7761
31.2009 18.1362 28.2641
34.4611 18.0162 26.4367
31.0261 18.2938 29.1107
32.7429 18.564 28.9399
29.6858 18.6704 29.2223
30.4165 18.3898 26.8392
31.6027 17.8431 29.5593
37.49 17.4322 29.1615
31.9475 18.4334 28.0664
30.5627 17.1937 28.0909
33.1071 18.2391 29.6467
33.8209 17.7281 27.9129
29.2136 16.1631 27.1505
33.5506 18.0529 29.5513
36.2269 18.7232 29.1588
32.2009 17.4353 29.6614
35.142 19.8696 31.1612
33.0359 16.5699 28.0377
34.175 18.6689 28.8849
33.3845 17.3484 29.3729
32.4291 17.5842 29.3501
32.6524 18.4803 30.8563
31.9463 17.8331 30.5361
33.5552 19.2952 32.2309
35.0784 17.0933 27.2043
32.7963 14.8772 24.3119
30.3098 18.0827 31.553
32.7152 17.0367 29.0237
34.235 17.5019 29.429
27.9486 18.7662 33.0293
34.6778 19.6222 32.365
35.0631 18.5087 29.9953
28.8963 15.81 27.917
28.3668 17.4234 29.8797
31.2724 16.9627 30.597
31.9685 19.3731 32.5086
32.6121 18.1124 32.2696
30.1739 17.1976 29.6
29.5048 16.4889 27.9266
29.4983 17.351 30.6462
31.1578 16.7343 28.1559
31.8944 18.5651 32.4245
26.4967 17.0186 30.5816
34.5716 18.7276 34.4992
31.438 19.2603 32.3681
28.6728 17.7902 31.1101
28.8864 17.6536 31.2041
31.9466 17.1457 29.0596
27.7026 18.5373 33.0496
25.993 17.841 33.6573
32.0989 18.6582 33.3217
33.3277 19.556 37.3305
32.9173 25.4258 40.0257
29.3464 18.8265 32.553
32.454 18.3603 35.0141
28.0539 16.7702 28.8878
28.1383 15.9725 31.3283
31.6573 17.6089 32.0117
27.6382 16.3953 29.0669
29.026 15.85 30.1106
29.998 17.4932 30.6789
29.0604 16.9821 31.5483
26.8499 16.5524 28.9694
26.4497 16.7777 30.656
27.5951 18.4183 33.4101
29.0009 17.4555 33.2146
30.7132 17.1739 31.9214
33.4097 16.4391 30.5825
33.1965 16.3773 31.9926
28.7754 18.0417 32.5519
31.3322 17.265 30.8909
27.9927 15.8274 30.7027
26.2249 16.3792 31.0666
28.4327 16.4103 30.5881
27.0403 18.8328 35.6239
27.2951 16.487 30.0209
26.144 14.8627 29.4412
26.1468 17.9935 31.0525
27.661 16.0845 30.073
28.4269 16.0852 32.5286
25.2673 13.9209 26.5664
29.5787 18.7259 36.053
27.6485 16.556 32.0616
28.0517 15.7219 30.2179
24.7182 16.8653 33.0097
29.8435 18.2697 35.3432
30.5674 17.0551 32.7963
27.4588 16.6847 32.8458
25.6294 16.5562 30.654
24.9658 15.8728 32.1169
24.9494 16.2912 31.0665
27.3606 15.0863 29.8649
27.0325 16.6539 32.3671
23.1648 16.8014 32.9069
25.7511 17.1519 34.1511
27.9416 17.5079 34.2889
28.4131 16.8423 33.8402
28.3091 17.0002 33.5076
21.3571 16.1727 32.8576
28.3514 16.4831 32.7987
27.0828 18.121 35.6999
26.2899 16.3925 33.2752
29.6459 18.186 34.1353
20.6527 18.1967 34.9387
24.9812 16.8425 35.0911
24.7088 18.3219 36.975
27.1809 19.1282 40.0395
26.9984 17.413 33.6018
25.1801 17.3594 35.3583
31.4476 17.3489 35.3583
27.9045 16.6392 34.3602
29.5872 17.8426 35.1786
25.3664 17.6733 36.2969
32.3672 18.2561 35.3215
25.7771 18.4322 39.1145
25.3153 17.1738 36.6835
26.814 18.9248 39.6141
23.9812 16.3026 35.9737
28.3544 17.8917 34.6089
25.3279 18.6804 39.0802
30.0333 18.1733 34.9316
25.7834 18.4391 40.8132
22.645 17.2485 33.3896
23.8281 19.1798 41.2645
30.1344 17.2192 36.0563
24.2113 16.6294 36.6551
25.3913 19.2108 37.7682
23.5649 19.0892 41.324
24.3678 17.0374 35.6087
24.0189 18.5821 40.1096
23.1445 17.8785 36.7553
21.6131 18.4677 41.8557
21.3337 18.2165 40.8978
26.4951 20.3233 41.1444
26.1999 16.9686 36.0567
23.2832 16.2504 35.0011
25.4716 16.0255 34.4392
26.7807 19.7851 41.1037
21.6056 18.4171 40.5474
21.3687 18.15 37.8684
24.21 18.5931 40.3052
27.0614 17.8581 38.0864
21.6484 17.1971 36.9476
22.9485 16.676 36.1061
25.3195 18.2305 37.584
23.1695 16.8051 37.2698
24.3987 17.2306 36.7292
25.3579 18.8331 47.081
24.441 22.7218 46.1666
26.7033 19.5024 42.2044
24.27 17.1592 42.6473
23.8797 18.0499 39.5204
25.5171 18.9191 41.1761
28.5362 17.6579 41.9698
25.7099 17.084 38.563
24.2203 19.5468 43.6248
25.5215 18.4083 40.1832
26.182 19.0857 45.029
23.9118 17.3713 34.2467
27.5658 17.6118 43.0123
25.4592 18.0339 39.7472
23.8913 17.5954 37.0018
28.2412 16.2593 38.803
27.9795 19.3013 42.0715
24.3 16.7015 37.675
28.0248 18.6505 40.3306
23.9644 15.069 38.6953
29.7112 16.2051 35.5568
20.4403 15.6036 38.351
22.7879 18.3295 39.3189
24.3938 17.8951 41.9556
22.3022 17.5493 38.9175
23.0116 17.8676 41.2032
23.6139 15.2543 35.2293
22.3312 17.4235 37.5733
21.2195 15.13 37.5639
20.7986 15.7966 37.8561
20.9173 17.1761 39.7198
22.6779 14.6552 34.8538
21.1477 15.0924 37.97
21.7546 16.7817 36.8295
21.874 17.0429 40.3592
24.9403 15.1958 34.5989
20.54 16.1093 38.1505
22.1328 16.7046 40.0034
23.8421 17.2491 39.5688
22.0974 15.611 39.7952
19.0231 16.6132 37.2099
20.8938 16.6655 42.7175
27.0187 17.3964 38.2812
20.9229 15.9561 39.9595
24.3782 16.9726 38.4612
22.285 17.422 42.4157
24.3049 15.6497 36.3198
21.031 16.855 42.198
22.5929 16.3535 37.9502
24.4213 16.6158 39.907
22.6873 14.7138 34.7964
20.1828 16.6458 41.417
22.9818 14.8718 37.3676
20.2044 16.0751 37.896
21.6062 15.3523 37.2845
25.1558 16.3263 36.0683
20.3666 14.2644 38.3752
21.2835 15.3454 37.0921
23.8963 17.0889 41.949
20.5317 16.738 40.8697
25.8034 16.5388 41.8084
22.4077 15.0897 38.4833
21.4912 17.5687 42.3005
19.6191 16.6232 40.1152
20.0485 15.5447 39.6127
24.0659 15.9782 38.7702
21.1953 17.1685 39.689
21.1317 15.2327 40.2067
21.2833 15.9295 38.8828
24.6804 16.123 40.5269
20.5132 17.3527 40.0505
18.0772 17.1157 43.6528
19.6939 14.0611 36.5938
19.2767 14.8571 39.34
17.5374 14.6771 35.9306
23.8138 16.6024 40.9618
20.0354 14.3867 36.458
18.1881 13.2044 33.9707
23.9025 15.3309 40.1719
23.7138 15.0606 38.315
18.0527 14.1239 35.9489
21.4563 14.5804 36.5905
19.9158 14.6288 37.9146
22.8573 15.183 38.6818
24.2551 14.3715 36.5852
22.2462 15.6055 38.2481
22.3728 17.2281 44.4413
24.2086 15.9454 41.5562
22.1157 15.4999 41.2595
19.9084 15.415 36.4929
20.2817 14.6169 38.4767
20.986 15.7561 40.0424
20.5449 15.1511 38.4681
21.3621 13.8659 37.4008
19.563 15.5606 38.3113
22.2629 14.5588 39.4314
33.9827 16.1292 46.7661
20.6224 18.5135 43.8377
23.0821 14.5219 36.1497
24.9594 14.9707 41.6289
23.6681 15.6331 38.3198
20.5119 14.1969 40.3302
21.3775 14.5368 35.9177
19.2742 15.1923 41.367
19.7668 14.6402 36.8914
20.7601 15.0886 37.4125
17.6596 13.6955 37.4213
19.8526 15.4888 41.094
18.0455 14.9131 43.0556
16.4868 15.6138 39.8093
21.1779 14.9095 40.7723
19.3096 14.3929 41.6272
19.7031 15.5125 36.218
19.3996 13.8842 38.9055
21.1158 15.6913 41.5523
17.9774 13.5364 34.5004
14.8207 13.8109 38.2323
16.8785 13.1486 36.7452
18.2756 14.3943 39.402
16.7766 14.4205 39.8534
16.3383 13.6265 35.4799
17.3478 13.2447 35.1526
16.7042 13.4753 38.5384
17.6385 13.2424 37.247
17.4818 13.5901 36.7981
19.408 14.3758 39.7376
18.7112 15.2684 39.014
15.5225 15.1823 43.1061
22.5313 14.7387 40.5939
18.3276 15.4841 41.6436
20.5849 15.5251 41.7493
20.5737 14.3704 40.2505
23.4657 13.285 34.9591
19.0288 14.4618 40.9271
19.8533 15.3154 40.1894
18.2884 14.7626 42.7625
18.8687 13.1838 34.7202
18.42 13.8906 38.7164
17.9638 15.5329 41.8007
19.3475 14.5619 41.5603
17.4387 13.4719 38.9391
17.6977 13.9742 37.7016
19.4287 14.3203 40.5188
17.6127 13.0507 37.8502
18.783 14.0395 40.1218
17.3589 13.8652 39.9996
16.3632 13.8563 38.8836
18.7639 13.164 34.4696
18.3693 12.5533 35.5918
18.0896 15.077 44.3749
16.6259 14.276 39.829
17.8215 12.2851 36.6292
17.5276 13.026 35.5466
14.7069 14.3876 41.1942
18.2548 13.4093 36.2356
17.5941 14.1488 43.5657
16.7311 13.2574 39.1487
18.1906 14.3297 39.9613
18.8913 14.6747 39.7849
18.4926 13.0737 35.905
15.5216 12.8785 37.5776
14.7896 15.1495 45.8757
18.4104 14.4977 41.9905
19.2481 14.7276 39.1876
18.0364 12.062 37.6883
20.5073 13.4615 38.9584
18.4882 14.6579 39.7135
18.1014 13.1424 36.1356
18.0935 13.7424 40.6615
18.2061 13.5449 38.3492
14.3396 13.1514 40.911
18.1279 13.1105 38.5944
17.5013 14.4736 42.7144
16.374 13.6274 38.7118
16.0335 13.0679 40.3946
18.2245 15.718 44.4333
17.382 13.1783 42.3051
18.3032 13.9293 36.5693
16.2065 15.3508 44.8006
18.0969 14.6463 40.8558
18.9594 13.0923 42.9173
18.1636 14.6714 42.1614
17.2822 15.0569 42.0247
15.9531 14.83 45.9672
20.6708 14.1869 41.8057
17.3681 13.4255 42.0818
17.5796 13.652 38.0666
17.3201 13.7801 40.7639
16.9116 14.5054 45.8956
15.9876 13.0823 37.4194
14.8799 14.4867 45.3735
18.3668 15.4363 44.697
16.3606 16.0367 53.7175
17.7407 17.1383 48.2537
16.2647 16.0107 48.2538
17.7054 14.195 41.1497
15.3182 15.1495 44.0358
17.137 13.3899 40.691
16.5917 13.7412 44.5878
15.1063 14.4729 42.5028
14.7017 13.1394 37.0253
16.4336 14.2147 47.4689
16.4183 14.7631 42.3299
13.9495 14.2267 44.0839
17.5715 13.5046 38.7731
14.6695 12.8823 36.9538
13.9818 12.5232 39.1215
13.7475 13.1884 42.7317
16.9927 13.4599 40.387
15.5488 13.2552 37.4425
15.6534 13.6618 43.711
17.9309 14.5305 43.0836
17.2135 14.0521 41.766
17.1926 12.932 41.5882
17.911 14.6861 45.0001
16.8958 15.4519 46.5229
15.0209 14.3524 43.9789
16.2277 14.2546 45.1266
18.4904 12.9722 40.921
16.0009 13.0361 41.3436
19.1938 15.1208 44.4177
16.1793 12.8605 40.5879
18.529 13.0993 35.6754
15.7361 13.5185 43.7251
15.1334 13.5175 44.3642
15.1834 13.4733 40.3945
16.991 13.1589 41.639
16.015 13.6947 41.0438
15.0424 12.7392 40.9842
13.9703 13.0782 40.5783
15.262 12.3878 39.0883
14.9307 11.4089 38.5176
13.4128 13.9647 42.9888
15.5726 13.4403 42.8888
13.6505 15.431 47.0656
16.0599 12.4631 43.7328
15.6636 14.3463 43.0266
16.4974 14.5516 44.0373
14.3737 12.1198 39.3273
14.1314 12.5207 41.3689
15.7889 11.8789 39.0493
15.0447 12.2169 40.5481
15.3128 12.9975 39.6752
14.4007 13.3388 40.9143
13.3993 12.3703 40.3125
14.0088 12.2172 37.4792
16.2618 14.554 48.9282
17.404 12.7001 40.0061
16.9811 12.843 43.2285
18.0686 14.2788 39.8692
16.7974 12.04 39.8698
16.0574 12.0217 39.3355
19.4206 13.2402 43.7493
15.767 13.1479 42.9913
19.3719 11.4535 37.8574
16.438 13.5525 43.9285
16.7257 13.7552 42.8805
15.5715 12.828 39.5416
16.1264 12.4864 38.1757
15.1439 13.3023 43.429
15.0501 12.6593 42.7892
17.7378 12.7264 41.8218
15.2165 13.0928 40.7135
13.5775 12.5707 40.4712
16.4502 13.1152 41.1494
19.5512 14.0042 43.8929
13.6533 11.7779 44.9406
16.9154 14.249 43.0337
16.6473 13.0902 42.7068
13.4566 13.1397 41.3995
15.9245 13.0691 45.0008
17.5226 13.9414 40.6524
14.0247 12.3694 42.7704
13.7275 13.5466 45.0057
15.5255 13.2448 41.6636
15.5925 12.1386 42.2681
14.0904 12.0932 38.6973
14.4819 12.7391 39.4187
17.3247 13.4051 45.5141
13.1492 12.2329 37.1411
12.8648 11.4864 41.8235
15.3889 13.0547 41.0464
15.1706 11.9573 40.7151
12.6539 11.7462 39.6965
13.5041 12.8629 43.3849
15.6418 11.839 40.675
13.969 11.7325 37.3898
14.1224 12.2154 41.9162
13.7729 13.9143 49.7854
14.7634 14.8007 45.9004
16.3545 13.4683 41.3342
15.198 11.9785 40.8287
13.7148 12.8784 44.9367
15.0039 12.9245 42.9262
17.1386 11.923 40.9728
13.8741 13.7501 47.4845
16.0994 13.6919 43.2895
15.3112 13.1316 44.8265
16.3726 13.2947 42.7692
15.1468 12.7349 40.1485
17.2249 12.0475 45.7238
15.5352 12.3007 41.1264
16.3354 11.9241 40.7893
16.5963 12.6152 41.6387
15.9102 11.8699 42.3572
14.6682 14.364 45.6895
16.2231 13.04 44.5441
16.0666 12.9728 42.2176
16.8895 11.9694 41.9767
12.5697 13.0343 47.8253
14.6258 13.4713 42.5398
13.6068 12.329 42.4005
13.0041 13.155 43.301
15.3101 13.1409 50.883
14.4247 13.956 45.0065
15.3136 14.2812 45.6589
13.7581 13.4563 45.5581
14.0272 14.7132 48.1969
14.8365 12.8503 46.0522
13.975 13.2737 40.618
14.0479 13.0492 46.1374
12.5988 12.491 41.2188
12.2003 13.2931 49.5752
16.9153 13.54 45.3098
12.4631 13.5242 48.8678
14.182 14.9235 48.5394
15.1144 12.4051 43.2265
11.9892 12.537 40.0013
12.5519 12.2981 43.3939
13.8607 13.0686 45.6511
15.8604 13.7439 45.9708
14.3532 12.4194 45.9018
14.5781 11.6302 41.3612
15.5035 11.3529 38.6664
16.1871 12.66 44.8712
14.6632 13.2813 47.252
17.2909 13.0434 43.1779
16.404 12.3302 42.9715
13.9463 12.3374 42.2755
13.3269 10.8208 42.2331
15.5776 13.518 44.0147
13.9437 12.6106 41.9582
13.8622 11.4722 40.5865
14.6677 11.9883 40.1325
15.4422 11.3271 40.6386
13.9454 12.9144 46.703
14.4155 12.9945 43.0761
15.022 10.2777 37.5814
14.4967 11.8046 41.041
13.8074 12.2569 46.3381
14.305 12.6441 44.534
13.1886 11.8693 37.277
14.645 11.555 40.0881
15.1549 11.7624 41.4672
15.3607 10.9387 41.8907
16.6341 11.8963 40.1908
13.9993 11.569 42.5072
16.9918 11.7364 40.6479
14.7328 13.3298 49.6655
10.9102 13.4158 45.0701
14.6721 13.5194 47.9449
13.0896 13.2246 44.229
12.1659 12.0354 46.0293
13.8511 11.9196 42.1105
11.6184 13.4006 46.2735
13.4737 12.4804 43.4378
15.0795 10.3146 37.253
14.733 11.3648 39.659
13.1628 11.505 42.0606
14.6271 11.2304 40.7228
12.8637 12.9061 46.6581
14.5294 11.9851 43.759
14.7236 13.6303 46.3768
13.3101 12.6408 46.8889
13.5366 12.9735 47.283
16.1616 12.131 47.9826
14.7849 13.1255 45.068
13.9688 13.2341 49.9776
16.2252 12.6058 43.1275
14.3243 13.0366 46.098
14.6801 11.5981 41.8783
16.2746 12.8681 45.8437
13.688 12.4385 45.7886
18.3309 12.8286 46.0662
26.9301 15.2 60.7392
14.938 14.2631 46.5269
21.1747 11.8646 44.6133
21.1163 11.8192 42.5675
17.6425 13.0964 46.6796
16.9244 12.1863 44.5673
17.2962 12.9892 42.5091
14.7793 12.1947 46.2954
14.8262 11.4489 41.4018
13.2169 13.2056 44.4362
13.1038 11.4772 41.8756
15.4926 11.3729 41.7633
11.5191 12.1463 46.4326
13.1955 11.4328 42.5113
14.208 12.5249 45.1266
13.1827 11.71 44.4469
11.8157 11.6853 41.0427
13.6419 12.6972 44.7027
13.6261 11.6298 44.2368
12.9755 13.0837 45.0489
11.7472 11.2919 41.7361
12.4946 10.9401 41.9553
12.7898 11.6308 44.0535
13.2333 12.9812 48.0382
12.883 12.3079 44.5799
12.7496 12.2465 42.4557
14.3639 11.7671 45.5311
11.8905 13.9178 47.6318
13.4434 11.5931 42.7856
16.373 11.972 44.1554
13.403 12.0028 44.394
12.2909 12.4947 43.3176
15.6089 11.1445 38.7516
14.0143 11.6234 44.1099
14.8496 11.4032 40.6579
13.6535 10.9415 43.3224
13.7798 11.041 42.3356
12.8423 10.5201 41.5424
13.7365 11.6683 42.2247
13.0121 11.5245 39.0638
12.6064 11.9488 41.2644
12.426 12.422 48.8588
14.2343 11.4681 44.3755
13.9344 12.4873 48.4117
10.7834 12.1656 44.7706
13.0267 11.5057 45.287
13.0155 12.9797 45.9532
12.5889 12.4332 44.2699
13.6241 12.8602 42.426
12.8553 12.5383 47.3969
13.2769 11.7618 45.5028
12.6505 11.472 43.0349
15.2307 12.7423 50.738
13.5021 12.5049 49.3162
12.7099 11.9052 40.0676
13.0704 11.6367 43.9236
13.5703 11.2427 42.1273
11.0168 12.2459 44.7399
12.1089 12.2371 48.3556
12.5827 12.1821 46.7357
13.2438 11.6238 41.5327
12.472 11.7693 41.6517
13.8166 11.5226 44.4482
13.0624 10.7392 42.266
11.8302 10.7496 39.1934
10.0133 12.0556 44.0757
12.8296 9.99437 38.15
11.7817 10.5639 40.6844
11.987 11.248 42.8961
10.9339 10.8608 40.2875
13.2477 10.6147 43.2978
12.3242 11.9777 44.9086
14.1379 12.6614 42.7844
13.5469 11.3647 45.891
10.826 11.8715 43.1638
12.4563 11.3377 43.0854
13.3163 11.2801 42.9103
11.0734 11.9096 45.8
13.4723 12.1765 45.7267
12.7077 10.7852 40.1578
13.7655 10.3508 41.0694
14.4507 11.2947 45.6372
13.7033 10.7727 40.1965
14.7434 10.9819 43.126
16.2241 11.3127 39.7314
12.6735 10.5821 42.0967
14.2875 10.6928 41.7382
12.5236 11.7871 46.1794
15.7636 12.0656 44.8467
13.5512 12.5576 43.3654
13.7079 11.3735 46.7136
15.5703 11.7552 41.3478
14.3928 11.352 41.5069
11.2531 11.6073 46.7664
12.3739 11.5281 40.9293
12.0732 11.1422 40.5161
11.5757 10.759 51.1911
11.9092 13.0366 43.2792
11.4147 11.4467 44.8092
12.3656 11.28 43.5647
12.0847 11.3329 45.1331
13.833 12.0298 41.9012
10.8677 12.3933 47.6492
9.89954 10.2363 39.0829
12.527 10.1839 40.9776
12.785 11.0519 43.2784
10.9862 11.2697 41.5394
11.3141 11.9913 45.8172
12.76 11.5499 47.6122
15.0705 12.172 41.9546
13.6573 11.3068 44.3183
12.2657 12.087 45.1381
14.2596 10.4649 43.51
12.0929 11.3414 42.077
12.0857 11.2737 41.6219
13.8391 10.2205 41.6336
12.1242 10.6002 40.2677
13.9518 11.1984 43.6138
13.5142 10.4533 41.8716
12.6236 11.4529 42.8951
12.0146 10.4414 42.4883
13.1605 10.6954 43.2667
13.7827 11.503 39.8976
12.9586 12.0821 50.7611
13.1071 11.6748 39.5167
12.2672 11.8043 46.9011
15.1679 11.3213 43.6468
12.6398 12.32 47.7399
13.1357 10.5206 42.3655
12.0118 12.026 43.9982
13.0904 10.3266 42.8959
13.3605 11.3424 43.2528
12.5728 11.7932 45.4234
11.3189 12.0892 46.7137
13.6739 11.7771 45.4799
11.2976 11.8656 47.2281
12.4629 11.2582 40.7363
10.6896 11.1504 43.0601
10.7767 11.8346 46.3719
13.6124 11.2013 41.2768
10.2644 10.3794 45.5333
13.7395 12.2838 45.1375
12.06 11.1523 46.1878
10.4277 10.7142 39.9609
13.4744 10.9685 43.9181
12.1879 11.5737 45.5186
13.0014 11.2862 45.4368
12.3582 12.2992 44.9529
10.5504 10.5345 42.9885
13.639 10.8325 40.1136
10.9489 10.8621 42.4792
11.9769 10.6684 39.7262
12.079 12.1667 48.1521
13.1734 11.7956 47.9257
13.0346 11.7283 43.5311
12.281 11.5854 44.9639
13.169 11.065 44.5081
12.0618 11.3509 44.2018
13.3428 11.5895 45.0876
12.2453 12.3487 46.6422
14.9034 11.7401 43.123
10.7105 11.6549 49.7994
12.655 12.2948 49.5931
12.5409 10.5963 41.4376
11.9229 11.8313 46.8581
13.4838 11.4671 45.3676
12.378 11.8389 43.164
10.3155 11.2667 48.8918
14.6124 11.3748 44.3608
13.4351 10.7252 40.3367
10.4383 10.4086 40.1745
12.0832 11.3185 48.4484
12.4642 12.4937 46.0277
12.6082 11.2093 47.7541
12.0001 12.5646 46.3208
12.4552 12.934 48.4006
12.9552 11.3021 47.1283
10.0218 12.4663 47.4318
12.8647 10.8807 44.3795
13.1804 12.3783 45.8748
11.0128 11.8404 47.6657
12.8441 12.6513 43.8777
12.157 11.0698 47.4018
9.4514 11.279 48.322
11.4029 12.2897 43.6701
11.3199 11.8904 45.8225
12.4875 9.51732 44.2125
10.0704 11.965 42.85
8.89901 11.3216 44.9172
13.0097 11.8251 46.0493
11.487 11.516 42.298
11.0621 11.447 44.609
11.8711 11.6646 57.9922
11.8756 13.025 46.4502
12.7443 12.1479 45.5071
11.7574 12.9739 47.7963
10.2735 12.215 45.6259
12.4431 11.425 44.4293
14.3623 10.8851 45.1413
12.4531 10.7682 40.6126
12.3737 10.0633 42.1151
11.572 11.0083 44.1058
13.0893 11.7789 44.8468
13.0677 10.9745 42.5076
13.319 10.184 43.5848
12.6963 11.3877 47.2745
14.3735 11.4243 44.0705
15.0105 11.3303 44.8819
14.4914 11.7423 41.2018
12.7879 10.3468 44.7216
12.5348 14.8217 71.3115
13.7681 12.4022 42.9648
13.4137 12.0001 46.2904
11.0552 11.7782 45.4085
12.5718 12.4239 44.3663
11.9197 10.7234 43.7925
10.7357 12.3523 45.4924
11.7574 11.5238 49.915
12.979 11.3347 40.0266
11.5077 10.2003 48.0277
12.1296 12.8228 44.118
10.8312 11.1965 44.7429
10.3678 10.4573 42.5702
11.9852 11.2074 43.1601
12.5726 10.9427 41.7553
9.04768 10.9622 46.5759
12.2298 11.6799 46.3325
13.2539 10.7726 44.7437
11.4307 11.8537 44.0697
12.1656 10.9892 42.4312
12.2091 12.1999 46.3492
11.3696 11.6634 45.544
11.4329 11.1096 45.0273
10.3405 10.3871 48.5301
12.9124 11.7471 43.5209
11.1266 12.2127 45.6144
11.5362 10.7356 43.4232
13.2512 12.1924 51.5738
13.6319 11.3681 41.0061
10.8234 10.9791 42.5375
13.2039 10.9218 45.8563
12.5143 11.9149 40.2899
12.3839 9.44684 45.0642
11.776 11.4936 42.5537
13.5449 11.5589 49.2209
13.0346 11.4302 45.4371
12.7297 11.7941 42.0827
14.1369 11.0213 40.7057
13.0752 9.62777 38.7221
12.0182 9.58254 41.8347
13.6214 10.5774 39.156
11.4173 10.2833 40.8888
14.1678 10.7255 48.0455
11.7881 10.7021 41.22
13.0639 11.4825 46.0962
11.4562 11.7976 47.5249
13.8776 12.257 54.4153
13.2562 12.162 44.1884
13.7241 12.1906 49.3473
12.1534 11.1616 48.555
12.0282 12.561 45.4646
14.2371 11.4225 47.9045
12.7505 11.2073 43.0472
10.8508 10.5487 43.3968
11.8085 12.0697 44.3295
11.4394 11.7774 51.1729
11.8498 11.9416 43.9322
10.6019 10.3404 42.6217
9.44767 10.8354 42.7684
10.6993 9.85604 40.4854
10.356 11.2387 42.9607
11.3065 11.8391 46.2991
10.7662 10.9641 45.626
12.8119 11.0525 43.9014
10.5063 12.107 47.5539
13.1548 11.189 46.3661
14.3797 10.8206 44.4038
12.3479 10.8647 43.4126
11.3951 11.0983 47.5928
14.8501 11.9249 53.0703
13.6805 12.1731 40.2913
13.1583 11.4201 41.6446
14.16 11.0863 42.2694
14.1465 11.5378 51.8998
15.6512 11.6441 47.0039
15.5869 11.6804 43.0924
14.1193 13.2023 52.1303
17.7701 12.1467 49.4347
21.7201 12.8871 59.9118
13.5814 0 0