# pn-170911/RbIIR-53-USN7-1280-1959.psd
# Power spectrum* (dif=0,1,2) (really just |FT|^2)
# NOTE: only the first half! (symmetric)
# weeks: 1280-1959
# 189 clock-days, 347 excluded
# PSD: 1441
1599.27 0.124744 0.10004
28907.5 0.672241 0.215134
202032 4.29897 0.246747
16678.3 0.599927 0.231562
59027.9 4.38216 0.231453
5174.26 0.619138 0.228343
6722.2 0.992527 0.207159
3233.91 0.667893 0.206292
4368.09 1.28138 0.213579
2192.94 0.830898 0.224385
2223.6 0.949206 0.210835
1646.15 0.840154 0.213241
1734.08 1.10448 0.193034
1373.04 0.937032 0.197926
1265.43 1.05761 0.191251
1075.33 1.11614 0.222304
1110.97 1.30337 0.216267
904.037 1.26293 0.185946
1023.82 1.51075 0.205424
1012.1 1.7166 0.204601
1017.43 1.82983 0.210413
932.824 1.9081 0.193153
996.107 2.11098 0.227506
900.539 2.07412 0.242252
911.255 2.3887 0.217242
1053.52 3.08605 0.224389
884.204 2.78166 0.235482
769.801 2.64499 0.225695
936.763 3.40129 0.205643
869.997 3.19531 0.211836
942.344 3.92574 0.267048
829.72 3.69028 0.225758
932.497 4.51157 0.247411
850.754 4.21688 0.240069
878.49 4.57785 0.275713
962.968 5.52393 0.229641
732.271 4.55233 0.27253
867.804 5.48989 0.292947
885.612 6.01158 0.26019
867.376 5.95026 0.265897
883.978 6.59364 0.271649
780.2 6.13119 0.235765
739.509 6.12759 0.269706
891.806 7.54942 0.242599
782.042 7.26016 0.27768
909.902 8.59172 0.297177
752.112 7.39736 0.280632
876.268 8.85981 0.341707
788.276 8.21227 0.294587
688.312 8.10206 0.304879
763.498 8.87183 0.275489
814.678 9.9396 0.363825
814.647 10.6449 0.362771
776.874 10.1572 0.354192
730.166 10.3983 0.35403
823.232 11.8767 0.369546
673.881 10.0153 0.337106
739.093 11.7365 0.371705
798.429 12.6675 0.387185
691.939 11.0126 0.413091
779.179 13.09 0.449898
761.393 13.5476 0.452737
797.394 14.4132 0.49128
624.72 11.3847 0.444138
717.813 14.0274 0.513341
637.425 12.9641 0.468428
643.899 12.9624 0.419918
619.864 13.158 0.489086
672.708 14.6375 0.495905
621.823 13.9948 0.568755
566.601 12.79 0.504455
659.493 15.5189 0.543293
617.913 14.9386 0.651813
634.358 16.127 0.613832
583.448 14.88 0.629344
557.376 15.0698 0.562055
481.472 12.6033 0.493688
602.471 16.9282 0.640379
667.792 18.9948 0.784939
517.307 15.3057 0.684809
506.023 15.2705 0.681062
469.429 14.4475 0.678371
499.179 16.0141 0.786745
590.341 19.0826 0.817245
512.818 17.38 0.795413
529.496 18.1185 0.887618
496.538 17.0227 0.742078
491.289 17.7266 0.765407
422.087 15.5727 0.762223
431.923 16.2837 0.839072
438.284 16.4397 0.812089
501.296 19.6487 0.884355
452.385 18.3267 0.866708
364.593 14.9852 0.774495
438.29 18.0736 1.00816
415.499 17.8279 0.934459
387.789 16.7242 0.906837
329.538 14.6439 0.869093
377.633 16.786 0.999613
353.8 16.4061 0.909641
377.902 17.9194 1.01677
341.159 16.4964 1.01643
348.651 17.0013 1.03777
356.641 16.9657 1.01991
331.938 16.9304 1.01463
353.859 18.7954 1.22913
352.897 18.6404 1.1584
377.755 19.99 1.34985
356.318 18.6444 1.18857
367.302 20.2856 1.29845
390.479 22.5035 1.50042
327.408 19.0703 1.30784
288 16.5002 1.14256
335.411 19.6767 1.46613
345.231 20.7337 1.45675
304.596 18.4269 1.31216
311.677 19.8299 1.31148
270.449 17.0642 1.27838
322.351 20.7745 1.54976
277.049 18.3023 1.33479
279.996 18.5925 1.47216
305.808 20.9296 1.51465
257.796 17.7211 1.46867
282.221 20.0611 1.42518
302.922 22.177 1.78229
306.835 21.9646 1.86827
288.686 21.6511 1.75882
267.793 19.908 1.64538
261.164 20.2936 1.69263
252.985 19.7952 1.69995
215.443 16.7804 1.52056
268.718 21.6469 1.89503
236.831 19.6419 1.77378
237.722 19.4745 1.83338
211.746 17.3512 1.61526
219.247 18.7866 1.94866
245.004 20.7455 1.92404
275.72 24.2791 2.26874
236.692 21.0767 1.86283
235.886 20.9063 2.16109
195.217 17.9293 1.73327
194.129 17.9243 1.85764
207.434 19.1204 2.01151
202.199 19.4304 2.02812
240.972 23.9548 2.42768
218.324 20.2507 2.10656
205.275 20.534 2.24953
233.156 22.8978 2.53568
205.76 21.0554 2.31028
189.348 19.84 2.32669
174.118 18.2515 2.04234
215.142 22.6152 2.43181
194.694 20.7997 2.40131
207.884 22.1408 2.43641
179.506 19.9133 2.37494
196.875 22.3655 2.62886
193.573 21.9842 2.71669
170.778 19.7495 2.44085
188.411 22.3216 2.77482
160.317 18.5813 2.32543
165.492 19.9457 2.5222
187.141 22.2056 2.82832
161.975 18.8616 2.36152
159.73 19.967 2.64155
164.842 21.2315 2.81918
153.351 18.7671 2.47783
162.002 20.837 2.81182
178.014 23.778 3.17086
177.003 22.1471 2.99527
186.711 23.9008 3.17469
155.963 20.5355 2.88955
163.786 21.3795 2.90967
136.355 19.2589 2.76992
149.269 20.7647 2.98211
177.134 24.6607 3.49693
167.975 23.2868 3.47147
140.545 19.8765 2.98111
153.126 21.8194 3.19014
151.174 22.7011 3.46394
168.749 25.571 3.8038
147.647 22.4533 3.49521
142.529 21.3913 3.32876
174.5 26.7488 4.10145
161.319 24.6598 3.88127
122.159 19.0287 3.14491
153.932 24.7864 3.98742
146.564 22.6861 3.69488
126.637 20.2102 3.26485
142.343 22.8328 3.88877
130.862 22.3904 3.9423
132.672 21.1075 3.58231
134.047 23.5688 4.26662
182.331 30.7421 5.25223
131.467 22.2663 4.02176
133.945 23.5662 4.12402
137.968 23.8341 4.33602
137.483 24.2966 4.24775
135.507 24.8446 4.53474
127.964 24.3189 4.41209
121.89 21.7979 4.13812
106.87 19.9593 3.84062
122.119 23.3716 4.33446
128.731 24.6225 4.67656
128.472 24.5204 4.63016
127.538 24.4975 4.82112
138.259 26.5287 5.0719
116.725 22.9107 4.65725
130.186 25.8819 5.12578
119.87 24.8252 5.31356
122.262 24.8964 5.13607
124.479 24.6022 5.0434
125.376 26.1597 5.34212
116.501 24.2473 5.32008
113.83 23.5427 5.28211
109.077 23.3674 5.02044
112.713 25.1732 5.68294
129.317 27.295 5.84462
107.944 23.94 5.13172
113.306 25.0356 5.62044
126.238 27.9755 6.09307
117.115 26.5381 6.07368
88.4061 20.5038 4.89396
126.525 28.5902 6.70444
97.7179 22.5161 5.10662
97.8153 22.6665 5.31598
102.518 23.7683 5.82421
105.985 25.2411 5.97432
109.419 25.8815 6.16703
104.665 25.6448 6.30203
101.304 24.3835 6.25477
101.868 24.3592 6.15923
110.217 26.3044 6.43425
97.667 24.9245 6.57906
115.291 29.115 7.42975
102.248 25.278 6.57494
118.518 29.877 7.91
109.399 27.4852 7.11536
110.72 28.444 7.39728
90.6105 24.4685 6.66366
105.105 26.9183 6.81329
91.8585 24.4168 6.74475
100.951 27.0022 7.05564
87.3828 23.6804 6.58414
89.2036 23.9876 6.80466
102.652 27.6715 7.37859
94.7054 26.5759 7.74277
87.7779 24.3229 6.95486
106.888 28.8071 7.97424
89.0173 25.1841 7.47996
94.8277 27.1065 7.96596
99.062 29.2274 8.60155
113.408 32.3209 9.52774
103.398 30.2662 8.75193
88.4625 26.0441 7.93683
102.863 31.3343 9.32502
82.8047 24.6063 7.87626
95.641 28.3315 8.57857
93.9427 29.3122 9.21293
94.437 27.5362 8.64943
91.2374 27.0267 8.43452
100.311 30.564 9.39272
88.2353 27.8214 8.72593
87.035 26.6492 8.594
87.6685 27.7058 8.96536
110.32 34.1944 10.5062
88.1276 28.4519 9.13198
74.2034 25.05 8.70609
96.013 29.8652 9.63402
91.2881 30.4378 10.1458
80.3245 26.0814 8.74095
88.7023 30.3052 10.4289
95.4537 30.682 10.0389
82.2564 28.5057 9.93194
96.4691 32.924 11.2497
87.1338 29.479 9.92529
76.6922 27.455 9.79693
94.6729 32.8564 11.542
84.957 30.6084 11.0402
92.9636 32.2143 11.1853
69.3322 25.1037 9.36367
89.9196 32.0488 11.656
79.1129 28.4562 10.656
76.9726 28.8029 11.1938
87.8169 31.2962 11.3811
83.2624 30.0108 10.7864
77.2801 28.5306 11.085
71.7848 26.3859 10.3649
70.0362 26.1044 9.97185
94.4376 34.9404 12.8447
68.2591 24.8451 9.42245
74.567 29.341 11.5435
70.6669 26.8625 10.5957
78.8654 30.4585 11.8139
75.3293 29.413 11.8623
71.2114 28.2964 11.5853
75.3158 29.6897 11.5473
66.5507 27.0806 11.5517
77.828 30.152 12.2912
67.0588 27.4788 11.4288
74.2419 28.8493 11.8061
67.6363 27.1699 11.1993
66.2416 27.5648 11.6158
82.2054 33.4238 13.5731
73.2222 30.7779 13.1133
68.617 27.9541 12.277
81.4487 34.3324 14.5337
71.5922 29.1939 12.1536
77.0575 32.9603 14.3718
68.1671 29.1179 12.7881
77.7258 33.9207 14.909
67.6805 30.5129 14.1442
76.0712 32.6524 13.9496
65.2475 29.4291 13.0368
71.8409 31.916 14.4435
57.9457 26.3317 12.2835
65.9844 30.4049 13.7285
60.8522 27.4683 12.745
64.3233 30.4296 14.0983
72.8865 33.3877 15.9929
70.738 31.1229 14.192
66.1627 29.4865 13.3519
64.697 30.7767 14.101
58.9587 27.1936 13.4018
75.6416 35.1064 16.0503
61.5414 29.7259 14.1947
65.4712 29.7946 14.065
66.1898 30.5694 14.4423
57.8807 28.3485 13.8855
66.8827 31.1161 15.2552
67.1692 32.5929 15.8136
70.9547 34.1202 16.4383
57.2812 28.3887 13.9902
63.7002 31.1117 16.468
55.2804 27.3582 14.2295
59.2152 28.49 14.2583
62.2444 32.3501 16.6216
64.8355 32.7328 16.992
62.9979 30.9374 16.236
65.4539 33.3996 17.3561
58.9093 31.0136 16.3063
59.9082 32.2751 17.2766
59.8625 30.1728 15.9955
64.3867 33.6763 17.5618
56.6641 28.8345 15.096
55.7954 31.2837 17.706
62.5719 30.6459 16.1472
57.5097 30.1427 15.4045
57.9066 31.6676 17.2037
60.27 33.3451 18.331
56.8202 32.1473 18.4539
63.0478 33.1482 17.6115
61.3954 32.5652 18.0448
65.3627 34.5296 19.0696
56.2502 30.8549 17.6535
72.9109 40.3017 21.5426
52.3939 31.3703 18.5556
59.5776 34.021 19.8766
54.5583 31.778 18.9709
69.2668 37.4427 20.3026
54.2001 32.4098 19.6347
61.6224 34.5276 20.1051
47.7816 27.2387 15.9411
48.5205 29.4335 18.127
55.6764 31.8394 19.0313
51.0573 29.1394 17.4275
55.1137 31.9624 18.6156
54.4753 32.486 19.4069
49.9139 29.3349 18.0675
51.2762 29.7777 17.771
59.1548 37.4282 22.9236
51.4954 30.7374 19.0799
48.537 29.348 18.5447
59.3618 37.2737 22.9712
56.9241 34.0248 20.7479
54.0672 34.6989 22.2779
52.5272 31.4612 20.1478
53.2573 33.2159 20.5638
54.9141 34.1581 22.2153
54.9474 33.5746 20.9402
49.099 31.5928 20.1093
45.0676 31.4477 21.4392
43.4168 26.9316 17.3601
45.0895 29.5163 19.8909
51.5226 32.4294 20.7506
51.1895 32.1356 20.7407
45.0895 29.3286 19.354
46.6548 30.0297 19.7278
52.1125 34.8808 23.1094
48.1853 33.5622 23.7859
46.0198 27.669 18.1391
53.6299 37.5737 26.0554
53.6568 34.8817 22.8822
43.1036 28.3883 19.5899
54.3898 36.7315 25.193
40.0706 27.376 19.7913
47.8409 31.0835 21.1668
50.5798 34.285 24.3223
46.4298 32.8148 23.8616
52.186 36.0591 25.7721
55.9344 37.5704 25.6938
55.5627 39.725 28.1315
52.0501 35.4054 24.885
47.0352 33.2046 22.9747
43.5734 31.9581 23.9298
45.3109 32.6603 24.4647
45.3699 31.9672 23.5499
49.5182 36.7656 27.1647
52.3504 35.4634 24.6271
48.1638 35.6192 25.8593
45.7228 33.4747 24.7551
41.0012 29.8332 22.2398
45.32 34.6209 26.8066
49.155 35.1425 25.4595
38.5421 29.9502 24.3597
41.7885 30.7903 23.5087
39.4999 28.4912 21.7164
39.705 29.9801 22.5216
44.8329 36.614 28.8254
44.6861 33.8961 26.4907
45.1537 32.3915 24.6782
48.457 37.9344 29.6147
40.2176 30.7924 23.7743
44.3247 33.9537 26.4055
43.9678 33.9794 27.0148
42.4048 33.0271 25.8313
40.0349 33.0958 27.5663
46.1447 36.0841 27.8475
40.8498 33.1036 27.381
47.1528 36.5754 29.4816
44.2654 34.0275 26.7821
44.2097 35.9192 28.4409
44.253 36.5772 29.268
40.0338 33.4748 27.8268
35.938 31.5033 28.6844
41.8994 33.8884 27.4878
47.9824 38.3524 31.6075
39.6443 33.1387 28.3954
42.8553 33.8199 27.3059
37.8154 31.377 26.8452
46.6672 37.9903 30.0017
42.5288 37.8743 32.7529
39.6044 34.1542 30.0498
47.0043 39.4025 33.5608
42.0726 36.8718 32.1645
40.2645 31.8043 26.5884
39.6203 34.3996 30.9008
42.5426 36.7224 31.2308
38.0563 32.7783 29.2779
41.4179 36.3284 31.6497
36.1605 31.8534 28.6731
41.9774 35.9244 32.0158
39.2883 32.656 28.033
37.8452 34.3404 30.8599
34.6573 31.0604 28.7912
37.4285 32.8359 29.3603
37.9433 34.5783 30.9601
33.684 28.8649 26.6663
34.4869 31.0035 28.4866
39.1485 35.892 34.4091
39.2822 32.6431 27.6296
36.0426 32.6191 30.4648
37.3827 34.4845 32.2093
37.6892 32.7602 29.2064
40.9805 38.3479 36.3267
36.6652 33.7446 30.3329
35.3769 32.2549 31.7259
35.2643 32.1267 30.6812
38.335 37.4549 35.8197
38.6401 35.7377 34.0199
36.4569 34.9103 33.4695
32.4419 30.5806 29.8679
39.6261 38.2558 36.4573
40.9226 39.4321 37.647
34.1935 32.0939 30.2643
32.7243 31.2129 30.1902
29.3715 28.6769 29.3586
35.9098 33.6544 32.4819
35.8211 35.5276 35.9522
38.4484 35.8015 34.6125
34.6713 33.9081 34.2707
39.8517 38.9753 37.8388
38.0426 38.6644 38.1891
34.8371 33.5377 34.5696
34.7878 35.2488 36.0624
37.504 36.974 36.5542
35.5893 35.7192 36.4722
33.8925 32.7343 33.4187
33.3182 33.9797 35.6568
37.5246 36.4844 36.5871
33.9141 33.8374 35.268
37.6754 39.4063 40.4992
32.9471 34.622 37.837
34.4517 33.6009 34.5175
31.6971 33.3219 35.2958
31.9346 32.6507 34.844
33.989 33.3075 34.0811
35.1882 37.4619 38.4567
33.2001 33.7687 35.8388
31.6614 35.5929 38.2943
33.8345 35.1371 37.2676
32.4901 33.8828 36.2278
30.0144 33.1419 37.4403
29.3298 28.7903 31.0964
30.1075 30.8333 32.9439
33.061 34.708 36.6706
31.4426 34.3088 37.0977
28.3903 31.8544 36.1974
33.9845 36.6477 39.3827
27.6796 31.493 36.3481
33.5192 36.6873 41.5928
30.9859 31.1568 33.7083
32.3412 34.9253 37.5764
32.4423 36.2027 41.1416
34.1498 36.6868 39.1881
30.4965 32.8756 36.1805
30.514 35.1087 40.7199
30.6727 33.4305 37.4649
31.0167 34.8247 39.7782
33.0437 36.8225 40.7434
30.8904 34.9247 42.1416
31.3407 34.3472 38.9778
30.0045 33.805 38.5984
32.9038 37.8853 44.5655
28.9947 33.203 39.7936
30.9892 34.37 39.4841
27.5115 31.765 37.7294
26.3091 29.8039 35.1292
28.8963 34.016 40.2121
27.2992 32.6897 40.6218
29.6506 33.6432 39.6626
26.1441 29.0327 35.2743
28.3891 34.6705 42.2479
30.8987 34.7486 40.2
27.9042 31.7855 35.7062
26.108 32.3739 39.8731
26.9394 32.8645 39.9122
25.6051 32.183 40.0311
28.0421 33.1858 39.3768
25.0348 31.0335 39.0497
28.0322 32.7757 39.8714
28.0318 33.3381 40.7057
28.3654 35.4509 44.8361
23.523 27.7888 37.0009
28.5153 32.3544 38.1428
26.4977 32.3451 39.5521
24.8958 30.2611 38.1396
29.1686 37.1922 46.0933
25.6774 32.959 43.1713
27.5754 35.1488 44.8023
24.3282 29.2065 38.5619
24.9588 31.0338 39.1256
26.3721 34.1239 43.6336
22.1198 26.1615 34.3515
25.0051 31.4382 40.4705
27.4518 33.8737 43.1561
26.9126 32.4435 40.5614
22.868 28.5859 38.4187
27.1603 33.9727 41.1153
23.6984 32.2089 44.8142
29.8846 35.5083 42.716
23.4663 31.4586 41.9125
20.6496 27.2904 39.6331
25.8055 33.7714 45.5777
27.8127 34.74 45.5013
26.2399 33.4033 43.8418
22.007 27.4481 37.2437
25.4682 33.9772 44.9276
27.3647 35.148 44.3339
21.6951 29.9266 43.2369
24.4538 29.07 37.8874
23.2036 30.4978 40.3065
25.861 38.7061 54.9366
24.3644 30.3895 41.2591
25.0473 35.0751 48.4116
24.955 32.037 44.0679
26.6316 35.2423 47.5337
25.2955 35.413 47.9223
24.4473 33.0076 47.6538
28.717 37.3847 48.7284
25.4348 36.1223 50.6276
22.7206 30.4256 42.5913
24.4213 33.177 44.5796
22.7464 33.0282 48.4721
22.4408 28.5817 40.4997
24.9734 35.7877 50.3596
27.3457 35.3402 46.1692
22.1575 32.2316 47.4942
23.3423 31.9577 45.6448
24.877 35.6574 49.3281
20.1106 29.8738 45.3962
23.7506 32.6163 46.8747
24.2007 33.3848 45.8547
20.98 30.6784 45.3007
18.6235 26.1305 42.3909
23.828 31.8433 42.9789
18.7226 27.6894 41.117
21.1864 30.5093 45.8775
21.2347 29.9731 45.0313
23.7776 33.3605 48.6005
23.4802 32.4439 46.0197
21.6924 33.1013 51.4216
22.8756 31.1245 44.9782
20.5344 29.368 44.6922
21.8496 31.4426 46.0382
21.0252 30.8622 46.8575
20.462 29.66 44.7812
20.9127 27.33 38.1439
19.78 31.0925 48.1026
21.069 30.7404 46.306
22.1359 33.0006 49.1988
21.5504 31.9745 47.9837
19.8391 30.7563 49.0072
23.6795 36.0028 54.8375
20.0638 29.1013 45.7969
20.8266 31.5385 51.6966
22.4947 32.1593 50.9146
22.6328 34.2888 51.4995
23.3475 33.7469 48.4242
21.5945 35.2931 55.5967
19.7205 28.9677 46.2256
22.4563 34.1137 51.7888
20.7482 31.8475 49.6862
19.7443 29.3585 45.1259
20.7302 32.2537 48.7659
20.4373 30.8705 47.5907
20.2129 30.7751 51.3211
19.8925 30.2554 48.076
18.7833 28.7394 46.2336
18.0803 29.0501 48.282
19.8708 30.3427 48.3533
19.406 30.2623 51.5435
22.6931 33.2735 48.8371
18.4337 30.4748 50.3199
19.5842 29.9122 48.2822
18.3439 29.2168 48.5872
19.127 29.4956 46.0916
18.6742 31.4302 52.7319
20.6714 31.6018 50.5239
17.2449 26.9452 45.1782
19.3973 30.6057 47.8345
17.6642 29.0491 51.1641
20.1763 30.6689 49.2061
17.9522 27.9296 45.213
18.7871 31.3397 51.2399
17.5585 30.3854 54.645
18.7428 27.6578 44.7995
18.0295 29.9342 50.1658
17.6564 29.0463 48.3118
18.1795 29.2989 49.1227
17.0311 27.3621 47.4278
18.6498 30.1743 51.07
19.5407 32.5582 53.566
16.199 25.2056 44.5741
18.3301 28.3229 45.0142
17.8445 30.7203 51.7904
16.5066 26.7313 45.6542
17.7177 29.4328 51.0303
17.6959 29.4752 50.784
16.7389 28.888 54.0519
18.2363 27.687 43.956
17.1911 28.8907 50.7417
17.082 30.725 52.961
17.0907 28.3394 52.3169
17.854 27.2122 46.4173
16.663 27.7384 47.4779
16.3901 29.3653 52.7247
15.7338 26.2755 45.8345
16.5965 27.9664 48.5544
16.7121 28.485 47.4765
15.7756 29.6487 55.3595
18.9752 31.5634 53.4922
16.9592 30.3784 57.8275
21.0358 34.7636 56.7314
15.3299 27.0593 48.6546
16.0339 28.5716 52.1694
15.2393 26.562 46.7447
15.969 29.7665 56.3926
15.456 25.5407 45.7114
15.5611 27.5718 51.3501
14.9318 24.5665 43.8528
15.1149 26.8777 49.1778
15.077 24.9445 43.5942
14.0635 26.0361 48.8663
16.543 30.6312 54.5061
15.252 28.6805 55.9034
15.2383 25.9448 48.1144
16.0642 30.5342 58.216
15.3618 24.3405 45.7277
15.6447 27.5151 49.3466
13.881 23.5889 45.2544
15.3219 27.0674 48.8644
14.586 25.8105 49.5736
16.0567 29.1765 52.3896
14.3918 27.0151 54.7487
14.0179 21.3421 37.9
13.9527 25.802 48.636
15.8053 30.1181 53.255
13.4371 24.947 50.2078
14.9502 28.0566 54.2808
14.8901 25.2357 47.3996
15.1321 29.3146 57.1995
15.3735 28.3522 53.4659
15.2439 27.3774 52.1999
16.542 32.3348 58.8668
14.7552 28.4002 55.8201
13.6988 25.7149 52.8843
16.1505 30.3202 55.7397
13.8517 27.4462 59.0744
15.8449 28.1633 54.7997
17.781 32.2313 57.02
13.1157 24.6998 50.5578
12.7756 21.8456 43.8152
13.5176 25.8967 54.042
14.9352 25.4772 46.653
12.9402 25.4122 50.6851
13.6589 25.1057 50.3791
16.3755 31.617 61.8039
13.6508 22.8864 44.5863
13.5797 26.539 57.1787
15.7527 28.1259 54.7233
16.8914 31.7946 59.8022
15.3768 28.2198 53.2349
12.7344 25.4244 51.888
13.8705 25.8049 48.663
13.8546 27.8648 56.5059
14.0033 27.6705 55.9817
13.9664 28.6053 57.6776
14.1899 28.3988 60.0084
14.4281 28.0955 56.6367
14.6235 29.1183 58.6395
15.246 30.4593 66.3332
16.5995 31.1494 60.5909
13.4772 24.8524 51.3009
13.7896 27.9494 58.4138
13.4364 23.2986 47.3566
13.6242 27.1757 54.6381
13.0074 25.2714 52.7021
13.5926 26.0867 53.493
13.3699 26.4206 52.7091
13.3991 27.6608 57.1653
12.9433 25.2559 53.6474
12.7224 24.0142 49.0321
11.9246 23.8623 50.2225
12.5647 26.7885 59.0445
13.6728 25.8328 53.1848
12.8026 25.7665 51.2085
12.4536 25.9592 58.6092
14.5854 27.4733 52.2092
11.6148 25.3623 58.7066
12.9806 24.8071 51.9751
13.889 27.781 55.1958
13.3753 29.012 63.7696
12.478 23.9033 50.3278
13.2354 26.333 53.9503
12.6473 27.5339 57.3494
12.2106 23.935 54.1565
12.449 26.7397 60.4233
13.4728 25.3264 54.3955
11.8247 24.1862 53.9007
13.1023 26.5378 56.2804
12.995 26.4491 56.7806
12.074 26.4842 59.8958
12.7547 25.4256 55.8441
12.6227 26.95 58.3019
12.7136 25.8833 58.9303
12.3214 24.1977 49.4852
10.983 22.9912 49.708
10.6107 20.5133 48.9709
13.3458 28.4418 57.7016
11.4931 25.4888 56.6289
12.3655 25.1974 52.9523
11.0619 24.7117 57.204
10.9222 23.3131 52.8284
10.8084 25.141 60.1615
12.2365 24.5281 55.7093
12.1729 25.7959 59.2901
13.359 26.9656 50.3183
9.56668 23.009 56.5114
12.0103 25.6155 54.7443
11.1133 24.0851 55.1745
11.876 24.492 55.0742
10.8915 23.8589 55.0015
11.6994 25.8248 56.9579
11.5677 25.0604 58.2604
11.7416 22.9493 49.0063
11.4805 25.1666 56.6961
11.6667 24.0567 50.2275
10.0386 23.7565 53.8381
10.9432 24.0564 57.0108
11.239 24.005 53.1246
10.6517 25.0019 55.0481
10.3146 24.5855 60.7357
10.3035 21.6959 57.6313
11.7341 22.3408 48.2853
9.91195 22.6474 58.2885
12.0716 23.2312 48.0877
9.15894 22.3399 56.9547
11.5373 23.1654 49.0765
9.82391 24.1194 62.7174
13.2203 26.8973 58.5461
10.5242 24.0833 59.2201
11.9619 25.0408 52.415
9.87011 25.6579 62.7176
11.1904 25.6728 62.7617
10.1266 20.298 51.1964
11.6673 25.3914 58.2675
10.6128 23.357 57.7664
11.5981 24.0739 49.7566
9.3044 22.0542 55.1168
10.4881 22.9592 53.4739
10.1892 26.2462 67.8099
12.5157 27.4125 61.9359
10.357 23.5573 59.716
11.6985 25.6839 59.5411
10.4395 22.9255 56.2671
11.2538 24.8655 55.9195
9.6459 22.3976 55.0194
10.1445 23.7379 56.3463
10.3049 25.1383 63.572
10.369 21.021 52.4563
10.5723 22.3667 52.4025
10.22 23.8659 57.555
10.607 21.9335 48.3667
9.56778 25.7084 62.0168
9.41936 21.2264 53.4518
9.26224 20.2996 48.5984
9.99367 24.7964 59.6239
9.90739 23.5045 60.5961
11.1854 24.454 57.6499
9.78306 22.8698 56.3531
9.27467 21.3223 55.3353
10.0707 25.2175 65.2814
11.1626 26.3542 66.0648
10.6708 22.415 54.1302
9.22985 22.7091 56.3461
10.4852 26.1302 65.975
10.9287 24.8555 60.7123
10.3626 26.0384 65.4703
9.88722 21.7137 55.8976
9.31402 21.5338 53.5609
9.38378 24.0232 65.5196
10.6235 22.4821 54.908
9.84358 22.979 53.5565
9.07185 22.2839 60.0135
9.79781 22.1738 56.7636
9.71915 22.7482 56.3449
9.04214 20.9879 53.0332
9.24731 22.2675 58.16
9.7894 21.9178 54.854
9.66151 23.6296 58.4852
9.88559 23.1572 52.302
8.11542 21.4895 59.2085
10.2337 24.1934 55.393
8.9098 23.1745 60.545
8.63447 20.9533 55.3581
8.5996 21.9343 61.732
10.7266 24.6028 56.8523
8.53419 23.5988 65.1993
9.52047 22.229 58.0452
8.91879 21.0487 54.1994
9.18479 23.4127 59.7406
8.71961 20.5166 53.6182
9.63783 24.7954 64.5042
9.05894 21.7323 62.1846
10.6555 25.5159 56.6486
7.34467 18.0662 52.899
8.75233 21.1925 55.2876
9.31923 21.7741 58.8196
10.0405 24.3178 56.4461
7.89271 20.0434 54.4192
8.54355 21.4576 54.1251
8.54857 23.2444 65.8965
9.00335 20.4545 52.1628
9.12951 23.0579 57.8368
8.02702 21.0868 63.722
9.23854 21.0289 53.871
7.85692 20.8374 56.0724
8.06764 22.6994 59.2509
8.44612 20.9473 55.7184
8.53949 19.5467 56.73
8.91899 23.2134 58.6523
8.29972 21.5291 58.6857
8.17685 18.7274 51.5811
7.97669 20.4663 55.3389
8.00213 20.1229 54.013
7.82668 19.9289 57.788
9.66384 25.8101 62.2343
7.13929 18.0696 51.978
7.67815 19.0979 48.5554
7.22758 18.7074 52.2121
8.51276 22.2351 58.5507
8.12811 19.7868 48.6947
7.37566 20.7064 60.9233
8.43987 20.5772 53.1445
7.26885 19.3435 60.1288
9.15654 21.3488 52.0746
7.32781 19.974 63.4777
9.36858 24.3414 60.0278
7.67671 20.5686 59.239
8.70209 21.6044 55.6573
7.73612 21.2882 62.403
8.48588 21.4523 55.9736
7.76597 21.6314 60.3667
7.92249 19.99 52.1561
7.31929 21.8742 65.1302
8.4241 20.2278 54.5095
7.55891 18.9936 55.9655
8.46215 21.3511 57.0775
7.4746 19.6209 60.1772
8.63021 20.9988 52.4918
7.15182 20.3295 58.6773
7.95174 20.4574 56.9923
7.8413 20.5779 58.7687
7.66275 20.7095 61.161
7.98496 20.6872 57.7616
7.52772 19.8823 57.2512
7.87095 19.8865 55.8023
7.57391 18.6461 52.3571
7.41467 20.4803 57.6991
7.84333 20.1151 54.6346
7.12327 18.5968 54.3983
7.63624 19.5227 52.956
6.9638 19.4548 54.2404
7.05608 19.2774 53.5415
6.43467 15.1316 49.7158
7.43193 21.1518 59.6042
7.56492 18.6597 53.2964
6.56374 18.6608 55.5433
7.67657 18.8969 49.4502
6.05345 17.7675 51.6503
6.7521 19.5824 59.4239
7.40453 18.5161 52.0231
7.03167 18.0646 52.424
6.99917 17.2963 46.9279
6.71434 19.7185 59.5399
7.4588 17.7434 55.4425
7.75765 20.2467 54.358
6.90261 20.5737 58.9698
7.1042 19.3392 57.7486
6.52958 16.762 51.0625
7.10205 17.507 46.6668
6.87019 20.314 56.1731
6.28479 18.6603 58.6074
7.30002 19.2982 56.4785
7.0697 18.627 59.8577
7.45101 22.4006 61.477
7.68024 21.5252 55.2294
5.89617 16.939 53.4258
6.73567 17.6402 54.24
7.32965 20.871 57.7126
6.44438 18.507 55.3271
6.91836 19.6878 56.2113
6.36719 18.5112 59.8632
7.97705 22.4013 62.0777
7.31458 20.088 58.0808
6.4837 15.8806 48.7582
6.88142 21.0645 59.9229
6.79995 19.4907 62.2977
7.00053 18.4191 58.2194
7.14531 18.5779 62.8175
8.9295 23.1783 57.7532
6.46086 16.9808 45.9929
5.81152 19.6816 62.669
7.0664 18.0536 54.7739
6.74859 18.4382 52.3976
6.02933 18.1113 53.2039
6.43339 18.4812 54.5514
6.48542 20.9833 63.6621
6.94563 20.9701 68.279
7.59962 18.8398 54.4239
6.54833 18.8303 55.6919
6.8929 18.3213 64.8697
7.86635 20.2802 61.428
7.37031 19.4951 54.5372
6.34658 17.7121 58.0524
7.48624 19.3926 58.0088
7.12585 20.4119 58.6796
6.22346 16.7182 51.8458
6.24809 17.4914 58.1531
7.36942 19.2363 54.4333
6.49779 19.8114 59.6658
6.58696 18.7607 57.0807
6.73506 16.7951 48.4456
5.81063 17.3071 54.0748
6.4439 19.0925 60.8074
6.87167 17.7481 54.0957
6.40556 18.0228 56.4669
5.79345 15.6656 54.3416
7.22035 20.8634 57.7546
6.1697 19.133 59.5053
6.38504 18.087 54.5414
6.11991 16.4912 55.7349
6.59325 18.011 58.2256
6.43491 17.7621 49.4636
5.64793 17.0119 56.4828
6.04339 18.0331 55.656
6.94843 19.6092 59.8426
6.43014 18.1623 55.0527
5.90026 17.1317 55.2768
6.69108 20.0254 57.3994
5.64403 17.0397 57.2491
6.34955 15.4131 45.7444
5.60509 16.6009 50.91
5.97563 17.9043 57.8965
6.41063 18.4602 56.9495
5.75053 15.3076 50.6982
5.65989 18.5264 56.7381
5.85157 16.5415 56.9612
6.80824 19.469 55.8623
5.84469 17.9881 60.7903
6.62767 18.4768 57.0388
6.23352 19.2404 63.4615
7.02357 18.134 57.9354
6.48667 18.2251 55.5063
6.50404 17.2771 50.0334
5.58162 18.0956 58.2449
6.07254 17.1927 54.2684
6.05308 18.1799 59.638
5.7657 16.661 48.6037
5.35957 15.9899 55.6001
6.19358 19.2744 63.3499
6.47572 18.1156 61.0524
6.43399 19.9783 61.3946
6.32741 19.5859 63.537
6.75862 16.856 51.3748
5.26957 16.1652 49.8899
4.90323 14.5678 49.6347
5.8843 19.044 58.0762
5.30364 17.2278 60.9466
6.36681 18.8253 61.4143
6.02995 17.3662 55.6399
5.45629 16.777 57.4379
6.05842 17.5188 54.4492
5.48341 16.5889 57.9884
6.14788 17.3759 55.5419
5.54009 17.4025 58.4805
5.75888 15.0375 52.4657
6.13429 19.6916 58.7956
5.90901 15.9763 49.3172
5.23908 16.5718 58.9134
5.89355 17.2387 60.1681
6.5312 21.769 68.1953
6.13493 16.9018 59.3424
6.71509 19.7687 54.4738
5.1581 15.2093 54.4572
5.99419 16.8171 52.8148
5.36643 16.8326 55.628
5.86925 17.7541 56.5825
5.36199 15.1654 52.3152
5.72746 15.9005 49.6259
5.08349 16.2658 52.9258
5.37391 15.9221 55.815
5.7581 17.4474 60.1393
5.82148 18.2605 59.9767
5.75005 17.8688 55.213
5.49661 16.978 67.8099
7.38371 18.9277 53.2219
4.92387 15.2544 47.8678
5.2634 16.8786 62.7505
6.07499 19.0066 53.2761
4.9536 15.4512 54.6812
5.27486 16.9669 63.0565
6.01141 16.9426 50.6451
5.21297 17.0656 58.4492
5.79692 15.9202 54.2789
5.56705 16.6958 54.5686
5.27671 16.0105 53.5281
5.10154 16.0978 50.5792
4.9019 15.5005 55.8707
5.27784 14.8728 45.9478
4.55298 14.6809 52.6339
5.35992 16.6502 59.1678
5.60644 16.7311 51.8604
4.87206 15.288 57.4817
5.73933 17.254 58.576
5.58607 15.9569 51.405
5.25641 17.5998 57.8375
5.37033 16.55 52.1842
4.81154 16.9708 61.8977
5.89491 16.7102 61.4131
5.95064 16.8992 54.9125
5.41696 16.4454 53.9047
4.97972 17.1656 56.4173
5.12988 14.8931 48.9779
4.96081 15.1618 53.6829
5.32074 16.9721 59.3055
5.28835 16.3725 58.5671
5.76347 18.4262 61.4251
5.9226 18.513 60.088
5.52069 17.3116 56.3475
4.94384 15.6958 58.5587
5.19676 15.5777 52.5731
5.03577 15.1104 55.3891
5.52367 16.4181 52.9203
4.60251 14.607 56.2474
5.43025 16.0484 54.0765
5.14116 16.6213 54.4878
4.99445 16.4714 56.1492
5.33365 16.6668 61.6526
5.5299 16.9694 52.8653
4.48799 14.6076 53.4485
5.20747 15.5425 51.2167
4.61954 14.9205 52.4727
4.8638 16.4418 56.859
5.2475 14.0374 47.3765
4.34297 16.2241 58.5204
5.0622 16.5104 61.0103
5.83231 16.2545 55.5149
5.07531 17.3162 53.6236
4.31516 13.7363 53.4962
4.81294 13.0443 49.8437
5.00373 14.1919 50.9317
5.07823 15.2086 47.0085
4.4244 15.575 53.839
4.3143 14.202 51.2814
4.7711 15.1573 57.2852
5.37024 13.9453 49.8425
5.00416 17.2267 55.1453
4.94556 15.9306 58.0672
5.0691 15.0448 55.1357
5.0786 15.3167 53.9529
5.3328 16.6978 55.3936
4.78727 14.4032 48.3188
4.69772 15.0871 53.0689
4.6145 14.4905 52.9578
4.7386 15.1964 55.5658
5.27329 16.5339 52.7148
4.36861 14.5834 53.216
4.67905 14.3179 53.4894
4.76823 15.6102 56.9762
5.17014 17.1763 57.3951
5.17771 16.0186 54.6191
4.61728 13.5422 53.785
5.12023 16.7616 50.0063
4.46524 14.5633 52.725
4.55673 14.623 55.2847
4.87369 15.5936 52.4322
4.38388 15.1442 58.6542
5.12455 16.5507 62.1925
5.78427 16.1265 52.0242
4.59573 14.5819 53.7685
4.60305 13.7964 49.121
4.3699 14.0674 49.8356
4.3509 14.0945 49.4596
4.38213 14.6157 52.1786
4.51367 15.519 55.0142
4.79273 14.1774 50.5086
4.5955 13.3184 52.2536
4.6772 16.7725 53.4568
4.5933 15.2647 51.9463
4.40779 13.8873 57.6515
4.69435 15.291 57.7592
4.91824 18.0855 59.5349
5.13299 16.1561 59.2183
4.85267 14.2689 54.2589
4.75698 15.2456 55.5721
4.75801 15.7911 54.0001
4.52958 15.9467 52.9883
4.50934 15.1472 56.4392
5.16106 15.8313 61.1378
5.19358 16.3223 58.6517
4.90905 16.7426 60.0765
5.05197 15.158 54.4276
4.67459 14.4165 53.8199
4.6802 16.3532 59.3987
5.24275 15.6959 54.1836
4.62948 15.5597 51.6376
4.48106 16.9671 63.0513
4.81933 12.2181 51.1586
4.77811 14.9377 52.2394
4.24752 14.4758 49.9344
4.4567 14.9797 56.7991
4.73857 16.6149 61.0454
4.71896 14.4065 52.6805
4.74657 14.5669 52.0026
4.42691 14.2819 54.1311
4.50099 14.3446 48.8188
3.9116 13.5404 50.7738
4.14096 15.1102 58.4996
4.84477 14.5599 50.6324
4.27224 14.289 48.9728
4.10629 12.5082 46.5711
4.02327 12.6674 48.7616
3.80129 12.5496 45.4414
3.95483 13.8735 48.4631
3.95618 13.3398 53.5818
4.42778 14.218 51.9003
4.32823 13.8999 56.4127
4.66453 13.3377 48.4322
4.28474 15.0732 53.4439
4.6058 14.6782 54.7687
4.66505 13.6607 45.2897
3.97318 14.1001 56.1979
4.64895 14.9156 49.2461
4.28925 14.1832 61.8872
4.98373 16.431 52.3217
4.14608 12.6321 49.3828
4.08919 14.4801 54.5349
4.69844 14.4369 49.433
4.07037 13.2357 48.9172
4.10784 13.0833 48.9974
4.03639 14.329 53.2174
4.48331 15.1663 54.7205
4.32254 14.6445 48.4365
3.75045 13.1954 55.8976
4.51564 15.0018 48.8004
4.07055 15.1057 60.625
4.96191 15.7622 57.3974
4.44432 14.3755 56.2375
4.68317 14.9937 54.3421
4.05943 12.6489 50.4301
4.2923 15.7259 56.7022
4.57748 14.5249 54.4077
4.51304 14.6473 50.4625
3.96182 14.6134 56.9347
4.43715 13.0648 52.1866
4.23927 14.6436 51.2848
3.85061 12.5875 48.4385
4.05953 13.6089 54.1084
4.67439 13.9895 49.2718
3.78324 12.6394 53.1508
4.35892 13.3578 45.8462
3.7799 11.8983 51.1159
4.07986 13.3126 45.229
3.73372 13.7396 48.5199
4.01374 13.9202 56.2291
4.58702 14.826 54.9038
4.40141 16.4451 58.8121
4.48126 14.4752 54.249
4.23429 12.6408 46.9793
4.1322 13.3176 48.7496
3.82815 13.3975 52.5818
4.21235 13.7102 50.7892
3.85225 13.0808 53.6941
4.43587 13.352 55.4543
4.60963 14.9645 49.2908
3.8714 12.9597 49.3052
3.92321 13.9423 52.2194
3.86901 12.8018 51.6059
4.29466 14.3871 55.5085
4.44355 13.0576 52.0576
4.35474 14.7272 52.9331
4.01875 13.916 51.1681
4.04767 14.4744 53.4524
4.56222 14.7889 59.4186
4.8206 13.5247 43.0867
3.36142 13.0413 52.3655
4.37443 13.4355 61.4162
4.99921 15.3224 49.0619
3.85082 13.6244 48.815
3.78852 13.0658 45.0873
3.68165 12.7143 50.7543
3.90645 13.7312 50.6688
4.16901 13.4622 52.3639
3.89476 13.0706 45.7937
3.83333 13.5444 58.31
4.61534 13.1132 47.8561
3.86243 12.4571 51.7822
4.09402 12.2158 42.9357
3.46571 12.9919 55.4727
4.36812 13.3763 49.4814
3.61159 12.5089 51.4811
3.81335 11.8439 48.9557
4.26271 15.1419 56.8579
4.4115 14.0754 52.2971
4.16059 12.4288 47.2573
3.89937 14.446 54.1469
3.97286 12.8016 47.1263
3.49577 12.09 52.5336
4.10617 13.1024 50.097
4.07415 14.9672 50.5053
3.87029 13.6498 56.8074
4.48957 14.3489 47.4442
3.71802 13.8113 59.1192
4.37632 13.0331 49.8444
3.85326 13.5338 50.8148
4.05241 11.9876 47.5288
4.06726 12.3333 52.4301
4.37457 14.6362 45.1249
3.3482 12.2685 51.3683
3.86252 14.9013 57.2466
4.13339 10.9095 47.4209
3.864 13.691 55.5184
4.40771 14.7009 48.3241
3.43802 12.2447 49.8373
3.74773 13.0549 52.7333
4.15958 13.737 49.2259
3.67268 12.9983 48.9039
3.63166 13.2434 55.5159
4.33107 13.2404 51.6866
3.91172 12.4885 45.716
3.58297 11.7353 42.3882
3.60537 12.8367 51.743
3.79476 13.499 44.3597
3.31274 10.8869 44.0867
3.43417 11.3401 48.9675
4.01164 14.0043 48.5828
3.68055 12.9735 49.1613
3.65922 13.2395 56.071
4.29914 14.4765 59.4066
4.1941 12.8619 49.7167
3.86899 13.2003 50.4702
3.78212 12.5616 45.2825
3.64393 13.0171 48.1674
3.55368 11.2592 51.1788
3.91547 13.7348 54.045
3.79539 12.9543 48.1921
3.70226 13.6705 50.4455
3.74343 13.0587 53.7942
3.8655 12.116 44.3564
3.2527 12.371 52.0374
4.00171 14.1726 52.8236
3.85576 13.0139 55.0519
3.83964 13.7244 50.4845
3.84049 13.9259 54.2798
4.04816 12.1976 48.4177
3.6898 13.5651 49.6957
3.85127 13.2897 56.196
4.36035 14.0083 48.7452
3.46425 11.9895 49.9877
3.73958 13.0215 49.3636
3.65852 12.512 50.3403
3.76368 12.1696 46.0642
3.68363 12.7986 50.6907
3.90813 13.4544 53.9979
3.80208 12.7628 49.5394
3.79364 13.7659 46.5002
3.42322 10.7983 50.7303
3.73552 11.8821 46.1103
3.53166 12.8141 44.1751
3.19937 11.628 50.8981
3.87328 11.6977 50.8488
3.71623 13.7097 48.6415
3.61667 11.6998 50.8233
3.81647 13.4978 47.1174
3.62306 12.9746 48.6324
3.37064 11.8486 54.9901
3.77236 14.4728 50.3364
3.7402 13.0649 54.9086
3.93779 12.003 48.1188
3.8193 14.243 51.6255
3.7415 13.0689 53.9865
4.2809 13.3199 48.9666
3.53791 12.7764 56.3024
4.12087 13.4456 52.2141
3.91058 12.9521 47.0856
3.58863 12.169 49.3804
3.69174 11.6755 46.1098
3.58724 13.1877 45.3591
3.35955 11.7664 50.0114
3.72845 13.7101 45.1552
3.4569 11.6959 48.6103
3.54439 11.9599 48.7123
3.76162 12.6787 51.1546
3.80173 13.794 55.3931
3.96522 12.016 48.1481
3.6806 13.4072 46.3559
3.5058 12.2084 49.7324
3.62045 13.2862 53.4928
4.05551 13.2225 53.5325
4.13038 12.7742 47.3586
3.7208 11.8368 48.2563
3.58036 12.8813 51.1617
4.06982 12.7185 51.9619
3.95971 12.8325 46.8099
3.42445 12.3606 50.2617
3.72958 12.8879 49.1423
3.77957 13.5958 56.898
4.09841 12.0997 42.2852
3.31055 12.147 48.519
3.38271 11.3158 45.5672
3.35303 11.4403 52.3179
3.99941 12.5405 49.7622
3.67162 14.2168 52.3173
3.74822 12.2288 45.459
3.35357 11.3492 49.0894
3.9235 13.5913 53.548
3.84545 12.345 47.0614
3.45839 11.2816 50.0105
3.66074 13.2792 48.361
3.5455 10.6079 42.3102
3.28369 12.989 55.197
3.91219 12.2707 48.1389
3.87997 12.4533 42.7836
3.18211 11.2319 49.3
3.57162 13.1229 45.7792
3.41122 12.1989 49.0037
3.58507 12.6245 51.0923
3.57497 13.038 51.0169
3.48171 13.2694 47.6071
3.58118 11.5347 44.9705
3.14636 13.3516 51.659
3.96703 11.0865 44.1052
3.16283 14.2426 57.6915
3.96677 13.3575 53.0655
3.58159 11.4184 45.7969
3.27591 13.7603 51.6586
3.68969 12.2469 49.3488
3.58296 12.4239 52.7469
3.88349 12.7451 52.4152
3.80087 13.0716 54.2444
3.94708 14.0434 56.6045
4.07793 13.889 50.0989
3.64924 11.8422 44.8066
3.37406 12.1243 54.5667
3.94912 12.4073 46.4005
3.42555 12.6308 50.627
3.78559 12.9975 51.6883
3.76111 13.8274 50.3488
3.74293 11.2104 52.363
3.81282 12.9116 45.6344
3.41928 12.8519 51.3606
3.8664 12.2107 50.7969
4.0816 11.9352 46.0616
3.37769 12.7122 51.31
3.81588 12.0066 46.8356
3.52734 13.2346 54.608
4.08348 12.764 51.192
3.97878 12.3572 53.5959
3.84433 14.5746 47.3321
3.2688 12.4988 53.5901
3.84117 13.0674 59.9012
4.42067 12.9877 52.3139
3.78407 13.2847 48.8632
3.72491 12.5275 46.3771
3.76359 12.8867 53.1323
3.84202 14.0851 55.6717
3.90479 13.7392 54.756
3.70039 14.9638 53.0545
3.83945 11.9764 49.2034
3.65295 12.2069 50.8993
3.62906 11.9739 45.3907
3.39524 12.1637 55.4429
4.21839 12.5856 53.1202
3.88608 15.3509 52.3278
3.8382 13.0009 53.6575
3.79571 13.4069 50.6114
3.61751 13.0614 50.9813
3.61099 11.9028 49.8849
3.67209 15.4728 69.4241
4.71067 0 0