# pn-170911/RbIIR-54-WTZR-1280-1959.psd
# Power spectrum* (dif=0,1,2) (really just |FT|^2)
# NOTE: only the first half! (symmetric)
# weeks: 1280-1959
# 12 clock-days, 7 excluded
# PSD: 1441
819.951 0.154285 0.0511923
45141.2 0.464273 0.0547602
207276 3.81456 0.0878569
8278.42 0.441132 0.0419471
28969.7 2.09643 0.0789697
3603.58 0.456938 0.0615537
2526.95 0.434408 0.107341
2801.22 0.892064 0.0565193
1762.86 0.508197 0.0834024
975.602 0.443895 0.0663208
1128.49 0.461487 0.0755272
1336.86 0.49569 0.0499702
1198.21 0.5928 0.0714967
590.67 0.348484 0.0726906
1145.12 1.00947 0.0662032
764.562 0.646374 0.0906916
919.628 1.00316 0.0797017
607.264 0.542424 0.0988405
497.568 0.782094 0.0598302
393.125 0.475663 0.0912238
610.445 0.73839 0.0611036
681.196 1.1366 0.0849758
500.523 0.737177 0.0446675
446.396 0.836395 0.095038
429.797 1.30898 0.0675918
569.948 1.0952 0.0972079
252.554 0.581199 0.0665517
418.748 1.30264 0.0842715
289.928 1.07665 0.0616779
354.861 1.37435 0.0798413
259.05 0.955314 0.0607219
537.435 2.17663 0.124611
486.629 2.2724 0.0847592
234.64 1.28473 0.0904439
354.956 2.0563 0.0929011
525.315 3.03142 0.133597
451.849 2.40127 0.084986
373.816 1.78954 0.102132
310.952 1.99441 0.100651
487.532 3.15462 0.113116
562.804 4.67069 0.132771
661.173 4.70158 0.111525
514.395 3.89287 0.146134
281.089 2.30837 0.0809975
196.818 1.7734 0.109441
512.334 4.9699 0.104037
476.153 4.67813 0.103877
375.484 4.52554 0.0671964
160.224 2.04112 0.124571
310.418 3.75826 0.0742232
474.46 5.63418 0.113653
362.168 4.38174 0.123884
466.56 5.52213 0.173103
336.574 4.66887 0.104223
285.625 4.33726 0.167226
290.539 4.30601 0.0824029
360.975 4.52063 0.141915
267.372 4.2424 0.0499526
354.064 5.42387 0.20985
464.178 7.32428 0.149261
185.474 2.75951 0.165922
207.321 3.81061 0.121751
190.887 3.48999 0.147664
280.853 5.5988 0.148403
380.824 7.02734 0.185978
266.158 5.56877 0.189154
298.179 6.859 0.21353
225.297 4.43911 0.18868
405.428 8.32407 0.360889
192.705 4.69677 0.167524
300.101 6.35835 0.225477
362.452 7.8836 0.343247
193.567 4.36284 0.159952
299.208 8.15005 0.381982
463.863 11.6098 0.409248
289.685 7.95446 0.223999
432.038 11.9177 0.35161
242.558 6.26932 0.274412
131.33 4.07728 0.16304
168.26 5.30308 0.314205
265.282 7.9812 0.361044
282.008 8.8157 0.419602
234.225 6.986 0.288944
492.017 15.8135 0.509408
211.553 7.49782 0.295868
237.36 8.06867 0.353458
264.479 8.78018 0.413748
343.221 12.0986 0.490134
223.987 8.34586 0.326469
354.149 12.6386 0.785351
282.338 10.8461 0.39837
190.483 7.84492 0.450542
204.81 7.85347 0.447681
208.017 9.70308 0.504276
175.941 8.14821 0.458182
306.61 13.9623 0.463394
439.483 18.2994 1.05449
226.132 8.93276 0.378023
148.941 5.85375 0.314695
192.466 9.25627 0.469335
137.75 6.83589 0.34771
256.695 12.343 0.55919
166.511 8.99364 0.508476
191.629 9.31482 0.583155
200.924 10.0084 0.61508
289.374 14.7573 0.788537
164.131 8.34808 0.551994
211.591 10.8801 0.52383
319.237 18.3516 1.11871
179.302 9.92147 0.7176
122.534 6.99097 0.48076
257.045 14.0747 0.834816
235.417 13.4254 0.930268
322.409 18.6468 1.241
144.369 8.71299 0.669043
231.786 14.0527 0.749015
221.333 14.5387 0.980064
266.7 17.2737 1.09259
113.696 7.55957 0.444092
125.357 8.41903 0.632392
246.6 17.0153 1.39974
227.444 15.9892 1.287
257.144 18.5765 1.23366
210.18 16.4946 1.18897
179.079 13.2662 0.951909
213.657 16.6977 1.27023
336.981 24.2936 1.92111
241.435 18.4857 1.6411
112.876 8.60233 0.648999
132.413 10.5916 0.876372
225.514 17.08 1.28153
191.723 15.8217 1.18716
187.638 15.8003 1.11861
200.921 16.4837 1.398
223.28 20.9814 1.96481
283.215 25.6591 2.0608
284.643 23.6731 1.82361
154.687 14.6017 1.52858
248.857 21.4332 1.96852
203.078 19.1419 1.52591
117.387 10.7593 1.06937
135.178 12.9466 1.20259
196.045 17.7988 1.77802
205.319 20.0986 2.04795
259.264 25.5887 2.61562
163.777 16.863 1.76502
199.639 20.8032 2.15195
148.898 17.3059 2.11579
188.956 18.0615 1.66631
209.858 20.1222 1.89272
166.175 18.0008 1.89358
166.968 17.6932 2.14244
173.282 18.5948 2.35653
138.288 14.0303 1.52043
261.8 29.1447 3.38858
95.4764 9.69443 1.05593
168.815 19.168 2.19079
107.24 12.443 1.69322
121.871 14.2819 1.83394
161.061 20.1081 2.13849
224.174 26.8444 2.71918
122.186 14.5638 1.68658
148.446 16.6091 1.94794
129.274 16.6449 2.07306
112.957 13.5379 1.58696
109.397 15.2111 1.72309
147.84 21.0995 2.93409
106.072 11.8691 1.44682
115.491 16.1403 2.34868
279.082 36.9847 4.75306
110.218 15.4552 2.41007
120.991 16.1654 2.07339
166.226 22.2077 2.75498
172.248 24.0287 3.32147
141.999 19.1534 2.8024
207.543 29.5268 3.98036
158.893 24.6809 3.98364
200.014 30.1185 4.16721
100.225 16.7635 2.90067
113.617 15.8675 2.41846
137.817 22.9332 3.69269
89.8434 11.728 1.66192
82.1135 12.2282 1.97498
136.508 19.5454 2.99928
87.7664 14.2678 2.3909
158.463 25.6741 3.97567
163.379 26.7756 4.22462
190.5 32.0005 5.3111
93.977 14.6611 2.13362
104.802 19.1463 3.15209
142.412 24.0188 4.40639
143.128 23.7831 4.43616
240.171 39.9774 6.78272
126.699 20.5241 3.4563
145.084 25.8121 4.77539
117.133 22.9131 4.35599
93.5881 15.2416 2.33576
104.795 20.8598 4.26312
87.2975 15.6396 2.98368
152.188 29.5147 5.16355
139.026 25.8612 4.88274
90.4723 16.4503 3.15023
106.643 20.0651 3.39101
103.245 20.3301 4.46385
67.8872 10.4184 1.97796
116.21 23.2789 5.14108
78.6709 14.7495 3.07628
79.071 16.7271 3.41763
128.494 26.4871 5.4729
125.321 26.3826 5.7318
138.764 28.7123 6.28116
102.945 21.3066 4.18183
123.641 25.6895 4.91624
92.5427 21.0274 4.59083
90.9517 20.324 4.61905
131.162 30.0326 6.752
111.297 22.2299 4.8113
106.884 23.9352 5.59202
163.581 36.5959 8.95914
119.251 25.7516 5.82788
57.02 12.1746 2.48055
88.9936 19.646 4.32376
78.6752 17.3012 3.78674
94.7218 24.5614 5.66926
113.67 25.4205 5.5427
95.5765 21.3928 4.65395
72.6932 16.2658 4.44434
181.63 42.1224 9.47829
98.5343 24.2767 5.99481
161.823 41.6848 10.6385
176.724 36.9621 8.40816
92.7502 25.7704 6.56226
131.342 34.0524 8.72296
126.103 32.2559 8.23245
115.081 29.6342 7.37499
124.368 33.5691 8.72793
71.0583 20.422 5.9661
55.3418 12.5207 2.64336
58.8178 17.9372 5.35339
96.8548 23.7151 5.76281
94.9774 24.9067 6.8278
64.6578 18.9541 5.64883
112.933 30.3187 8.19262
114.819 30.2695 8.45073
116.681 32.0814 8.67162
89.594 25.3568 7.30944
72.5768 20.5314 5.4149
61.3669 14.7066 3.92633
102.569 29.5977 8.25361
111.743 32.0169 8.75063
91.7742 27.4175 7.98976
72.282 19.6459 6.09966
59.1485 20.2058 7.19898
75.9007 19.243 5.03362
68.0098 19.717 6.3381
68.8511 22.3731 7.38962
104.409 30.2016 9.50115
93.7111 25.3317 6.86296
94.1251 27.9464 7.93493
129.32 40.5045 12.4183
94.3418 27.9433 8.59778
80.2355 24.5899 7.32271
123.945 39.761 12.2255
93.1335 30.1758 9.69684
49.2639 17.2386 6.56643
105.81 33.7139 9.79222
38.1847 14.8938 5.78509
87.0635 29.9775 10.162
83.7098 26.7604 8.56291
90.5398 36.2789 13.6389
70.9076 21.2679 7.26608
112.737 33.0654 9.60709
69.9965 26.0472 8.75756
78.28 27.3593 9.94907
78.2914 28.5229 10.2909
114.883 37.6594 11.8867
89.8816 33.1381 10.9959
60.1038 23.4847 8.9753
79.3622 26.1413 8.36683
76.3981 27.5484 9.33378
73.8983 27.3629 9.14054
77.9484 31.4092 12.1096
63.3488 21.6687 8.30037
63.6713 24.7156 8.95286
50.7771 17.3251 6.66988
68.7723 24.0479 9.03243
52.6001 18.6628 7.06054
63.2332 22.7713 8.41462
93.1185 34.1978 12.7819
90.5067 41.3866 18.7131
70.5519 26.6208 9.58661
65.2149 25.7824 11.2954
83.3843 33.5184 13.8121
95.2966 34.2364 11.8273
43.8232 17.2082 6.88065
66.8293 26.4461 9.43468
43.3814 17.5897 7.25439
54.0845 21.1567 9.43585
64.9601 24.1041 9.21729
48.1091 20.0499 8.24245
68.3386 28.8445 10.1531
51.932 22.6117 10.0476
61.7372 26.8912 12.0304
58.3799 24.488 10.1974
56.9702 24.9732 10.5753
60.5106 27.3244 11.8866
49.8589 23.8875 11.2813
108.202 42.4185 15.5019
48.627 22.6435 9.01502
73.8496 35.4137 16.4158
60.7084 25.5056 10.2813
53.4896 27.8805 14.0481
66.4332 29.8646 14.0487
53.6512 22.7176 10.4576
76.835 30.8166 12.1611
61.6523 30.8872 14.2371
33.7699 16.25 8.84099
86.3583 34.5616 13.7039
69.1704 33.262 16.3258
88.2355 42.7757 20.019
49.0086 24.3669 12.0688
53.9609 24.7712 11.4882
55.3563 25.4475 11.4245
63.8689 35.8306 18.9078
64.8439 29.9077 14.7832
76.2383 37.4066 17.4212
47.2245 21.6263 10.0912
60.9552 25.3631 10.7504
56.5062 28.1251 14.2963
88.1098 43.8995 20.0567
34.6016 18.7409 11.345
73.2374 33.535 15.9227
57.7624 26.6012 12.5017
66.2691 35.4101 18.8544
46.5643 24.4331 12.3377
37.9852 15.9268 7.36642
69.9833 35.0375 16.5897
47.6063 24.6186 12.3068
26.5236 12.5439 6.662
73.7871 40.6486 22.2567
95.2094 47.3176 22.1473
88.4093 49.9131 26.1978
42.6029 20.4077 11.9291
77.3494 42.4004 23.5605
64.8517 32.9084 16.6367
52.3468 28.4467 15.0784
28.7064 21.0566 14.4434
52.6269 23.3267 11.877
44.6864 22.9263 11.8721
51.5791 27.2012 14.0145
52.7261 29.8095 16.9695
38.7001 20.8548 11.8061
84.8628 51.0611 27.6677
41.9529 25.3731 15.6893
34.3592 21.0537 13.2317
56.3231 30.0984 16.532
71.0973 43.053 23.7776
35.4508 21.3386 13.4154
38.3396 18.6512 8.89347
25.7174 16.9981 11.7468
33.93 21.7496 12.7213
72.8472 45.2844 26.0693
45.3704 24.9436 14.6726
46.2451 23.753 12.7855
40.2101 23.7951 14.0987
48.9571 28.1952 16.2006
46.4596 29.0233 17.3103
60.0763 40.0674 26.2971
32.8547 23.3276 17.5121
42.1913 24.3299 16.5949
75.763 43.4638 25.6246
91.6382 54.2121 30.5647
34.1242 19.9449 12.6056
44.3926 29.3118 20.387
57.4512 29.7842 16.6058
60.5486 39.9252 27.3777
40.3887 24.5175 14.9745
34.9727 21.5796 13.8178
51.7382 31.2203 18.2694
40.9775 33.737 25.2741
60.552 36.7286 21.7466
78.3499 50.067 31.5382
42.9903 29.7729 20.7375
36.9678 23.8449 16.0101
34.9252 23.4581 15.5236
55.7436 36.5846 23.9297
39.9855 29.4581 21.0682
57.6572 39.4564 26.7708
53.051 33.3212 21.3954
52.3109 31.1298 19.7478
39.283 27.8526 20.2396
41.544 30.3376 22.62
38.0097 23.3097 16.3823
38.2393 24.7248 14.8307
69.1297 53.3974 42.9066
70.3882 43.9173 29.002
29.3684 18.0526 11.006
44.8733 33.7694 23.151
37.837 30.1144 23.2053
40.8309 27.4911 21.2394
38.9892 25.6235 19.7627
55.5607 36.7575 23.3148
37.2535 25.7526 19.079
59.5377 45.0991 32.6079
35.6386 22.0364 13.3889
30.7918 29.2449 25.1131
24.2095 15.8349 13.6631
43.0962 29.2034 20.3129
45.832 36.3267 28.0182
45.5209 34.2823 25.501
35.358 23.644 18.6347
32.4055 25.915 23.0947
39.9902 25.1656 19.185
52.8786 36.8435 23.0454
50.7115 40.2748 27.9981
15.5325 10.7816 9.33318
42.6278 31.6287 23.446
29.5214 22.2871 17.6366
40.2386 29.8831 22.5619
62.6175 51.6657 37.3926
30.9542 27.5022 25.2957
59.8077 41.5965 30.7396
45.202 35.6842 27.2885
32.3247 24.5216 19.585
51.2589 43.8934 36.6829
20.9246 17.3084 18.9632
55.7228 40.5054 27.2523
38.5689 37.571 35.3672
43.7322 25.2929 17.2612
31.5291 25.9827 21.1568
62.413 50.6959 38.9239
20.9474 19.0899 22.1551
41.8477 27.7265 19.6174
31.9977 26.0421 22.5451
39.006 31.0969 23.6071
45.3956 35.879 25.296
21.0294 20.3297 19.2145
25.558 19.7484 15.9468
41.4002 36.1474 31.2491
32.6394 25.2391 21.1162
38.8412 33.6899 28.1956
24.8642 20.8578 18.4797
35.6277 27.2891 19.8239
41.6714 40.4475 40.3204
38.315 27.8995 21.983
12.7517 10.8899 11.7275
40.5216 33.2241 27.3839
23.1473 20.7012 19.6913
25.3515 21.0979 20.6843
34.4982 29.5176 24.5714
21.8137 17.829 18.022
41.1903 29.1466 20.3767
46.2011 51.4657 46.1167
36.0584 28.625 25.6929
25.641 32.8771 37.8368
31.3245 23.9203 20.8231
26.1499 19.7917 15.5562
30.7722 25.9702 22.6558
43.1029 38.2683 33.2664
39.107 35.91 31.2888
27.1852 21.7576 19.6593
24.596 21.8567 18.6498
21.9255 22.0987 19.9652
29.9497 31.6157 29.2754
20.977 21.469 22.2835
21.4645 19.7123 18.2414
27.7798 28.4288 31.2543
34.7407 33.1287 31.9285
41.2007 41.2754 42.3578
41.5263 33.5619 29.3496
27.4672 24.1402 22.2825
34.9417 32.1028 29.5605
25.9827 24.3282 23.9264
50.6909 48.8091 43.8369
27.0801 29.2919 32.7149
31.7459 32.12 32.6469
20.8865 21.6011 25.8431
23.3147 17.7247 16.9442
32.7469 32.5773 30.4674
21.1325 22.9789 29.6771
74.1907 68.7421 60.7943
16.4345 13.7661 15.6249
34.6969 35.7647 34.8355
35.1156 36.2362 36.6727
25.9608 26.9043 27.5628
20.7037 21.6086 23.844
20.2406 20.0219 21.7188
40.2702 40.43 40.1746
30.8531 28.3629 26.6695
10.7848 8.76824 11.1838
28.8279 27.1355 23.9099
35.1373 38.3557 41.2522
31.748 29.0606 26.9072
24.2253 26.521 27.4023
20.428 23.9569 26.4078
32.9918 38.6061 42.9648
26.8438 24.599 23.4716
31.3814 40.5982 46.7298
49.6703 49.0247 45.3396
18.55 25.1126 34.5604
47.694 53.3127 55.938
33.298 31.762 31.2099
24.3957 32.8955 47.1661
41.1296 43.6369 47.6986
38.6525 36.2379 33.1779
32.6995 36.1435 41.2421
21.2393 16.6504 14.2169
21.5879 27.4623 36.4488
37.232 37.5895 44.261
47.1519 50.897 50.7225
20.0508 22.1723 28.6359
24.9951 24.1656 24.1788
29.015 37.5967 43.2534
33.29 36.7201 39.7372
21.889 31.2507 45.0861
34.2518 31.5199 30.495
12.5281 11.0598 12.9167
26.6195 28.7945 29.4589
19.6393 23.7838 28.0831
17.6037 19.2372 25.5052
25.4318 29.9593 39.9119
27.418 28.3443 28.5799
24.5145 26.0991 28.4272
26.3792 27.6333 28.9832
18.7965 17.7557 19.6579
21.336 31.2542 42.8541
25.061 22.9456 24.0554
35.5055 47.3333 57.8611
27.8951 27.7998 27.6697
13.5588 18.0906 24.2878
24.7234 28.7393 32.5235
15.1632 20.1808 30.5577
15.662 18.4678 27.6393
35.4211 42.1745 42.5796
31.614 37.7822 47.8342
36.703 47.5166 51.8774
17.5482 18.2916 25.1289
30.5637 37.9287 41.9008
19.6767 24.742 33.3577
36.7338 46.1005 52.8527
19.2751 33.2043 53.0331
24.2717 22.004 29.0432
34.7573 37.5681 42.532
37.0217 45.344 55.1414
24.2929 24.9753 29.1298
16.4362 20.8628 30.1891
34.9364 41.6201 50.1696
25.0577 29.89 40.3909
51.269 70.1585 81.4121
30.6308 43.7885 69.4811
30.546 29.1288 33.4062
24.3275 27.2739 34.7129
26.2188 33.7836 44.1456
22.3566 22.1241 20.174
40.0379 63.7244 88.4962
33.8423 34.9428 38.6673
21.6433 27.8471 35.915
23.8886 29.2095 29.53
17.1415 27.2203 41.6962
16.3641 21.9208 29.3277
17.6897 26.541 42.639
25.6273 29.4558 35.2537
23.4323 32.6413 47.4428
21.458 20.9607 26.016
22.2344 34.4637 48.1248
24.2304 30.3935 39.2983
17.3123 22.2589 30.9199
19.4155 21.923 24.683
15.2986 28.361 46.2285
24.6894 32.6043 47.8936
30.1537 28.2743 25.4653
10.2772 15.5938 22.0874
18.4142 24.0358 28.5266
24.6071 43.2508 62.7727
12.3527 17.898 32.3686
11.102 14.617 34.2421
27.275 27.2263 32.6014
28.0592 35.9727 40.4212
14.5069 15.6944 17.74
29.1515 44.3032 58.9936
19.1957 31.3798 53.251
28.2148 29.2809 28.8441
17.4911 31.4502 53.1515
15.8493 19.8421 31.4981
16.2909 22.6862 36.0575
22.0011 26.4995 33.6968
18.5833 23.4603 26.2055
16.8813 30.1073 47.1225
19.1028 20.6082 25.7785
20.0633 29.7969 43.2442
17.1525 23.021 33.5811
9.8837 10.7504 18.1113
26.1745 35.6235 43.0135
15.4386 30.3495 53.2991
19.2091 19.4802 25.3712
12.0836 16.4924 26.3394
17.0199 21.5974 27.0494
16.91 25.5998 32.3668
10.9889 16.4946 28.8586
18.5726 33.0873 60.3618
24.4593 34.8739 46.8929
13.339 22.0285 43.7953
25.2003 30.1446 40.8091
25.2338 35.8775 50.7302
19.9116 28.6811 51.0867
28.2708 38.389 49.5045
19.3002 26.952 38.6642
22.0162 35.4089 51.2396
19.1618 25.7836 33.0433
19.4663 36.0189 55.8273
20.9698 27.9311 40.3849
16.7779 29.7746 46.3291
19.1034 29.8776 46.6581
17.2267 25.257 43.6283
27.3368 36.3458 45.4636
12.5963 22.3903 44.5553
24.2879 36.4945 57.2882
21.8893 36.4599 58.4899
16.7802 18.6591 25.7482
20.0263 31.4383 48.5535
9.83937 12.7846 30.1631
20.6643 33.4885 55.307
15.9072 20.4214 34.5136
18.591 24.348 34.6228
16.8561 26.0146 40.3263
22.4394 34.2207 45.909
13.6532 25.7166 52.5606
16.9423 23.7205 34.4209
9.88677 12.5392 20.8308
13.7948 22.9884 36.1368
18.5863 31.0804 51.9967
17.3831 24.3055 32.1602
14.1823 20.3829 26.7932
9.86664 16.0291 26.2015
12.8507 21.4295 34.3812
17.3732 27.9604 47.9669
17.817 28.1818 42.4682
11.9788 19.1498 36.8887
18.8457 26.9097 42.8545
18.913 27.9422 39.6911
15.0433 26.2671 47.4815
15.0372 17.6803 17.2908
11.9976 23.6388 36.2774
11.4473 23.3125 42.4308
19.4612 33.0582 59.6216
15.4399 18.6266 32.1021
15.1045 23.4439 37.5508
10.4008 13.5608 19.1996
7.36586 17.2775 40.2436
21.5121 32.5111 52.5018
14.3738 21.6428 35.9597
19.7813 31.1305 43.8192
14.3496 28.3397 45.2914
13.9496 33.1919 75.6124
21.4139 30.9069 45.8142
19.9239 34.9792 56.3613
11.5441 21.8926 47.4373
18.5735 28.8964 46.894
16.7318 29.3659 52.3003
16.1378 24.6755 31.7196
10.6533 20.3135 32.7147
6.6703 17.496 40.2274
16.1119 26.5427 56.0767
22.7553 37.6075 60.1305
14.228 20.0817 29.1687
8.95913 15.563 30.2387
10.7392 20.5075 38.128
14.7426 25.1607 41.3813
9.4787 13.9157 27.582
9.82245 17.9275 32.8145
11.4046 19.3457 42.2125
16.7619 24.0271 39.1772
29.0152 54.2376 84.7391
12.98 18.5048 29.3145
8.35938 15.6807 30.5299
10.5655 20.0809 42.2926
11.7227 19.1089 42.882
21.3364 37.9305 61.6792
15.1538 26.1927 42.4652
11.907 23.438 48.8563
19.4715 33.2454 49.9074
12.58 20.9213 48.3439
22.6376 40.3553 62.959
13.239 24.5528 49.6257
11.2975 18.897 37.8456
15.0691 25.6652 42.2041
11.7 19.4729 33.8949
7.3474 9.47858 18.2241
14.7012 34.2942 59.4574
13.0839 24.5023 48.5476
12.4785 23.74 37.1047
6.91302 15.9568 42.531
14.7098 25.4975 43.4533
10.0224 21.6347 50.5929
16.1377 25.9241 44.3888
14.2819 27.3652 49.5292
11.8962 25.6771 55.7553
15.1826 20.7838 27.1297
8.76219 17.6865 35.0499
17.1873 32.2107 56.7142
18.1726 41.7707 92.742
18.2507 29.3759 49.7933
11.8176 14.7782 21.5004
7.03946 13.0141 30.4591
14.9329 27.934 41.293
9.88623 27.4716 55.4292
14.9274 30.8107 61.5594
11.2476 18.1984 38.4225
14.6328 25.3102 39.2561
9.02678 26.1046 73.6763
24.0342 37.3915 55.9865
14.4125 29.3202 53.2302
13.384 29.141 55.87
13.566 28.3496 53.5263
7.5719 12.3029 34.152
11.3663 22.8007 40.349
8.42778 22.1655 53.647
10.9632 16.7247 39.809
17.507 31.7539 51.5611
8.85955 13.5119 31.0203
11.2709 25.274 47.0134
14.9218 26.7366 41.9977
10.2845 24.4785 46.5267
10.4235 29.8269 68.5908
13.0915 20.5328 46.5435
13.4666 27.0621 39.1167
9.02958 27.9869 69.5935
10.2295 15.1237 37.2405
10.437 18.1617 31.995
10.7014 25.5184 56.5585
11.2689 24.7988 70.5236
22.8056 37.099 54.911
7.34423 11.5118 21.5555
10.1214 26.819 61.9678
17.8172 32.6903 57.0891
13.2795 25.5574 48.5152
8.81427 19.5531 43.6878
9.20362 20.1436 42.4488
10.663 28.6582 68.1867
14.7969 28.3397 57.7074
10.9114 17.5517 43.0486
11.3516 24.6852 56.5279
16.5096 28.6996 47.0137
7.45086 19.3287 58.1405
15.0481 30.5144 62.7911
12.1357 23.9203 61.1397
11.2307 14.7165 23.0435
8.89947 14.4849 26.3224
9.26646 21.2746 36.7728
8.02753 22.8613 57.7082
7.8097 15.9551 37.1422
9.26701 17.6466 32.7489
8.80892 25.2103 61.0186
9.88217 19.6131 50.7273
9.03126 12.6151 33.7607
12.3702 27.2052 43.5777
10.9683 21.6273 44.6897
10.082 19.7424 34.825
9.74274 22.622 53.1711
11.756 25.6101 63.7719
15.2037 23.4265 29.5284
7.26043 20.3059 39.5605
10.5057 28.7292 65.4564
10.4494 21.3007 45.1021
9.67321 31.0111 81.2957
12.7374 21.5998 44.959
9.58353 22.8314 55.5513
9.88087 13.5966 26.7032
9.49835 19.9614 35.1543
6.93721 19.6148 48.2919
10.5362 26.6081 67.7603
11.1391 20.2029 46.6323
10.7931 22.6153 55.7551
16.984 26.2044 42.9917
12.228 34.9873 79.0363
10.8648 18.5522 43.5982
8.86557 18.8121 36.6323
5.22673 10.92 31.2964
9.8841 20.2362 37.6448
7.29579 23.102 58.0985
8.04515 18.7922 63.2378
17.0788 39.6293 85.1053
9.6795 14.7781 26.2105
7.50485 19.8867 46.9211
10.0928 21.3267 44.6462
7.20732 14.1923 27.4385
7.00056 18.5562 41.3192
6.81428 17.1491 57.3704
13.1813 24.2576 43.3791
5.54963 17.4823 57.3127
12.4675 20.6983 31.8398
9.35053 25.0422 57.0467
7.35804 15.7548 47.779
11.9648 22.456 41.7722
8.28747 25.2019 62.4056
9.75807 16.8142 31.0231
9.19968 21.3892 41.3135
9.55899 25.7188 56.0078
6.35835 12.7594 34.3656
7.18407 16.6601 40.6143
6.40857 16.2114 47.4581
9.9445 17.8846 32.4587
8.9607 22.4301 42.6054
10.0381 33.0666 85.4893
9.76004 19.1321 38.0936
6.14585 23.1932 66.1461
7.63724 11.1088 37.8804
11.5958 21.3437 46.0147
10.7106 30.4707 90.9182
16.142 27.7405 52.4541
10.4957 19.5421 37.8436
7.04058 19.7836 55.1433
9.97495 18.9804 40.2449
11.3466 29.3686 51.3976
8.07373 22.0113 53.6028
9.109 31.9433 82.2398
10.6159 21.9687 57.2274
7.83343 18.5447 47.5979
10.5382 22.0186 56.0261
9.93131 27.9795 72.1913
7.71531 17.6521 62.2726
13.5767 21.8699 32.3991
6.74957 15.8393 32.8365
5.64468 18.2583 55.0504
8.00962 12.0167 23.8184
5.53804 16.7685 57.7287
16.511 43.1991 114.319
19.2667 40.2592 74.5218
7.42379 14.6657 49.5751
10.2344 23.9409 44.6424
10.5833 33.7869 74.3248
6.85385 18.5008 52.3729
8.29616 18.8566 43.0028
9.71843 24.309 62.2056
9.65286 18.7657 41.3447
11.4952 29.9647 58.6738
7.19206 26.5145 79.1414
9.93465 24.2821 69.9017
7.35266 17.4634 50.1591
6.99697 15.7753 57.9973
11.86 22.42 49.8387
10.8779 28.26 61.6815
7.76539 13.7981 35.6931
6.26981 11.8686 32.7619
9.72713 29.2746 84.719
12.4014 26.0527 49.6799
5.31251 19.7775 64.8871
8.80086 16.3074 54.8289
11.9841 30.3644 63.2317
5.53498 11.6368 31.7823
5.76709 16.2007 52.4588
8.73508 31.3544 90.4199
13.0557 25.7023 46.0721
5.08158 7.71685 17.5604
4.53185 14.8556 35.0056
6.87771 20.4047 54.1221
10.9767 33.2177 81.1103
9.43956 22.308 60.6462
7.98474 16.6202 39.3843
9.27931 25.0639 67.5737
9.43704 19.0815 57.6931
8.36808 18.9313 50.7078
10.1497 21.8647 39.3338
7.64476 30.7427 91.2812
14.2563 35.7823 80.7379
9.35443 18.3275 37.9379
4.02732 11.5661 29.3116
4.84357 20.1186 58.0757
4.90088 8.67319 40.8489
6.65944 13.8636 29.4227
7.31583 19.4618 58.2814
7.6309 15.5777 34.7509
6.02465 16.4875 45.8039
7.75983 23.1637 65.2108
10.8806 27.0588 63.6439
6.39282 12.8435 34.5548
7.20899 15.3939 25.8875
4.58593 22.9484 61.7642
8.44324 17.7427 55.9481
8.13751 16.884 45.556
6.69843 13.856 31.2349
4.55345 13.0086 29.5329
7.14018 25.75 75.1656
7.69599 16.2437 36.69
7.03163 17.8789 48.9247
9.38715 31.4174 75.5346
5.54402 12.0834 39.6623
7.02827 21.8149 63.0805
7.22383 15.6765 62.728
11.772 27.2659 58.7685
7.52629 20.4781 53.9905
7.14073 15.3184 42.606
7.41159 22.4742 51.553
6.98097 16.828 47.0381
4.605 7.75283 18.8371
4.73347 16.0139 48.7516
7.06243 19.4155 42.4581
5.26558 15.6245 46.7816
6.85949 17.9709 40.7785
6.21205 15.1198 38.2952
4.98734 13.7272 27.6256
2.57766 17.168 74.6338
9.1862 14.8208 31.8215
3.21461 12.6088 65.4235
12.5283 33.553 69.1293
4.94338 12.3774 48.8891
6.89006 14.2291 36.7949
7.14203 19.2479 57.3986
5.94073 19.9874 48.2324
4.82482 11.1842 47.7897
7.7651 14.607 36.5663
8.01184 25.0587 52.508
3.566 7.70033 22.6886
3.37496 15.8532 57.6059
6.26447 16.0476 50.2575
7.90885 18.7313 48.0809
7.28345 17.2794 42.0936
5.21876 13.9879 32.7904
4.78773 17.5187 51.6008
6.94248 21.9948 61.7608
8.71585 19.4377 50.7099
5.66682 13.7822 44.3054
5.61071 14.6106 44.9113
6.6861 17.5708 54.3108
5.61664 12.5807 32.4645
6.74718 24.9944 70.1189
6.53053 14.7785 57.8629
6.28216 15.831 45.8149
7.01952 17.551 38.1208
6.09698 19.5559 60.2698
5.04259 14.1523 41.8012
6.29088 19.8801 61.4697
6.16039 12.7045 37.4456
4.60491 5.69934 11.7861
4.69803 17.1183 48.7164
6.83316 17.2745 63.4051
7.22857 19.9278 63.5661
9.33686 24.7298 57.8781
7.49777 26.3053 63.3353
5.12903 14.9667 37.045
3.90748 16.0519 55.5459
7.54124 20.8982 69.5384
5.67207 13.4261 57.698
7.68643 12.5233 47.8112
8.36341 19.1961 30.6175
6.47844 26.9302 72.7179
7.2512 20.6406 65.8852
5.81727 13.274 45.442
7.45947 26.034 72.8829
7.59691 20.2204 55.2701
6.28554 14.7918 36.9066
4.24986 14.1329 39.043
6.03197 14.6091 35.4871
4.15842 12.154 25.925
1.90378 10.5016 49.5975
5.81471 18.9098 61.002
7.52522 17.1087 33.1559
3.52074 17.1292 68.0524
6.07979 12.252 48.3965
7.78917 21.3216 70.3835
8.46552 20.9858 44.4557
4.18046 14.1943 35.6445
3.78921 10.6543 36.2843
3.73334 8.81345 31.1591
5.4908 14.8055 53.6949
6.27867 15.4744 35.791
5.31118 13.2139 32.0413
3.00695 10.4183 35.9328
4.73474 12.3209 49.7576
6.12499 14.5124 43.5242
5.28703 12.0494 24.6891
3.73268 14.2422 45.1582
5.315 14.478 50.2553
7.22755 28.2121 66.1606
4.96016 16.6177 68.3407
8.62338 20.3109 45.0557
5.07559 17.1504 56.7694
6.03055 17.7738 76.9877
9.76155 23.6919 53.5306
6.50297 18.2726 54.9418
4.96753 11.0337 37.9327
6.42468 21.8159 53.8819
4.52904 13.9497 60.9135
7.49676 23.0129 66.5842
6.20831 16.0776 47.9304
5.93831 22.5584 61.2574
5.98513 17.794 51.9277
4.84336 9.11624 31.4367
3.87947 13.1484 47.205
5.1541 11.4192 26.4401
3.35173 13.6884 56.8957
6.88482 19.8501 57.5149
7.36427 23.7901 59.7953
5.78664 22.1143 74.0135
7.94509 20.7808 49.9401
4.72327 17.6513 40.0682
4.07522 21.8497 68.8029
4.78554 17.3858 67.4093
5.85725 20.4004 82.0445
8.33479 23.1317 66.961
6.72741 18.2752 60.2931
6.58555 23.2612 81.7528
8.18527 18.2313 44.0581
7.17182 20.6301 57.5928
5.15279 15.902 39.8143
3.81852 17.4205 60.9756
5.23503 13.9881 47.9617
5.37364 15.5247 45.5538
3.95587 16.0988 64.7386
5.29102 15.3074 62.5467
5.60893 14.2255 47.113
4.66967 15.4687 67.3904
6.78314 13.3583 32.6603
3.22788 13.4303 46.3823
4.78806 11.7304 34.5043
4.18155 14.5524 52.0415
5.48028 14.1638 46.7756
5.38899 16.0726 39.3722
3.34604 13.7652 51.1287
3.95556 10.8577 51.3084
5.38162 16.067 48.318
4.00429 12.1095 65.8001
7.47868 18.4908 40.906
5.73844 23.7715 59.9071
4.59692 14.431 48.9035
6.45381 24.2973 66.6202
4.29392 16.1585 61.3583
8.6153 32.309 72.136
4.57858 12.3554 45.9529
3.97602 16.9579 89.5499
8.40004 14.5855 42.451
5.55016 20.0639 58.4086
4.61189 10.5293 39.9909
5.03003 14.6779 33.7572
3.44679 10.6353 39.9735
4.46782 13.592 30.9522
4.21932 20.7848 73.1435
5.77054 12.6002 33.4496
3.37505 12.9379 38.1786
3.24576 9.47789 36.0997
4.13851 12.3112 39.4992
3.15862 11.2162 51.123
4.8158 9.99359 49.0436
6.99596 25.7585 46.9318
3.32633 18.4398 60.7205
4.39952 14.49 68.4982
4.81424 18.41 61.9261
5.75445 15.0089 53.4918
5.54631 15.3299 49.3411
5.80403 16.6781 40.7499
3.58607 13.0884 45.7804
4.4597 19.5904 79.0195
7.80565 19.176 42.2104
4.60564 19.2063 55.053
5.11577 17.0999 46.7952
3.30753 16.9496 63.5477
3.73901 11.0775 47.0229
3.4437 15.0276 84.5811
6.405 14.5361 49.8023
6.13487 15.6148 71.7986
6.2699 13.6699 50.2712
5.92609 16.4141 42.1951
5.78193 15.7265 43.751
4.79617 17.8453 59.2969
4.9328 16.5826 44.9663
4.22266 16.214 46.2212
4.05295 12.2726 30.4551
1.89538 10.291 41.8993
3.74105 12.8128 50.6443
5.30618 16.6578 56.7053
4.64341 13.1922 54.5161
6.32492 15.295 46.9391
4.12258 11.4494 31.8497
2.77684 9.11461 25.5606
2.70122 12.6135 42.6414
3.41369 12.9033 39.8782
3.2942 15.1634 54.319
3.97892 8.64217 30.5846
2.96271 11.7299 47.4037
5.55165 22.0725 77.3302
6.15939 13.5418 34.6837
2.56775 6.30042 37.8664
4.17497 14.6041 29.9
2.20036 10.0154 58.5892
6.95908 21.3268 41.6896
2.79685 12.6286 56.5068
5.7076 13.1329 50.8634
4.87139 10.452 52.0324
5.57681 17.1985 47.7402
5.64378 26.3712 83.0612
7.47525 20.1215 51.9748
3.20721 10.6976 56.5203
4.69292 16.5141 77.2113
6.61666 17.6517 55.5408
5.03502 16.1151 33.0317
2.33175 7.98983 33.5112
3.54635 12.6825 37.0966
4.02203 23.2071 68.8302
4.79986 16.8659 66.8361
5.53704 13.9956 43.1385
3.90285 13.7501 39.585
2.9678 11.0805 52.4461
4.63213 18.468 69.0709
5.79085 16.0949 76.6601
6.62961 13.3007 39.7995
4.16388 16.8458 59.6816
6.42327 31.0684 82.059
5.76657 16.8353 51.8583
3.63821 7.86396 37.3937
3.93849 14.0772 65.0425
6.57971 24.4474 52.8734
2.7287 8.42448 54.9486
4.04204 12.638 51.562
4.7067 13.6347 30.8508
3.95601 13.2418 44.2772
4.5476 20.9827 62.0568
4.51451 16.7013 55.5537
3.87723 13.6232 53.521
4.1359 11.1424 45.0186
4.56609 13.0758 66.957
5.24861 13.714 59.7164
6.87099 21.1054 58.4567
4.6256 15.1409 57.7882
5.87389 18.1556 43.174
3.39092 19.0743 90.5686
8.1003 25.8121 75.5062
5.53841 17.9153 55.9631
4.02665 15.3045 66.039
4.58896 13.1799 35.3128
2.58264 7.15737 35.8259
3.4637 11.754 69.0109
6.07716 16.2927 37.6755
3.23094 13.3674 52.2905
4.10786 12.4028 51.1137
4.59499 10.4885 54.5688
5.12256 16.455 48.5842
4.43806 17.8704 57.4286
5.24951 14.8657 35.7943
3.39203 11.9902 54.2963
5.37041 21.4977 68.4004
4.48869 13.266 37.0396
3.78618 17.1572 60.8538
4.95588 19.3241 64.5004
5.32908 24.2709 64.6037
3.15939 9.33202 44.7453
3.61511 9.39162 42.5118
3.96897 8.41374 39.8491
3.6695 15.0772 61.2883
5.80037 12.842 31.4624
2.28615 10.7884 46.0143
3.54008 10.313 41.8803
3.51442 8.73765 65.1066
6.43443 22.5844 52.6929
3.45565 11.6387 55.0459
4.49995 15.2583 48.3006
4.68464 16.0095 60.5142
6.02928 24.0169 61.9408
3.191 9.23639 33.15
2.61307 10.5944 53.2055
4.51955 15.4618 45.7969
3.98121 16.4422 53.7219
3.7386 12.7203 68.1327
5.47054 17.6721 65.3192
5.54579 8.95904 19.3989
2.31175 15.1537 66.4205
4.54955 8.79498 59.7328
6.03596 17.9085 28.0771
2.71074 20.1197 100.496
6.98229 18.0738 41.9984
3.9549 10.5016 40.8324
3.55847 13.6703 30.1655
1.64024 10.5273 43.2674
2.92441 11.986 46.3247
3.47948 6.62577 42.9556
4.31137 19.7209 67.6974
4.74625 11.0706 35.7013
3.01659 11.034 57.2168
3.99637 13.1869 55.6999
5.59376 15.8627 39.4705
2.67625 10.4733 54.3747
4.35913 15.5106 53.8937
3.74879 9.7191 54.9324
6.17175 13.9465 23.2884
1.99328 10.6119 47.5927
4.07136 19.2151 50.2971
3.1995 10.9027 53.7804
4.1559 11.3718 55.1076
4.11181 10.9505 41.0031
3.68233 15.0638 73.1069
5.73952 15.2438 40.0525
3.24462 17.99 53.1242
4.69398 14.2662 46.1397
3.33206 9.61895 42.4931
3.86633 19.8577 72.3238
5.01611 13.5649 46.6898
3.51002 13.2903 68.1518
5.71443 18.2569 55.138
4.00131 12.3273 33.1223
2.23039 7.63256 27.6134
2.01214 6.86898 35.2367
2.94704 13.6281 55.8529
3.8178 10.6312 27.8739
2.67125 14.8936 60.4261
4.6213 19.6359 71.1382
4.10083 9.6096 40.1558
2.93497 12.8824 47.1096
4.20517 13.7011 44.5516
3.21453 11.1795 61.2107
4.39702 17.531 56.4638
3.58048 13.2781 32.6316
2.67717 14.6284 57.2499
3.78989 10.5715 69.1458
4.98006 19.1018 54.6596
3.70024 9.84144 48.8901
4.64282 17.7091 51.6499
3.76019 18.9961 89.7386
5.74585 20.2252 61.9376
4.07357 12.5892 51.83
3.23407 9.07665 45.6218
3.98524 13.7002 57.8559
5.07148 13.8398 36.4153
2.85713 14.7393 46.2622
3.20317 16.7272 38.5473
1.91137 12.4484 64.7891
3.17482 8.65883 41.2516
3.27687 9.65877 32.7639
2.65009 9.41753 32.0692
2.5355 12.5219 66.1922
4.3111 10.5072 21.3799
1.83582 14.0442 70.8838
4.90201 9.22276 17.281
1.17432 4.81844 47.3795
4.49117 17.1282 64.6135
5.52093 16.4907 90.1873
6.87114 19.9454 37.7587
2.55597 13.3712 51.7752
3.36492 11.2829 49.3791
3.90539 14.0269 41.6507
2.26812 9.23891 62.1291
4.51706 14.4068 34.665
2.25098 5.3295 45.4355
3.91499 14.3312 50.4447
3.43914 19.0826 61.6973
4.14297 11.2761 31.5916
2.73335 14.9315 47.4188
2.84426 14.6559 48.2913
3.42291 11.9718 64.2304
4.44834 23.146 95.1493
6.72502 17.7701 52.2727
3.78807 13.5503 48.2423
3.41267 11.5955 48.9162
4.5475 9.41722 38.6056
3.61894 16.8712 55.6235
3.44468 10.9099 46.5921
3.09332 8.04151 40.0569
3.75417 15.7707 46.8417
4.08465 17.8654 50.5542
3.50649 12.9739 51.4047
3.60855 16.3706 75.9468
5.86469 11.0134 37.8786
2.74962 10.8072 50.9157
3.50877 6.92678 24.0994
2.26464 11.8912 53.9934
4.02024 16.8901 51.976
3.64712 15.6708 46.7034
3.49488 16.5096 74.1022
4.90963 14.9441 35.9976
2.59655 7.43163 43.7973
3.78049 17.1815 57.6507
4.00626 14.013 44.7718
3.10651 9.74453 56.0494
5.00385 17.7222 66.6077
4.53671 10.7141 30.4898
2.13659 15.5919 60.5598
4.4657 13.6252 57.2397
4.188 10.8675 31.4431
2.50255 11.2882 42.4839
3.41439 13.3481 39.6773
2.24251 7.74097 42.5473
2.61203 7.01626 35.6495
3.43213 13.6225 50.8369
3.76088 14.8516 57.3022
3.99879 11.1286 66.773
4.57293 13.9276 54.6888
4.55932 16.616 72.9547
4.43853 10.6867 52.2167
3.89613 23.4381 55.0626
3.74887 9.09239 45.9887
3.11484 9.93018 32.5422
2.37751 13.6056 48.1118
2.96675 13.3655 50.0302
2.82338 11.7335 45.4516
3.5358 12.4314 57.907
3.54465 11.5733 33.3801
2.46148 7.96193 20.8033
1.30807 10.9972 58.1642
3.81394 12.6128 43.4886
2.63686 8.27734 53.1741
3.94516 7.0548 32.8989
2.42777 13.3517 57.0212
4.88194 24.4471 86.7482
5.54529 13.8858 59.8412
3.91443 12.7769 37.018
2.36516 8.02097 29.6156
2.03414 10.9308 42.5548
3.41373 21.1824 62.6744
4.10108 9.51062 24.6376
1.6463 9.51077 56.9369
3.93883 12.8083 49.9033
3.36661 9.96019 45.0004
2.77685 10.7199 29.722
2.25265 6.10373 30.824
2.2001 10.8836 33.41
2.32191 9.59139 48.0193
3.76298 13.306 43.3767
4.00412 12.5772 42.1257
3.50625 11.9087 50.0754
2.86512 11.9333 59.2913
4.36457 12.7922 61.1347
4.06672 14.5576 45.1655
2.89542 14.9335 65.3994
4.06332 16.9951 44.5267
2.64379 13.5498 70.0963
4.28274 17.5203 41.3635
2.67888 6.28757 42.9615
3.38214 10.8499 48.75
4.24854 21.5153 62.9285
4.45802 20.0853 61.836
3.46804 10.2488 70.7463
4.78519 15.7059 37.9718
2.9587 10.058 56.0619
3.76237 16.8209 59.834
4.25381 12.7565 57.4247
5.1734 20.3321 47.5159
3.36195 12.5287 67.122
4.95365 16.5086 52.8218
2.99737 9.28041 57.807
3.65843 11.3342 42.4555
2.85966 13.8238 46.6358
3.45554 12.4496 58.3389
3.16844 14.7231 44.1326
3.491 18.0224 99.7775
5.80325 15.8626 85.5275
5.43635 24.0129 101.274
7.04564 23.2569 63.0057
3.65452 16.7864 49.2584
2.67882 15.6459 70.5719
4.62075 9.05667 43.2529
3.28951 9.32178 28.1028
2.16187 9.76622 53.4732
4.17044 12.7625 29.949
1.6656 11.1147 40.0593
2.08448 10.3057 37.8053
2.87442 8.66523 37.1621
2.96738 10.3379 45.3563
2.58898 12.3274 50.5374
2.75073 10.9777 62.8071
5.13548 11.0871 23.5182
1.43106 7.81787 58.1922
3.65394 17.3136 35.2741
2.43791 4.73008 45.4424
3.56907 17.4452 52.5841
3.20634 16.2298 43.2623
2.88903 6.55861 38.3872
2.67982 10.6276 55.8327
3.57005 17.5189 56.1915
4.08811 9.68936 41.3336
3.29783 7.79563 47.1703
3.54133 13.3473 37.3343
2.53243 8.13707 44.6329
4.00946 13.8202 21.3876
1.40923 12.8972 68.7241
4.64208 15.2456 65.2775
4.53328 11.8915 49.9573
3.43204 9.92432 38.141
2.62173 9.54481 66.8535
3.92658 15.1899 68.8426
4.77931 13.5877 44.5695
2.98988 20.1343 75.4297
6.59312 25.5828 52.0968
3.31768 7.68009 36.2817
1.58747 9.09611 53.7603
3.9199 10.8195 41.3229
2.55642 7.81212 33.806
2.15795 15.0763 54.8046
2.98128 9.29125 43.845
3.06173 9.56406 46.0699
3.17002 13.6401 62.1931
3.36622 14.3462 73.8229
4.21051 13.7982 39.7133
2.73462 20.4547 55.2051
3.53651 13.997 48.7769
2.79202 8.52005 60.2278
3.84467 14.369 70.6757
4.68145 10.0371 32.2925
1.92124 12.2962 56.4147
4.56393 11.6121 36.3505
2.12343 9.14106 32.6413
2.4338 15.1667 57.7345
3.46711 9.98382 31.1622
2.42081 10.7954 64.9675
4.6901 13.1781 59.6556
3.83825 12.0125 40.9625
3.33701 11.928 30.8162
2.24523 9.68958 46.5606
3.05283 14.778 41.6861
2.74832 5.59136 23.3854
1.65472 10.9284 61.9853
4.18847 13.8961 66.9328
4.57069 19.7538 56.991
4.00696 12.4233 68.1797
5.12567 17.3357 59.8614
3.86631 15.9972 41.6
2.70437 11.9357 62.2009
3.96114 15.6849 61.3505
4.82342 13.7243 52.4635
3.20008 14.1545 54.219
3.63691 13.9834 41.1544
3.41974 6.97096 43.916
2.80126 11.4774 34.8361
2.75294 11.2113 57.4237
3.26824 12.0207 51.3986
2.71024 12.461 37.2928
2.24463 5.74636 34.0369
2.21495 9.22791 29.618
1.70451 6.9495 35.4755
2.35313 13.0681 52.0462
3.4948 15.1414 35.1768
2.18613 8.45226 50.9624
3.61921 10.006 45.1822
2.7223 8.1855 47.003
3.33218 12.8606 37.6104
2.75564 12.4857 37.258
2.74045 15.5245 63.0237
3.99442 14.4251 34.709
3.04325 10.1473 73.5645
5.31143 15.1462 47.7821
3.38615 11.0963 29.0624
1.93928 6.2925 43.5615
2.59352 16.8048 90.3286
5.47803 0 0