# pn-170911/RbIIR-41-RbIIR-1280-1959.psd
# Power spectrum* (dif=0,1,2) (really just |FT|^2)
# NOTE: only the first half! (symmetric)
# weeks: 1280-1959
# 4595 clock-days, 140 excluded
# PSD: 1441
271.678 0.0949896 0.038893
33866.2 0.800806 0.0312768
105895 2.0351 0.0306466
32515.8 1.1752 0.0311444
56566.6 4.19744 0.0311962
11011.8 1.07439 0.0318921
8242.82 1.16933 0.0306609
5678.69 1.07004 0.0321615
5690.59 1.46523 0.0317997
3726 1.18595 0.0312583
3066.5 1.24118 0.0310012
2518.63 1.20557 0.0321622
2347.75 1.36502 0.031459
1874.53 1.25762 0.0321184
1794.27 1.41801 0.0325171
1427.94 1.28406 0.032683
1377.69 1.44739 0.0339237
1159.1 1.34034 0.0331899
1141.27 1.50794 0.0336098
968.894 1.41881 0.0333898
971.278 1.60142 0.0338454
875.71 1.5869 0.0348347
861.855 1.754 0.034988
751.053 1.64176 0.0359247
772.949 1.87562 0.0361756
661.806 1.71407 0.0367617
731.073 2.07218 0.0387497
619.664 1.92053 0.0381435
649.943 2.15698 0.0406831
571.782 2.07211 0.0394917
605.062 2.35616 0.0412834
529.242 2.13577 0.0417623
562.651 2.51547 0.0443775
525.357 2.42505 0.0446424
557.653 2.82568 0.0477349
497.222 2.65763 0.0478712
508.537 2.84727 0.0496534
473.712 2.81247 0.0481593
502.318 3.16591 0.0541801
454.751 3.05249 0.0541961
481.923 3.42038 0.0581023
448.272 3.33869 0.0585385
470.039 3.6469 0.0623445
433.096 3.60919 0.0644653
466.288 4.02543 0.0691399
414.985 3.75083 0.0678448
435.903 4.10933 0.0728659
416.072 4.10797 0.0738809
447.113 4.60615 0.0832174
394.557 4.25841 0.0800826
425.132 4.76413 0.0880251
405.546 4.74956 0.0908076
426.164 5.24286 0.0990712
390.897 4.96617 0.0998293
416.625 5.54515 0.10873
381.025 5.19513 0.107205
386.565 5.49097 0.113718
374.154 5.4377 0.113321
400.524 6.1187 0.129258
381.112 5.99201 0.131002
373.371 6.1083 0.137657
375.582 6.3343 0.144863
388.916 6.85339 0.15774
362.165 6.5829 0.157191
373.327 7.02692 0.170678
363.225 7.01195 0.172257
365.29 7.26469 0.179472
347.79 7.1647 0.186331
352.577 7.52439 0.19706
356.461 7.76868 0.206106
360.07 8.10576 0.223577
339.633 7.91699 0.220521
341.493 8.18961 0.234837
340.646 8.36994 0.245513
323.682 8.2117 0.245047
330.616 8.62179 0.263612
334.85 8.93732 0.279918
330.602 9.01347 0.28241
335.499 9.37879 0.306544
322.505 9.29405 0.308246
321.612 9.53483 0.323721
319.605 9.71973 0.332167
319.667 9.9468 0.349381
304.798 9.7401 0.353222
319.737 10.3869 0.384619
304.428 10.179 0.379711
306.076 10.4363 0.401241
304.309 10.6389 0.411273
304.456 10.9128 0.432716
302.796 11.1586 0.455247
307.519 11.5408 0.476995
302.389 11.62 0.485542
299.023 11.7049 0.501274
289.013 11.5518 0.506698
283.955 11.6135 0.51468
286.797 12.0705 0.549562
339.844 14.6817 0.674045
291.634 12.5965 0.591822
279.882 12.4892 0.601708
269.205 12.2365 0.599014
285.586 13.2085 0.658987
277.941 13.0647 0.667679
283.944 13.741 0.709701
274.167 13.5082 0.71538
277.631 14.0017 0.750412
267.978 13.5623 0.734657
262.954 13.8185 0.764431
269.955 14.3758 0.808077
267.209 14.4604 0.835449
267.05 14.7506 0.871047
263.889 14.7951 0.87697
257.01 14.7158 0.891275
256.818 14.9818 0.921783
264.279 15.801 0.988105
264.688 15.9795 1.01612
262.71 16.1994 1.04853
252.042 15.6607 1.02249
247.945 15.8181 1.05672
249.721 16.2445 1.11084
250.997 16.5393 1.13678
251.501 16.8798 1.17801
244.839 16.6686 1.18179
240.411 16.5757 1.19898
241.292 16.9988 1.24488
242.08 17.3739 1.2961
243.907 17.7769 1.35149
237.848 17.5814 1.35525
233.268 17.5342 1.37529
235.717 17.9527 1.42113
229.725 17.6397 1.41024
231.238 18.0971 1.4691
236.451 18.978 1.57704
229.939 18.7273 1.57618
228.919 18.8417 1.60358
226.247 18.882 1.62997
225.241 19.0728 1.67238
223.44 19.2509 1.71374
221.781 19.3869 1.75654
219.529 19.4924 1.79243
216.142 19.3738 1.80142
219.79 19.9888 1.87131
214.209 19.7729 1.89085
213.216 19.8989 1.91509
214.462 20.5562 2.02795
219.155 21.0516 2.0983
210.515 20.538 2.05732
200.547 19.8684 2.02273
207.582 20.9315 2.16974
205.743 21.0357 2.21209
202.771 20.8944 2.20163
213.172 22.4837 2.43402
210.306 22.1947 2.41712
202.734 21.7959 2.39386
201.799 22.1637 2.49086
199.749 22.0317 2.48756
200.565 22.4625 2.58544
208.734 23.5068 2.73072
195.706 22.5596 2.65645
196.803 22.8419 2.70755
199.125 23.5183 2.82823
192.757 22.9294 2.80607
196.038 23.667 2.93779
188.962 22.9734 2.86212
195.451 24.1105 3.05366
194.652 24.367 3.1111
189.156 23.9513 3.10361
183.063 23.4365 3.07416
189.426 24.5346 3.24145
186.05 24.5434 3.31136
185.709 24.5081 3.30943
185.786 24.982 3.41396
181.491 24.7082 3.43083
184.305 25.3071 3.53096
178.857 24.8905 3.53095
180.39 25.1964 3.61616
183.043 26.1235 3.77937
176.582 25.3591 3.7141
176.21 25.6466 3.83082
178.446 26.3141 3.9398
175.495 26.1679 3.97371
171.455 25.7567 3.94656
173.664 26.3818 4.09533
170.415 25.9901 4.0533
174.054 26.9633 4.25621
166.904 26.2188 4.19881
169.81 27.0059 4.38288
171.087 27.4366 4.47838
168.638 27.4883 4.55325
170.935 27.8837 4.64917
167.436 27.727 4.67931
163.198 27.3065 4.66314
166.002 28.4349 4.96172
188.007 32.134 5.53221
161.436 27.8213 4.87107
158.912 27.7812 4.94065
160.306 28.3506 5.08373
158.099 28.0696 5.0714
158.216 28.372 5.15111
155.743 28.4963 5.27921
155.415 28.4315 5.30179
155.243 28.7695 5.43
154.865 29.0794 5.54371
152.973 28.9247 5.58333
149.67 28.5391 5.52884
156.692 30.0132 5.81539
147.776 28.8176 5.71906
150.949 29.5766 5.91586
151.914 30.0377 6.05126
149.086 29.8328 6.06307
145.614 29.4856 6.05874
146.331 29.756 6.1349
148.96 30.8749 6.47215
143.65 29.7777 6.28635
146.285 30.8341 6.57778
142.567 30.218 6.50678
144.463 31.0092 6.76512
145.477 31.2042 6.79506
140.769 30.7483 6.80539
138.511 30.4327 6.78327
138.705 30.8657 6.95113
139.761 31.2702 7.10732
134.474 30.3508 6.94787
139.977 31.7502 7.30901
136.556 31.4503 7.3279
135.802 31.5189 7.41257
134.082 31.24 7.38315
133.427 31.6513 7.59447
131.725 31.0762 7.47953
134.986 32.5607 7.95744
135.282 32.7056 8.00997
131.199 31.911 7.85864
129.879 31.8531 7.93974
130.518 32.5316 8.18093
130.917 32.8861 8.38072
128.619 32.4673 8.32414
130.276 33.2952 8.6278
126.311 32.2902 8.36423
126.659 32.9314 8.67049
125.49 32.7099 8.61788
128.594 33.893 9.03284
130.582 34.6971 9.31135
124.521 33.2056 8.97758
123.983 33.5644 9.20799
121.14 33.023 9.12683
122.554 33.4379 9.251
122.947 33.963 9.50219
122.206 34.2018 9.67867
120.025 33.636 9.57711
122.054 34.4061 9.8167
120.636 34.4658 9.94568
120.024 34.7046 10.1281
119.217 34.5721 10.1502
115.477 33.7912 10.0378
119.664 35.0843 10.4436
114.493 33.8311 10.1433
117.075 34.9532 10.5504
115.441 34.7076 10.5556
114.807 34.8412 10.7224
114.143 34.7834 10.7425
113.975 35.4393 11.0767
112.339 34.8994 10.9718
112.774 35.1563 11.1078
112.434 35.3723 11.2578
107.756 34.5249 11.1816
110.993 35.3985 11.4517
110.718 35.5633 11.564
109.886 35.4351 11.5706
107.242 35.1595 11.6553
106.352 35.2028 11.8176
110.214 36.0359 12.02
108.784 36.4575 12.4074
110.608 36.8581 12.3976
105.939 35.9629 12.3619
106.789 36.4141 12.5409
105.818 36.3284 12.6179
101.304 35.0498 12.3627
105.158 36.6406 12.8994
102.304 35.7339 12.6605
101.788 35.7485 12.7196
103.622 37.2153 13.4214
100.52 36.0411 13.0725
98.2772 35.3334 12.9358
103.034 37.4174 13.7373
99.4349 36.454 13.4776
98.291 36.198 13.5604
99.1309 36.7451 13.7965
99.9209 37.4497 14.1544
97.72 36.9492 14.2393
116.28 43.7113 16.404
94.8756 36.0091 13.8832
95.6931 36.7751 14.2865
92.238 35.6135 13.9078
95.528 37.1454 14.6463
98.3195 38.2916 15.0141
92.1254 36.4221 14.5908
92.692 37.1369 14.9882
92.0878 36.666 14.8266
93.631 37.5322 15.175
92.2997 37.2877 15.196
92.5865 37.7576 15.5516
91.083 37.3715 15.4382
92.5269 38.3162 16.0162
91.6145 37.5446 15.5909
92.1598 38.5888 16.2934
91.7427 38.7563 16.4877
89.0127 37.6784 16.1363
88.1982 37.4191 16.1215
87.0713 37.2297 16.1383
87.0648 37.3444 16.1962
88.9156 38.7988 17.0312
88.355 38.4627 16.9534
86.0088 37.7791 16.8509
89.2308 39.3345 17.5112
85.9072 38.35 17.183
85.1887 38.5581 17.6099
84.4082 37.5802 17.0603
85.2439 38.6702 17.7286
85.1124 38.6544 17.7146
83.458 38.2335 17.7354
82.7235 38.1178 17.6939
81.1298 37.6851 17.6785
83.6107 38.9574 18.305
81.7916 38.4837 18.3026
83.7406 39.5004 18.7964
80.7985 38.2634 18.3067
79.6907 38.2822 18.4985
80.6016 38.8334 18.9197
79.2934 38.4374 18.8752
80.6275 39.1777 19.2052
78.6711 38.259 18.8993
78.5044 38.5467 19.0828
76.4701 38.0205 19.086
78.1641 38.5451 19.2716
78.0991 39.2768 19.9717
76.4196 38.0174 19.2676
76.796 38.9426 19.9757
77.727 39.6736 20.3963
76.5288 38.9912 20.1092
76.3341 39.2767 20.3545
75.3608 39.142 20.5141
76.4182 40.0006 21.0299
74.9302 39.1665 20.7866
74.6668 39.2576 20.9021
75.9301 40.1169 21.3546
70.561 37.6424 20.3613
72.2735 38.2571 20.5359
74.9289 40.66 22.1031
72.592 39.3488 21.5695
70.3518 38.527 21.3665
72.9099 39.7884 22.0112
71.3235 39.1624 21.8184
70.9579 38.7478 21.4492
72.1734 40.3274 22.7064
71.8848 40.0086 22.4768
70.1934 39.3417 22.1977
69.2553 39.465 22.5489
67.0446 38.2138 22.0797
69.8399 39.7907 22.9127
68.1182 39.504 22.9648
67.0702 38.6508 22.5851
67.6429 39.1281 22.9394
67.7358 39.4378 23.1858
67.9709 39.7346 23.5113
66.2649 39.0165 23.0956
64.7292 38.6517 23.3408
66.0093 39.1284 23.411
65.5971 39.3884 23.8111
63.6989 38.5766 23.6594
64.423 38.8407 23.7212
65.1798 39.4607 24.1653
64.5596 39.5483 24.4598
65.2572 39.9633 24.6699
62.6167 38.6808 24.1872
63.6331 39.7224 24.9769
63.7697 40.2924 25.7106
64.8428 40.5775 25.7714
63.5136 39.979 25.378
61.9599 39.3273 25.2242
61.2304 38.9828 25.1124
60.9601 38.8164 24.9627
61.5427 39.7484 25.9693
61.0332 39.4658 25.7741
57.9907 37.7622 25.0235
61.8715 40.4382 26.9981
69.2987 45.2921 29.5058
59.8273 39.1055 25.9134
60.3161 40.0082 26.8186
59.2633 39.2776 26.3538
61.6881 41.0603 27.3734
57.8824 39.1224 26.7254
58.9874 39.9553 27.3183
60.3358 41.1996 28.269
57.7828 39.5597 27.4841
58.5906 39.5624 26.9718
57.7632 40.0708 28.1231
58.8343 40.1573 27.8335
58.7475 40.868 28.5441
56.7571 39.5984 27.8485
55.6258 38.9623 27.5995
55.8725 39.5643 28.1582
55.5449 39.5265 28.4887
55.4524 39.4069 28.3614
56.6551 40.3397 28.8581
54.1336 39.0321 28.4511
54.64 39.5365 28.9001
54.8577 39.8089 29.1979
54.5398 39.5387 29.0691
55.037 39.9313 29.3364
54.8068 40.4081 29.9906
53.6514 39.7133 29.7262
53.7737 39.3679 29.2016
54.1218 40.3505 30.1094
51.8547 39.2939 30.1595
53.3152 39.9213 30.1581
51.2856 39.092 30.1202
51.4619 38.8139 29.6469
51.1293 39.1358 30.3236
51.8727 39.3451 30.3801
50.6296 38.5468 29.7931
50.6272 39.4194 30.9857
52.6787 40.7406 31.7994
52.3106 40.4606 31.5542
50.8745 39.7624 31.3749
50.2721 39.4869 31.3333
50.3569 39.5926 31.4218
50.7354 40.3721 32.399
50.2288 39.8268 31.8664
49.607 39.9009 32.2609
49.1814 39.9113 32.6389
49.9821 39.8927 32.2131
49.1612 39.8621 32.6721
48.0182 38.9816 32.0521
49.2766 40.3103 33.2426
47.2894 38.6211 31.9898
47.6816 38.9984 32.2645
47.9418 39.8764 33.4256
47.8352 39.4498 32.8807
47.1428 39.5416 33.4395
47.7201 39.6636 33.3494
46.4254 39.3674 33.4839
45.9359 38.9741 33.5404
47.9997 40.4937 34.3132
44.8969 38.5245 33.3511
45.7049 39.2842 34.176
46.4919 40.0125 34.8385
46.4245 39.7694 34.3771
46.2097 40.2649 35.1982
45.9194 40.2604 35.4901
45.1385 39.3414 34.8205
46.3716 40.3738 35.4024
45.2035 39.8635 35.4104
44.5089 39.7356 35.7784
45.0743 39.8596 35.6155
44.4384 39.8096 36.0453
43.2766 38.6447 35.0213
43.8497 39.5549 35.8691
43.1155 38.8459 35.5531
44.432 40.0069 36.2763
44.1541 40.4113 37.1976
42.8305 39.0037 36.0509
43.6788 40.067 37.1429
44.1762 40.6268 37.658
42.6371 39.2275 36.5213
42.439 39.4547 37.0676
43.2305 40.5346 38.2931
42.7342 39.3204 36.5086
41.6635 39.3657 37.4661
41.8131 39.7748 38.1903
41.7949 39.3674 37.775
42.5991 40.0383 38.0036
41.3234 39.5022 37.9566
41.0218 39.4472 38.2039
40.6595 38.8922 37.7252
40.1321 39.0705 38.3595
40.382 38.7497 37.8697
40.6412 39.5534 38.7373
40.0459 39.0889 38.5118
39.1882 38.4072 38.1711
40.5366 39.8119 39.2298
38.5717 38.3077 38.9368
44.1985 43.4731 42.251
40.0856 40.1944 40.4537
37.9738 38.2301 39.0322
39.5472 39.505 40.0683
39.8954 40.5099 41.3473
39.2227 39.2805 39.977
38.686 38.8089 39.4966
38.353 39.0057 39.9024
37.7663 38.7782 40.312
38.5128 39.4958 41.0518
37.6769 38.5046 39.9076
37.5777 38.8371 40.6825
38.6029 39.9367 41.6485
37.4882 38.8005 40.4691
37.2777 39.002 41.1412
36.7211 38.4543 40.7454
37.5222 39.4454 41.7942
35.7338 37.9558 41.2055
37.2791 38.7769 41.1053
36.0154 38.292 41.2368
36.0413 38.2921 41.3983
36.2646 38.6492 41.5728
35.8516 38.7861 42.4848
36.2222 38.5099 41.7616
36.1593 38.8469 42.2148
36.4571 39.7582 43.4965
35.5729 38.3745 41.9047
35.2107 38.671 43.0224
35.9079 39.4258 43.5972
35.2922 39.0359 43.2556
34.9856 38.795 43.4529
35.3248 39.2061 43.8241
34.9852 38.8967 43.8287
34.2478 38.1068 43.0914
34.6998 38.9265 43.9722
34.6581 39.2644 44.9765
34.261 38.0227 43.0007
33.9327 38.0206 43.0934
33.7038 38.4376 43.9055
32.8076 37.3154 42.7392
32.8347 37.9317 44.2829
34.0303 38.8496 44.6534
32.8672 37.9077 43.9965
32.0377 37.0887 43.4381
32.2313 37.4818 44.2192
32.4946 37.4752 43.8894
32.5047 37.6491 44.2243
31.7123 37.0759 43.8068
32.2472 38.3206 45.3841
31.9258 37.7401 44.8737
30.8124 36.5413 44.3202
31.8522 37.9049 45.6241
31.6169 37.4281 45.0673
31.6265 37.5465 45.048
30.9468 37.2663 45.2929
31.1976 37.7525 46.2437
31.8854 38.5537 47.0262
31.4529 38.026 46.7665
31.589 38.2401 47.2826
31.9132 38.5753 47.125
31.0999 37.7277 46.4484
30.4348 37.1712 46.1112
30.7682 37.4645 46.0432
29.9058 37.0657 46.0153
30.0132 37.3541 46.9048
30.8432 38.6845 48.7207
29.8349 36.6362 45.7315
29.1384 36.5529 46.2206
29.2649 36.7666 46.6067
29.329 36.79 46.5407
29.9645 38.1159 48.4371
28.8301 36.6145 47.3429
28.919 36.4114 46.6909
29.0615 36.9649 47.3838
29.2458 37.566 48.4582
28.3082 36.5018 47.913
28.215 36.2499 47.4659
28.5179 36.5347 47.9653
29.2833 37.6312 48.2685
27.976 36.6283 48.5349
28.3565 36.512 47.8471
28.897 38.0233 49.7409
27.671 36.6292 49.3749
27.8703 36.1831 48.0593
28.1899 37.2317 49.4041
27.6087 36.2498 48.3819
27.4655 36.38 48.6416
27.7344 37.059 49.8067
27.3958 36.5827 49.3532
27.0708 36.1659 49.2511
27.6651 37.0873 50.2057
27.5686 37.1141 50.3472
26.9606 36.3189 49.6946
27.2616 36.7472 49.7062
26.3858 36.5965 51.2932
27.4782 37.705 53.8477
31.5119 41.7387 54.6124
26.7015 36.7207 50.8267
26.6011 36.7686 51.0952
26.676 37.3678 52.588
26.8919 37.2515 52.6536
27.2209 37.6117 52.19
25.1628 34.9512 49.6368
25.678 36.0194 50.7692
24.9853 35.0328 50.231
25.6355 35.8779 51.3406
25.6755 35.4788 49.9961
25.6661 36.2683 51.7948
26.1585 37.4554 53.8348
25.7474 36.1485 51.6127
24.9662 35.481 51.399
25.0302 35.213 50.5495
25.2369 36.42 52.5543
24.3731 34.7831 50.4545
24.6086 35.4917 51.7775
25.2602 36.5125 52.8974
24.8878 36.5268 53.4749
24.3822 35.3418 52.2516
24.4454 35.6048 52.5533
24.5146 35.7565 52.7267
24.1938 35.6927 53.118
23.6307 34.438 51.3221
24.1898 35.4275 52.4041
23.5525 35.1279 53.1709
24.1912 35.6407 53.4499
24.2646 36.0582 54.1224
23.7852 35.1931 52.7437
23.3636 34.7924 52.3852
23.1617 35.0707 53.6282
23.3355 34.7877 53.0074
23.7378 35.9445 54.8132
23.4756 35.3322 54.0141
22.9629 34.4839 52.6577
23.1803 35.225 54.0946
22.7117 34.1773 51.9526
22.4759 34.9009 54.4258
22.6104 34.416 53.017
22.5391 34.6633 53.3618
21.8257 34.207 54.464
22.5873 34.2619 52.8921
21.9768 34.5584 54.9294
22.9052 35.4901 55.5157
22.2112 34.6847 55.0572
22.6402 35.4203 55.9011
22.4032 34.9071 55.3176
22.3291 34.9451 55.0407
21.9499 34.4508 54.8444
22.052 34.8565 55.1388
21.5575 34.3894 55.6165
21.8257 34.3787 54.6569
21.3632 33.9473 54.3206
20.9869 34.119 56.2141
21.4114 33.7916 54.2521
20.533 32.9577 54.1118
21.0372 33.821 54.87
21.4116 34.4126 55.5843
21.3364 35.1613 58.5289
21.9866 35.2176 57.1271
21.2414 34.3577 56.3443
20.894 34.4249 57.855
21.5111 34.5709 56.7822
21.1034 34.3278 56.5403
20.8824 34.4312 56.916
20.7224 34.1648 57.1738
20.7898 34.31 57.051
20.3745 33.6005 56.4038
20.4227 33.7348 56.03
19.9427 33.2971 56.2344
20.1127 33.7483 57.0939
20.168 33.5544 56.2181
19.7705 33.5905 57.3381
19.8313 33.2708 57.0777
20.1438 34.0077 58.2041
19.9037 33.4245 57.541
20.1958 33.9976 58.2249
20.2397 33.6066 56.6779
19.6778 33.6877 58.1074
19.182 32.2706 55.4357
19.8887 35.0471 61.3885
19.894 33.6953 58.0622
19.3764 33.1834 57.8967
19.2639 32.8306 56.5542
18.9662 32.7648 57.1706
19.1481 33.2655 58.2482
18.8731 32.8006 57.7675
18.974 32.7892 57.5429
19.258 33.7529 59.8073
19.2559 33.6816 59.4233
18.7987 33.0263 59.1132
18.9799 33.1691 58.8394
19.0509 33.6643 59.9463
18.6199 33.414 63.1355
21.9746 37.6521 63.3293
18.7696 33.5857 59.8506
17.9861 32.233 58.6188
18.2524 32.6987 59.3634
18.1939 32.4791 59.0138
18.1174 31.935 57.3771
18.0935 33.0461 60.5461
18.3699 32.8873 59.3608
17.8518 32.6871 60.2738
18.0917 32.4994 59.4343
18.1057 32.5027 59.4607
17.9509 32.2731 58.1302
17.0657 31.3865 58.4518
17.3062 31.2428 57.967
17.724 32.7472 60.5954
17.6927 32.2697 59.1836
17.0312 31.5179 58.8677
17.1632 31.9939 60.3032
17.4329 31.9425 59.707
17.2271 31.678 59.3704
17.2586 31.9464 59.0119
16.5735 31.5004 60.577
17.2496 31.9144 60.7832
17.3988 32.0331 60.0896
17.3042 32.749 62.0152
17.111 31.8577 60.2551
16.7426 31.2881 59.3038
16.4781 31.2611 60.5251
16.9809 31.447 59.1475
16.6092 31.6498 60.4681
16.6171 31.5981 61.052
17.0112 32.6321 62.5856
16.7819 31.9069 61.3661
16.4957 31.5544 60.9349
16.3322 31.3087 60.2325
15.9116 30.8366 60.7277
16.1804 30.8181 60.0721
16.0595 30.9927 60.453
16.1908 31.4367 61.333
15.7119 30.2952 60.2851
16.3289 31.7292 61.3745
15.9276 31.0828 61.3884
16.0694 31.3267 61.7493
15.9992 31.2607 62.0175
16.3131 31.5061 61.5076
15.8273 31.2921 62.0838
15.6968 30.7589 61.2528
15.6922 31.2399 63.4023
16.3211 31.9665 63.0802
15.4512 30.5314 61.8762
15.9122 31.4416 62.6634
15.5799 30.7094 61.1517
15.2582 30.5663 61.3007
14.898 29.7058 60.5988
15.553 31.1656 62.5956
15.2849 30.6845 61.8166
15.136 30.6267 62.3948
15.0446 30.5318 62.3206
15.1303 31.0859 64.2736
15.1884 30.3889 62.0618
14.9172 30.0848 61.2001
14.5337 29.8096 62.1928
14.813 30.0179 62.069
14.9858 30.2932 62.1668
14.898 30.7701 63.35
14.4811 29.306 60.8117
14.4927 29.9287 62.4698
14.5228 29.9869 63.353
14.9085 30.5626 63.6879
14.6383 29.7341 61.8107
14.4072 29.6616 61.9055
14.3959 29.8663 62.4073
14.2295 29.5236 61.7112
14.1015 29.407 61.7783
14.1403 30.0718 64.3183
14.3464 29.7008 62.4959
13.9796 29.4955 62.7481
14.0298 29.3678 62.5853
14.277 30.395 64.6101
13.7688 28.5482 61.0523
13.8059 29.5201 63.2209
13.8209 29.0573 62.4852
13.8237 29.441 63.7191
14.1628 30.2414 64.4801
13.5767 28.4775 61.482
13.8566 29.9377 64.16
13.5441 28.7019 62.1292
13.4523 28.817 61.7303
13.0606 28.6069 64.1617
13.7556 29.161 62.9076
13.4037 29.1335 64.3833
13.6748 29.2644 63.2928
12.9751 27.856 61.7592
13.4607 29.3775 64.1833
13.372 29.0025 63.3916
13.0441 29.0151 68.2222
15.4449 32.7322 67.7822
13.3082 29.0252 63.9234
13.2365 29.0871 64.1076
12.9278 28.2239 62.7333
12.8843 28.4516 63.429
13.042 28.6961 63.317
12.796 28.5111 64.1966
12.8247 27.9141 62.0411
12.7963 28.7593 64.4374
12.8232 28.5997 65.1395
13.0095 28.7047 64.4472
12.9764 29.0528 65.079
12.5412 28.1309 64.8159
12.8371 28.2412 63.3471
12.4971 28.0062 63.4893
12.6587 28.97 66.7954
12.7164 27.8292 63.2877
12.6221 28.3732 64.0141
12.3158 27.8289 64.009
12.2942 27.5854 63.2662
12.5219 28.5627 65.5271
12.631 28.6201 64.628
11.8766 27.2201 63.5127
12.1544 27.7419 64.8655
12.3191 27.701 63.8322
12.3062 28.1092 64.3459
12.3316 28.5451 65.8508
12.2172 28.3328 65.4301
12.0134 27.9841 66.0196
12.0536 27.731 65.8388
12.3198 28.0788 65.2146
12.1272 27.961 65.7725
12.0099 27.5144 64.3418
11.92 27.6165 65.0947
12.0723 28.0894 65.7991
11.8052 26.8148 62.0051
11.2985 26.9961 65.0538
11.8201 27.5938 65.632
11.9702 27.8117 64.5967
11.5004 26.9747 64.8484
11.4939 26.7073 63.8766
11.625 27.8439 66.6422
11.4819 26.4683 62.79
11.3923 27.5892 66.9834
11.5316 26.8073 64.3953
11.6193 27.4852 65.5962
11.4815 26.8868 63.6986
11.1584 26.8848 65.3097
11.4469 27.4998 66.5126
11.2771 26.5525 63.5965
10.8919 26.0417 63.6218
11.2165 27.3684 66.7453
11.4609 27.3858 66.2286
11.1992 26.978 66.2803
11.2639 26.9444 65.527
11.1592 27.0333 66.1425
11.0528 26.7911 66.0566
11.1821 26.9293 66.0643
11.1251 26.7745 65.3698
11.0947 27.2316 66.784
11.1974 27.3536 67.7429
11.0555 26.4648 64.4425
10.8856 27.0664 67.3659
10.9048 26.5572 66.9804
11.0985 26.9952 66.2082
10.8323 26.9012 67.2995
10.901 26.9655 67.3692
10.7298 26.3017 66.6845
11.0007 26.7663 66.6678
10.9492 27.0921 67.6823
10.818 26.4002 66.4708
10.9853 26.98 66.4548
10.6237 26.5654 67.0055
10.8412 27.029 67.0743
10.4329 26.1523 66.7359
10.7174 26.9495 67.422
10.377 26.1107 67.9078
10.7826 26.7549 67.7246
10.8019 26.7663 65.6194
10.1381 26.5079 69.0298
10.2088 24.9336 64.0381
10.1485 25.817 66.6645
10.3895 26.2917 67.4835
10.2482 25.5766 66.1114
10.2889 25.8296 67.0324
10.5859 26.6577 67.0375
10.1359 25.4199 64.8594
10.0072 25.7432 66.5547
10.0216 25.6176 67.2615
10.2805 25.8739 66.6573
10.1941 26.0739 66.8115
10.0036 25.9484 68.2394
10.3358 26.439 68.5759
10.0101 25.3941 66.2731
10.1886 26.6298 68.6723
10.002 26.7548 75.7895
11.856 29.4039 71.9586
10.2529 26.6808 70.2985
10.3189 26.8202 70.3325
10.104 25.9133 68.5805
10.2705 26.346 68.5128
10.0597 26.2508 69.241
9.98613 25.7726 67.4375
9.73651 25.1201 65.6397
9.55278 25.2546 68.206
9.91407 26.0336 68.3371
9.69753 25.101 65.6389
9.37608 24.7809 66.5832
9.5705 25.3149 67.6352
9.47936 24.9154 67.2199
9.51818 24.7504 65.9402
9.43202 25.071 67.5954
9.50166 24.8725 66.7165
9.44158 24.8251 66.4875
9.38486 24.8254 66.6531
9.36494 24.9614 68.04
9.63406 25.748 69.0263
9.44168 24.9341 67.7405
9.48463 25.3303 67.4637
9.08651 24.2704 66.9731
9.36754 25.0782 68.0432
9.30003 24.6406 66.8188
9.09434 24.1909 65.698
9.10602 24.4512 66.2811
9.01791 24.6596 67.1662
8.89379 23.7005 65.5241
8.98378 24.4204 67.7356
9.13385 24.4753 66.9642
9.048 24.1557 65.3573
8.77748 24.1003 67.0822
8.91508 23.6701 65.243
8.89983 24.3122 66.4875
8.90001 24.4001 66.9485
8.77922 24.2324 68.1795
8.964 24.2506 67.9562
8.95965 24.1342 66.8624
9.00341 24.7575 67.881
8.79894 24.0916 66.5687
8.58965 23.496 66.3395
8.80308 24.3164 67.1642
8.5238 23.4521 67.7387
9.0445 24.4704 67.0716
8.69106 24.0239 66.3894
8.50546 23.9604 68.615
8.68536 23.2996 65.7078
8.74177 24.3749 67.4057
8.52443 23.4747 65.4173
8.34588 23.4578 66.7838
8.47146 23.2546 65.1502
8.3114 23.4406 67.3332
8.56953 23.7827 67.5078
8.49256 23.6724 66.9087
8.50538 24.0421 68.3499
8.38857 23.1636 66.0113
8.39219 23.8148 68.3004
8.53173 23.7739 67.3874
8.28041 23.1583 66.9415
8.4114 23.5731 66.6851
8.3773 23.8235 68.3837
8.38428 23.4329 66.448
8.15928 23.029 66.643
8.22635 23.5733 67.7157
8.11758 22.9848 66.7493
8.21321 23.4344 67.8051
8.36465 23.6737 66.5097
8.0287 23.4205 68.9571
8.26722 23.2633 66.988
8.09732 23.3316 67.9237
8.10205 23.1078 66.7689
8.01405 23.2762 68.2334
8.04337 22.673 66.7428
8.10987 23.1654 67.1831
7.94052 22.865 67.4962
8.09154 23.2957 68.1828
8.0955 23.4484 69.4792
8.1606 22.9094 66.6802
7.95407 23.0068 66.787
7.8199 22.8382 67.3685
7.84883 22.5748 66.5198
7.87977 22.8627 68.5485
7.95826 22.6194 65.6432
7.82193 23.1992 67.955
7.69827 22.1915 66.285
7.83743 23.2993 68.5476
7.70395 22.1238 66.0283
7.6251 22.2136 66.305
7.84622 23.6149 70.1614
7.81317 22.5498 68.436
7.881 22.8472 67.2343
7.64262 22.1335 65.4197
7.57108 22.9001 68.855
7.51875 22.5403 74.3295
8.94558 25.1238 69.0127
7.52964 22.4566 67.7303
7.64884 22.5362 67.6921
7.68348 22.628 67.0777
7.45299 21.9883 66.4448
7.49892 22.2887 66.2038
7.41029 22.2866 66.7381
7.3115 21.7788 67.2656
7.36983 21.2314 64.6102
7.38344 22.0196 65.8967
7.34566 22.152 67.287
7.42907 22.4746 68.7947
7.55123 22.5029 67.548
7.29432 21.6719 66.5225
7.31284 21.726 66.189
7.31354 22.1371 68.0347
7.42555 21.8857 66.0597
7.17973 21.8538 66.9289
7.18704 21.376 65.3173
7.16167 21.7319 66.3925
7.16936 21.8777 67.0539
7.15014 21.7218 67.6209
7.32073 22.1277 66.5902
7.01739 21.4662 67.2215
7.09089 21.2523 66.0539
7.13032 21.7057 66.2086
7.02052 21.5556 67.3349
7.1805 22.0009 68.15
7.07596 21.1241 64.4879
6.87318 21.1537 64.8039
6.7486 20.9279 65.422
6.7943 20.7804 66.9202
7.0653 21.1454 66.267
7.07174 21.3828 65.4703
6.77632 21.0252 67.4358
7.11601 21.8022 68.1942
7.08736 21.7022 67.6588
6.98826 21.5809 67.7156
6.99325 21.1526 65.9009
6.81401 21.1149 67.2085
6.96095 21.252 66.9023
6.97797 21.5791 67.6906
6.98108 21.4145 66.1726
6.66236 20.6341 66.8857
6.96465 21.3752 65.5219
6.58463 20.8378 67.3857
6.85591 21.261 67.1788
6.84288 21.1971 66.6624
6.65025 20.5528 66.2447
6.78075 21.0645 66.2927
6.74189 21.1661 66.2448
6.57768 20.5783 66.8941
6.7755 21.0415 66.6676
6.69456 21.1224 67.6032
6.72025 20.8239 65.2459
6.50293 20.8939 67.6783
6.71184 20.7879 64.6112
6.3729 20.5843 66.2536
6.43943 20.2803 66.3984
6.51139 20.5764 67.4437
6.67689 20.7172 65.0202
6.35156 20.3126 67.5236
6.66994 20.6982 66.5658
6.52051 20.5597 66.7063
6.59646 20.9597 67.604
6.54014 20.0916 63.8034
6.40181 20.8054 66.6163
6.4828 20.7731 66.2955
6.30724 19.869 65.0992
6.38649 20.3538 65.1742
6.23224 20.0219 65.569
6.33386 20.2185 65.1913
6.21515 19.9975 65.4865
6.32629 20.6409 67.5988
6.38374 20.1656 64.7683
6.11803 19.7073 65.9246
6.2617 19.6644 65.3611
6.30041 20.0946 65.6768
6.31839 20.4007 65.881
6.21731 19.9019 65.1772
6.21744 20.1475 65.4531
6.13259 20.017 66.552
6.29298 20.1041 65.4884
6.15375 19.7248 64.9848
6.18578 20.183 65.2512
6.07266 20.0931 66.7714
6.11722 19.7069 67.0429
6.37209 20.4323 65.601
6.02188 19.5751 66.0162
6.07915 19.4332 64.7307
6.03448 19.5415 64.4934
5.9976 19.6274 65.5151
5.99443 19.5424 65.7831
6.06843 19.6297 66.4817
6.1993 20.1073 66.0822
6.05406 20.402 73.9542
7.08439 22.4261 67.2138
5.95597 19.7298 65.2631
5.8862 19.6463 67.9791
6.24973 19.8974 64.9821
5.91044 19.586 66.1249
6.02797 19.8272 65.6292
5.86294 19.1201 63.2951
5.66236 18.6948 63.1415
5.72371 19.0345 65.2637
5.92198 19.2706 64.879
5.85672 19.1888 63.5225
5.75708 19.213 64.4535
5.77681 19.1908 64.6876
5.79276 19.3088 64.3654
5.68861 18.8412 64.9725
5.80611 19.025 64.7392
5.80833 19.38 65.4607
5.82829 19.4405 65.7436
5.76043 18.8946 64.2187
5.75724 19.0613 65.2382
5.86702 19.5997 64.9882
5.6921 19.0656 65.9093
5.80747 19.1095 64.9738
5.76215 19.1796 64.5421
5.7241 19.431 66.3885
5.76311 18.9345 65.2011
5.75952 19.5312 64.641
5.53629 18.6605 64.0618
5.61285 19.2657 65.8944
5.60515 18.6977 65.0738
5.65572 18.7938 64.4293
5.52746 18.8169 65.6135
5.67568 18.9196 64.7771
5.58305 18.7809 64.2861
5.5829 18.8686 65.3747
5.59548 18.577 63.1642
5.4364 18.7654 66.5521
5.66354 18.6631 64.0761
5.57101 19.014 65.8514
5.64477 18.8724 64.2086
5.45802 18.7925 65.6518
5.58291 18.6933 63.6405
5.39236 18.283 63.8277
5.3981 18.2554 64.3435
5.46914 18.3409 64.0625
5.48352 18.7698 64.3864
5.45682 18.7804 64.5455
5.41643 18.3901 64.2505
5.3537 17.9879 63.7329
5.43706 18.8816 65.0093
5.41553 18.7291 65.4966
5.47629 18.4426 65.2257
5.50348 18.9203 65.5373
5.45036 18.6013 63.9324
5.33802 18.6305 64.5458
5.29938 18.1421 64.4337
5.31637 17.8042 62.9318
5.30891 18.4974 64.5941
5.3756 18.451 65.5027
5.4487 18.6827 65.7114
5.42196 18.4363 64.5233
5.38196 18.7831 65.2216
5.32473 18.1735 64.102
5.28048 18.5934 66.039
5.3504 17.705 62.727
5.19971 18.3757 64.3024
5.25422 18.1857 64.2168
5.17297 17.6946 63.5903
5.2834 18.1733 63.6717
5.17491 18.3397 65.1644
5.25364 17.9296 64.4913
5.2837 18.4463 64.3565
5.21339 18.0643 63.1857
5.16566 18.3509 64.9298
5.26401 18.72 66.246
5.23868 17.8273 64.2206
5.20729 18.1789 63.3245
5.04107 17.8748 64.996
5.20676 17.9544 64.2561
5.16897 18.1783 64.7824
5.21856 18.4593 64.8659
5.10631 17.8643 65.1846
5.21601 18.3129 65.5542
5.15156 17.7956 63.7422
5.07058 17.9979 65.8215
5.24528 18.3059 66.1103
5.25801 18.2553 64.8325
5.20659 18.5827 66.239
5.17095 18.0155 65.6339
5.18823 18.1179 65.4541
5.17754 17.862 62.9971
4.9937 17.6511 63.2834
4.99377 18.0166 66.0155
5.19071 18.3641 67.2289
5.28156 18.5794 67.0201
5.26653 19.3495 75.6331
5.97185 19.7177 67.2915
5.26091 18.8482 67.6941
5.24791 18.1083 64.1768
5.018 18.1219 64.3766
4.97178 18.1892 66.9417
5.18287 17.814 65.0919
5.11085 18.2036 65.2482
5.04849 18.3036 65.54
5.02926 17.7879 65.6626
5.10658 18.0974 64.6351
4.98808 17.8494 65.0176
4.98767 17.745 65.2752
5.02045 17.4285 63.5341
4.92091 17.8881 64.8367
4.94111 17.4451 65.187
5.04734 17.7329 62.8808
4.83413 17.3404 63.7637
4.94483 17.8049 64.3933
4.89306 17.3503 64.1972
4.944 17.7246 63.0573
4.75061 17.4453 64.7334
4.91269 17.3066 62.9522
4.81963 17.6114 64.813
4.90629 17.5295 63.4173
4.75506 17.0261 63.7893
4.87215 17.5371 63.5288
4.77719 17.0969 62.9824
4.74573 17.0491 62.3532
4.68327 16.9224 62.7437
4.70716 16.9249 62.7466
4.7349 17.1254 62.8963
4.73177 17.3014 63.3355
4.7035 16.9032 62.489
4.65836 16.6281 63.3538
4.83454 17.3853 63.2188
4.7411 17.3145 63.5603
4.72219 17.1858 62.5423
4.60738 16.8634 63.5474
4.73188 16.9836 63.2682
4.68764 16.929 62.9013
4.68768 17.0279 63.1204
4.6828 16.9144 61.9427
4.5858 16.8451 63.1974
4.68078 16.8392 61.9785
4.61437 17.0102 63.8539
4.70927 17.104 62.2125
4.53408 16.3253 62.0391
4.59276 16.6279 61.8274
4.57335 16.7108 62.4957
4.6287 16.7783 63.3828
4.69178 17.3534 63.4241
4.64251 17.2141 63.3323
4.5781 16.8237 62.8832
4.60134 16.9543 64.4579
4.72974 16.9319 62.4058
4.56662 16.7978 63.7127
4.6962 16.9389 61.9822
4.50271 16.6942 63.3775
4.58977 16.8275 64.4499
4.69361 17.0154 63.4727
4.62005 16.8442 62.0691
4.50763 16.9919 63.1916
4.53038 16.0553 60.944
4.43005 16.5374 63.0432
4.55493 16.3967 61.917
4.5143 16.7005 63.6573
4.59348 16.6428 61.4621
4.42977 16.4019 62.1414
4.48857 16.6343 62.7465
4.5098 16.6411 63.2356
4.55515 16.7787 62.8678
4.50927 16.7542 63.1844
4.46068 16.218 61.6417
4.47002 16.7451 62.3394
4.44457 16.256 61.0622
4.38244 16.2818 62.0381
4.40974 16.3053 62.6658
4.51135 16.7542 64.4609
4.61757 16.5769 61.8807
4.42604 16.5345 62.3111
4.42258 16.3011 61.3567
4.35673 15.9617 60.4941
4.31609 16.2433 62.4675
4.45869 16.4135 62.1002
4.40345 16.1655 60.2654
4.25656 16.2062 61.7783
4.35114 16.1109 61.7225
4.3603 16.1317 63.4526
4.51071 16.7224 62.7565
4.4138 16.4382 62.9794
4.38813 16.3117 62.4825
4.43013 16.6324 63.3339
4.45734 16.6503 62.8964
4.40857 16.3509 61.7046
4.30625 16.0789 61.6243
4.36238 17.5712 74.0071
5.18841 17.6294 60.9311
4.27004 16.2027 62.2991
4.31965 16.3394 62.7726
4.38934 16.4313 62.317
4.32191 16.3823 63.7366
4.45093 16.9504 62.2985
4.28026 15.8248 61.3795
4.26191 15.8974 62.0362
4.32031 16.1067 60.9613
4.28115 16.2541 62.9796
4.35566 16.1824 60.8111
4.23817 16.2097 63.0389
4.33601 16.0946 62.1107
4.29938 16.1398 63.088
4.34796 16.0495 61.7673
4.29427 16.1132 62.3995
4.32785 16.2792 62.0049
4.26188 15.7224 59.7559
4.12648 15.3395 58.8917
4.11089 15.9104 61.1264
4.23518 15.8761 60.7227
4.17222 15.3219 59.7981
4.11698 15.7407 61.8713
4.301 16.3734 62.9136
4.33207 16.0986 61.2316
4.22919 16.4704 62.1958
4.20977 15.9047 62.7876
4.29236 15.7104 60.8805
4.20953 16.3918 62.6976
4.25114 15.5271 60.5928
4.15716 16.0878 61.3362
4.15148 15.6128 60.8465
4.15671 15.9062 61.2546
4.16198 15.405 62.0583
4.25646 16.0314 61.837
4.22311 15.9214 61.2508
4.14753 15.9079 61.7873
4.21143 15.8487 62.1412
4.22684 15.9841 62.6495
4.26419 15.9207 59.962
4.07619 15.608 61.1074
4.16874 15.6012 59.9259
4.09844 15.7595 61.4284
4.13344 15.4566 60.4691
4.08352 15.2887 60.238
4.11368 15.6607 60.2657
4.09862 15.3912 60.6644
4.12994 15.9552 61.1686
4.11982 15.9235 61.9867
4.17904 15.6256 60.2938
4.07476 15.7909 61.0658
4.09647 15.4571 60.489
4.09227 16.0109 62.3031
4.14624 15.6049 62.4343
4.21082 15.7403 61.3331
4.10951 15.7235 62.6041
4.19675 15.9254 60.69
4.04982 15.856 62.4976
4.16346 15.6143 61.7304
4.14167 15.7992 60.2073
4.02543 15.7323 62.0544
4.13884 15.7734 62.8341
4.19022 15.6008 60.6511
4.07181 15.7405 62.2467
4.17806 15.5043 60.9239
4.04951 15.5034 61.5315
4.11103 15.6046 61.2258
4.10152 15.5913 59.6725
3.9654 15.3784 61.4778
4.12486 15.5635 61.2524
4.07836 15.479 59.3543
3.97268 15.4077 60.1776
4.03687 15.8176 63.1334
4.17291 15.8599 61.36
4.07382 15.1994 58.4745
3.87242 15.5632 62.8328
4.16796 15.705 61.5366
4.06739 15.6224 62.1578
4.11548 15.6297 61.0702
4.04981 15.4769 61.1219
4.06307 15.7377 61.1074
4.03108 15.3566 61.5291
4.0553 15.4492 59.7324
3.94847 15.2476 61.0921
4.07092 15.5633 61.9868
4.1159 15.8878 61.6763
4.06003 15.3897 59.6432
3.95207 15.4811 62.1095
4.0784 15.3639 60.0225
3.9754 15.225 59.5394
3.91379 15.0688 60.3054
3.98085 15.4004 60.8164
3.99231 15.2138 60.591
4.00463 15.2779 60.4721
3.97267 15.6305 61.3971
4.05816 17.0308 73.1039
4.74803 16.4592 59.2734
3.88305 15.3131 59.9892
3.92492 15.4396 60.4883
3.93875 15.4016 61.218
4.05086 15.5252 60.7142
3.9752 15.4855 60.8091
3.96197 15.2421 60.4658
3.95621 15.1962 60.4128
3.96184 15.2486 61.5088
4.00536 15.4953 60.3692
3.95528 15.0721 59.2134
3.86092 15.4131 61.4113
4.01141 15.4982 62.0587
4.07611 15.663 59.1491
3.84743 14.7751 60.5351
3.95535 15.6106 61.7237
4.00515 15.2321 59.5353
3.88257 15.5075 62.3814
4.03672 15.0356 59.141
3.84101 15.0524 61.1263
3.98008 15.1655 59.5611
3.89281 15.3502 59.8518
3.89515 14.9061 59.792
3.87676 15.1524 61.1506
3.97816 15.52 60.0546
3.91258 14.9893 60.8822
3.96994 15.2958 59.4138
3.86219 15.1201 60.8327
3.94309 15.207 61.383
3.98642 15.6272 62.0032
4.01458 15.6041 61.0939
3.96395 15.274 61.3113
3.95804 15.299 61.2298
3.99688 15.458 60.4459
3.8909 15.4117 60.6902
3.95764 15.4519 61.3214
3.98498 15.1709 59.3562
3.82209 14.7006 58.8948
3.81879 15.3212 62.0895
4.01495 15.6226 61.1134
3.95142 15.3496 60.1643
3.90135 15.0421 59.7137
3.84483 15.1039 60.8844
3.93944 15.1145 60.837
3.92483 15.1115 59.7525
3.86342 14.9961 60.2411
3.87826 14.866 59.9622
3.88217 15.6718 60.5306
3.89808 14.9494 60.8735
3.93894 15.4018 61.9241
4.02365 15.6536 61.4134
3.95662 15.2554 61.1601
3.93693 15.0176 60.3842
3.90872 15.2396 60.0136
3.86664 15.1123 60.6035
3.93411 15.167 58.8429
3.78019 14.7517 59.2849
3.84667 15.2358 62.0618
4.04832 15.5699 61.7886
3.97068 15.1934 62.1584
3.99979 15.6911 60.9053
3.92977 15.1814 61.2033
3.90037 15.574 61.9725
3.99244 15.1205 59.8452
3.86211 15.1609 60.7667
3.91114 15.4278 61.9418
3.96839 15.2097 61.2262
3.94153 15.1973 61.5074
3.97362 15.7723 60.4069
3.8844 15.4026 62.8601
4.04367 15.4433 61.5314
3.98193 15.3481 62.5977
4.04301 15.401 60.8052
3.93377 15.1507 61.1878
3.95052 15.5586 59.9489
3.84819 14.8247 60.0725
3.87485 15.1644 60.4555
3.90846 15.3477 60.9659
3.94852 15.3595 61.0618
3.92615 15.4244 60.3224
3.88949 15.0176 61.7485
3.98981 15.3997 62.1163
4.01204 15.7037 61.5503
3.97281 15.2563 61.606
3.97964 15.6486 62.6852
4.03433 15.3136 62.1715
3.99899 15.5319 60.5386
3.88123 15.1258 60.5688
3.88201 15.7297 63.9857
4.10226 15.6396 61.546
3.98855 15.2232 62.5586
4.02392 15.5964 61.2068
3.95447 15.9539 63.962
4.10357 15.7341 63.6824
4.08595 16.5642 64.7382
4.15196 17.3488 76.9163
4.91551 0 0