# pn-170911/RbIIR-43-RbII-1280-1959.psd
# Power spectrum* (dif=0,1,2) (really just |FT|^2)
# NOTE: only the first half! (symmetric)
# weeks: 1280-1959
# 332 clock-days, 5 excluded
# PSD: 1441
75661.9 1.26041 0.0438416
2.14441e+06 52.8567 0.0789104
3.07208e+06 54.4198 0.0824031
832865 16.7039 0.0816457
544054 16.3934 0.0913899
326421 9.737 0.0763343
233108 9.65719 0.0839308
159948 8.79616 0.0817219
135797 10.5283 0.091769
104831 8.42706 0.0820058
87349.3 12.6933 0.0941972
74045.6 7.54292 0.0784646
57346 12.33 0.0875869
53910.8 6.90804 0.0833586
47407.4 11.853 0.0959397
40998.9 8.4698 0.088708
43142.1 18.9807 0.110459
30571.6 8.19165 0.087564
34617.3 17.8263 0.114982
25245.9 8.24935 0.0951459
22364.9 18.9087 0.122851
26741.7 8.67037 0.0984041
26789.9 20.0624 0.136673
15917.7 8.85118 0.0972436
20087.6 23.9935 0.154951
13547.7 9.34761 0.100795
15890.6 23.2367 0.161636
11963.5 8.7127 0.117559
16545.4 24.7154 0.169884
10085.9 9.89877 0.123738
11015 21.0844 0.169771
9318.42 10.132 0.129424
12140.9 25.7834 0.199365
7566.84 10.8589 0.140976
11425.9 25.3128 0.203901
7420.68 9.65162 0.133851
8537.32 21.9549 0.213776
6661.65 10.6665 0.143171
7837.59 24.0527 0.237568
6148.17 10.9262 0.181479
7050.59 23.6641 0.243721
4885.41 10.8013 0.165563
6247.49 21.7424 0.245439
4361.55 10.8654 0.202653
5388.61 17.9975 0.267324
4132.27 10.9293 0.187992
5634.52 19.5393 0.278943
4487.99 11.3577 0.218891
4015 18.7981 0.280273
3656.08 10.3266 0.195022
4198.22 16.1421 0.275336
3821.73 9.83346 0.205244
3495.82 15.7752 0.290121
3156.31 10.4173 0.2382
3362.63 14.7234 0.266108
3156.91 9.12201 0.197574
3183.4 14.4338 0.297341
3086.32 9.8281 0.269222
3380.31 13.1515 0.299858
2701.33 9.77977 0.262324
2786.99 12.8886 0.297656
2814.04 10.9224 0.272833
2779.94 11.7743 0.298916
2640.74 9.29063 0.279344
2784.31 12.0821 0.336507
2426 9.68093 0.288663
2402.01 13.3374 0.398181
2564 10.517 0.325033
2129.49 10.4709 0.355706
1947.94 8.72905 0.287185
1998.67 10.5104 0.357587
1927.54 9.7018 0.341649
1829.81 10.0596 0.356552
1576.54 9.20664 0.344038
1805.53 10.7462 0.367749
1747.62 10.5947 0.401033
1814.77 10.4905 0.378206
1724.57 9.61041 0.411654
1545.91 9.34283 0.362085
1524.14 9.30707 0.401601
1414.42 10.4793 0.446973
1329.77 9.63552 0.392804
1371.67 10.7354 0.470656
1216.8 10.0056 0.455708
1305.39 11.0623 0.450778
1436.79 9.72597 0.416479
1032.27 10.2832 0.477034
1149.81 10.2338 0.491825
1109.23 10.5894 0.473484
1083.05 10.3246 0.482659
947.826 10.4577 0.472253
1217.85 9.76834 0.490106
1132.64 11.2571 0.537539
1067.02 9.99919 0.503034
1119.7 10.8868 0.551374
1138.87 11.7684 0.611406
977.6 11.1229 0.572452
1130.83 12.1278 0.591017
1062.56 12.411 0.696486
835.509 10.7828 0.607906
958.789 11.6661 0.617982
1154.55 11.0566 0.638182
932.26 11.488 0.63458
987.734 11.9616 0.654794
966.085 12.8746 0.719103
990.159 12.7182 0.692328
733.002 10.461 0.614471
935.682 11.506 0.696824
791.352 12.6136 0.738632
828.668 11.1195 0.736216
754.829 13.2395 0.862716
879.729 12.4792 0.793675
865.589 11.6303 0.758455
616.067 11.6228 0.81791
734.319 12.3746 0.838065
855.656 13.0876 0.91709
582.615 13.1377 0.919084
609.201 11.7602 0.828744
727.153 13.4747 0.976992
662.131 11.0832 0.790088
763.44 13.3324 0.981399
573.144 11.8268 0.90916
636.343 11.7937 0.928018
754.67 11.5327 0.911474
709.46 13.4669 1.05957
660.233 13.8773 1.11764
653.211 13.1367 1.03824
519.569 12.0059 0.984324
590.885 13.4607 1.13552
545.305 13.1293 1.12568
578.106 13.4533 1.19576
620.296 13.3263 1.20689
552.758 14.1365 1.34819
608.621 13.4207 1.22398
585.941 14.3291 1.32209
601.937 13.5454 1.25021
615.405 13.6418 1.30739
509.315 14.6907 1.44156
519.054 14.1743 1.29113
521.144 13.0791 1.27524
531.368 11.7119 1.18147
562.123 14.2162 1.4419
469.445 13.6719 1.44034
523.176 14.9499 1.54803
538.913 14.0553 1.49927
526.212 14.7477 1.60047
456.201 13.6254 1.43291
525.947 13.7834 1.51797
455.504 12.9134 1.40648
479.659 14.0568 1.5887
447.407 15.1927 1.68865
454.596 14.274 1.65277
471.919 15.8632 1.76561
497.896 14.9864 1.71098
465.385 15.2102 1.78517
449.01 14.0408 1.6507
384.09 15.6495 1.86022
474.713 14.9405 1.73035
415.986 14.2697 1.76843
379.284 14.5511 1.87357
394.856 15.2434 1.91023
360.958 16.0169 2.05126
393.28 14.4458 1.89728
384.22 15.5207 2.07063
441.903 15.6371 1.99624
409.378 14.7629 1.95645
362.495 15.4977 2.09848
323.146 15.6911 2.09568
438.265 14.7039 2.00952
369.966 17.7352 2.37346
350.493 15.43 2.14775
279.636 14.9404 2.16219
308.358 18.0171 2.54992
391.156 17.7701 2.55672
333.671 16.5529 2.42922
297.062 17.9158 2.62275
368.183 17.6474 2.6408
359.221 15.7018 2.44521
316.987 16.3626 2.52728
326.393 14.8685 2.3258
337.966 16.7472 2.57985
389.494 17.7631 2.81044
293.252 17.0981 2.69108
352.366 16.9738 2.73329
348.717 18.6661 3.07116
378.929 16.636 2.77679
350.828 16.9052 2.83361
413.516 18.5638 3.18337
292.145 15.2223 2.56587
288.683 16.5315 2.90005
325.311 17.5989 3.06818
352.143 18.764 3.23599
294.932 23.2854 4.15842
339.035 17.5105 3.07917
308.757 16.8245 3.06832
287.312 16.407 3.0526
304.893 17.7486 3.25479
343.454 16.9219 3.21594
273.534 18.2714 3.39232
252.929 18.6871 3.46354
296.042 18.4056 3.30815
260.363 18.3345 3.50362
245.741 18.8672 3.78057
309.514 18.6942 3.77028
290.064 17.9192 3.45576
245.673 18.1004 3.64304
269.249 17.0515 3.37245
291.613 17.3042 3.55209
275.487 18.8585 3.94653
270.829 17.9754 3.80889
275.265 18.61 3.81225
293.596 19.1209 4.04866
294.643 18.2836 3.94662
268.164 19.7961 4.30618
257.282 18.3237 4.02395
238.339 18.9363 4.186
265.031 21.2681 4.70156
258.075 19.9335 4.46926
237.301 19.3974 4.39576
258.034 19.0114 4.35871
259.77 18.1461 4.23659
258.86 18.5179 4.44219
257.138 20.2277 4.6454
268.662 20.3422 4.80783
263.456 18.7064 4.54823
250.537 18.6018 4.47279
239.37 18.5385 4.50353
234.764 19.5413 4.83847
230.93 17.9363 4.40898
215.798 18.7735 4.71436
245.207 20.0582 5.08079
217.643 18.7476 4.85223
255.353 21.1204 5.3484
222.93 19.1548 5.0948
219.683 20.3432 5.18863
219.882 19.3594 5.14748
221.793 21.6267 5.71537
212.309 19.1008 5.07506
226.658 20.6199 5.64924
228.521 20.8314 5.59138
180.359 18.6703 5.14509
217.35 21.5613 6.04153
205.645 19.2063 5.2134
211.805 20.7646 5.66371
203.216 21.9725 6.22048
206.537 19.9019 5.64253
207.003 20.9051 6.08565
189.378 22.226 6.29265
180.598 22.3943 6.33406
187.165 21.0632 6.11467
196.796 19.8476 5.75805
218.882 21.3631 6.41209
188.845 20.1647 5.90874
191.468 22.6547 6.8366
217.353 22.3425 6.82763
168.076 20.0646 6.14216
193.96 18.8965 5.931
189.29 19.7905 6.23375
187.464 21.6364 6.82428
178.423 21.8946 6.86275
187.044 23.5637 7.49745
185.922 21.2363 6.78173
154.641 20.7232 6.46736
178 22.1514 7.08363
187.099 24.4134 7.82492
173.852 22.0836 7.38255
205.117 21.4492 7.19787
195.492 20.6397 6.75166
154.03 23.2026 7.7266
184.887 21.0022 7.10308
179.26 20.7143 7.24426
184.952 22.8326 7.99916
162.722 21.2912 7.47163
171.924 23.9774 8.33127
168.304 20.3188 7.20792
187.629 22.7113 7.90874
147.976 21.2738 7.62333
180.022 21.9161 8.0988
160.002 21.4057 7.69467
165.19 22.5636 8.47571
148.661 20.5665 7.46314
171.643 23.5208 8.68598
153.657 24.6937 9.15104
143.623 21.2704 7.91932
138.286 23.2541 9.05945
127.603 22.1865 8.42201
116.431 21.6263 7.98947
168.85 20.6462 8.35446
156.791 33.3359 12.4449
117.521 23.5983 8.8405
134.748 23.893 9.22339
128.054 25.6119 9.9971
133.597 23.3708 9.27291
149.974 22.4407 8.94486
151.034 22.9483 8.97351
138.147 21.7362 8.68892
159.956 25.5026 10.6354
141.354 23.0466 9.51052
139.95 22.5724 9.12986
144.051 22.2032 9.11841
125.228 19.842 8.37128
140.732 21.7915 9.13728
141.816 25.6244 10.7106
147.482 23.9494 10.1343
146.538 24.3787 10.4504
133.67 24.3174 10.3693
142.214 26.1067 11.3639
122.675 23.9865 10.1905
119.781 22.7491 9.56245
165.036 23.9761 10.7869
144.28 24.974 10.947
129.139 23.2702 10.2319
121.459 22.161 9.87856
133.979 23.5559 10.7882
117.69 25.7675 11.5695
125.867 23.2676 10.9027
132.204 23.097 10.7332
122.044 21.4858 10.3042
116.995 22.2369 10.2983
128.377 21.8093 10.6154
128.362 24.4813 11.4808
111.933 22.7807 10.8503
129.664 24.0403 11.3385
122.578 22.3988 11.1045
121.188 23.877 11.2682
111.43 24.4926 12.2796
125.283 26.0448 12.3389
113.693 25.3134 12.2126
118.513 24.7022 12.4667
114.944 25.5109 12.4213
117.478 23.9278 12.0019
96.4122 24.6999 12.6855
106.044 23.6335 12.1811
101.473 25.5384 13.0687
113.067 26.1835 12.9904
120.097 25.8672 13.3397
100.762 23.7168 12.3104
100.696 23.4202 11.8892
116.011 23.0959 11.5942
124.094 24.5526 13.1187
100.609 25.7969 13.4388
111.293 23.987 12.5911
108.041 25.0258 13.9011
118.092 25.3434 13.3252
104.09 23.3909 13.0235
115.261 22.605 12.0714
120.136 24.6282 13.2865
107.739 23.1607 12.9444
106.509 24.525 13.963
118.542 23.2263 13.0011
116.251 26.8543 15.1545
117.796 26.4006 14.4541
110.509 26.3337 14.8126
114.253 24.7219 13.7018
106.065 24.1627 14.0643
127.769 27.1431 15.2726
115.397 25.4182 14.5521
115.057 24.2461 14.0676
115.395 24.3503 14.308
117.628 25.9727 14.7499
104.125 24.7372 14.4771
99.7835 25.0174 14.8145
107.355 27.3922 16.4094
116.167 25.6251 15.5148
107.208 24.9486 14.8326
88.4987 23.4345 14.0092
109.44 26.8511 15.8969
102.98 24.8461 15.4001
93.3211 25.2374 15.5523
95.5474 23.7565 14.5099
88.6104 23.6708 14.5177
93.75 24.179 14.7261
94.283 24.6046 16.0575
99.9893 24.4115 15.5637
84.9906 26.4177 16.4318
95.878 22.382 14.5403
98.5124 26.7648 16.7365
94.1135 26.597 16.8824
82.6884 24.0616 15.3805
103.759 27.2269 17.4627
92.9925 26.6165 17.6515
90.0559 27.135 17.5112
100.758 26.8244 17.8514
86.0592 22.3059 15.7394
102.591 37.544 23.7592
102.169 25.5375 17.0554
88.2859 25.8187 17.2251
81.4456 24.8753 17.3076
90.7117 26.2699 17.7417
106.34 25.0613 16.7399
91.1943 25.4151 17.0042
93.9274 27.0239 18.4654
87.699 25.673 18.4478
101.069 28.7164 19.8172
77.6904 26.9691 19.1095
98.1646 26.2456 18.6357
84.0601 27.2836 18.9945
96.5244 24.0647 17.2857
81.6969 27.1954 19.3015
94.2885 25.6926 18.708
89.9591 23.1479 15.9142
73.1702 24.5208 18.0935
89.1015 25.9976 19.0765
99.4864 27.8319 19.8076
74.8372 25.3755 18.3514
79.3451 24.0458 17.6492
87.629 28.3322 21.5394
94.4334 29.4645 21.4579
88.6671 26.0558 19.3749
78.1582 27.517 21.0162
83.4333 24.4483 18.0768
88.1851 27.7193 21.0178
82.9465 26.4436 20.1569
87.722 27.0076 21.1424
79.9366 27.0316 20.8571
82.3975 28.1244 21.3062
87.9611 28.3358 21.3498
75.0475 25.9601 20.9567
85.7909 27.5973 20.769
80.3472 25.7749 20.2628
72.2301 28.1842 22.3333
81.2041 27.3843 21.1445
73.4638 27.5384 22.3777
72.9321 27.1338 21.2724
82.9289 25.9535 20.8586
75.2238 26.6516 20.577
71.6203 27.0846 21.4593
75.4057 29.755 24.4434
81.713 24.8551 20.6197
80.1236 25.2624 19.564
63.6373 25.6904 21.3507
85.5287 27.4326 22.86
83.0444 26.8842 22.051
79.3426 27.6049 22.9872
80.3024 26.565 21.7804
73.5627 24.4341 20.1456
69.0777 25.8595 22.8676
73.4446 25.3352 21.7647
73.4438 26.4694 21.9616
75.844 27.2027 23.1075
78.9364 26.4527 22.4167
88.1622 28.941 25.1181
77.0696 26.8263 22.1525
82.1871 30.3998 25.9744
71.3161 28.3917 25.0939
82.8511 27.3216 24.0297
70.9344 27.77 24.2245
66.6041 26.6124 24.1633
71.4871 28.0364 25.1589
61.7266 27.0059 25.3475
76.4081 29.67 26.4373
64.8733 25.8738 23.6763
81.7845 26.3062 23.5599
76.6617 25.0473 22.0808
60.2897 25.4799 23.4463
65.3983 27.7096 24.5144
85.0464 27.3702 24.8422
68.3507 28.5961 25.9771
68.6152 26.2323 23.3282
56.7347 23.3904 21.7608
66.7053 27.6472 25.2892
72.5386 26.6918 24.8323
63.409 25.0765 23.0393
59.1271 26.1758 24.3204
61.1059 25.9425 25.2358
63.5991 24.0492 22.5308
60.4504 25.5155 24.0862
64.0629 26.0915 25.4085
67.1497 26.237 25.3393
72.9448 27.715 26.2165
57.6964 24.5776 23.9734
66.175 27.9249 26.4339
60.5592 29.6992 28.0413
68.7277 26.5761 27.1139
68.043 26.115 25.0789
66.7776 26.4329 26.1023
61.5842 28.5765 27.7538
60.9137 30.0722 29.3089
62.3469 26.8399 27.8345
65.2087 25.1483 26.2502
69.1101 35.3094 34.4067
62.2071 27.3993 28.5559
63.1865 27.5819 27.4008
57.4348 27.1811 26.5599
64.1851 27.4909 28.788
66.9619 27.2148 27.1489
55.1187 27.5435 27.6138
59.1551 27.669 29.1187
58.9864 27.6258 27.3011
59.5236 25.8041 27.3517
61.7077 28.5184 28.5551
62.3332 24.7148 27.004
60.0825 25.4969 26.5338
59.0967 26.3351 29.533
67.101 28.5898 28.3134
63.0943 25.6604 26.6946
56.9441 26.0002 27.1764
66.4361 29.0888 30.4942
60.9188 27.4905 29.473
62.6939 25.247 28.399
61.451 26.6302 28.1187
62.1831 29.0602 31.5689
58.0038 28.0827 31.1524
54.3085 26.7774 29.5171
57.6258 26.2353 28.0945
57.3218 26.5779 29.5723
57.7365 27.2395 30.3948
55.3736 26.851 28.3131
54.0197 25.3512 29.7756
62.0593 27.5333 29.6278
52.0394 27.2415 29.433
58.9579 27.4262 32.1351
59.1837 26.682 30.38
55.6741 26.9718 30.5867
63.0146 25.929 30.2156
55.7167 28.268 32.0169
60.1791 27.76 32.3953
58.9272 28.3729 32.0704
54.7687 26.6871 30.4232
55.7165 26.9127 29.7555
55.293 28.9576 33.0349
66.3452 31.6444 37.3639
51.5007 25.893 29.4948
53.7201 26.8685 32.2532
56.3124 27.699 32.0018
60.03 27.6066 32.3012
52.6699 27.4963 32.8732
58.9824 26.701 32.7127
53.3113 28.4428 32.576
59.5505 28.7418 33.7585
48.92 25.8874 32.936
54.3287 28.3092 32.9682
50.2331 26.167 30.6504
52.6333 26.0212 32.199
49.1144 24.4071 30.1142
57.1556 27.6754 34.0609
49.2469 26.243 31.9291
60.7669 26.8503 31.2026
50.4724 22.9608 29.7977
53.4163 27.4401 33.5261
53.0368 28.3225 35.9508
47.4707 26.6363 33.1834
51.7034 28.2964 35.4948
46.2484 27.2692 35.0521
53.8128 26.7639 32.8207
53.823 26.3317 33.4301
52.7439 29.2966 37.3951
47.1844 25.7422 33.0187
56.1571 27.6417 35.7732
49.9211 25.0361 31.3105
46.3683 25.3303 31.5819
50.1388 28.3035 36.1766
43.9693 27.5225 36.3524
45.5757 29.3336 38.1602
55.4995 26.083 34.2045
53.9305 28.8912 38.0859
41.9721 27.2167 36.5132
51.7088 26.2769 35.0595
55.8747 29.8556 38.848
45.7294 26.8711 34.8233
46.6167 27.9364 37.2628
48.1992 24.8743 32.0031
46.041 27.1636 35.5504
54.5897 28.1085 38.335
47.6523 28.4727 36.4476
49.2859 28.0339 38.6147
47.3138 28.3494 37.7693
46.9006 27.2995 35.5657
43.3947 27.0993 35.987
42.6567 28.0923 38.7813
41.8725 27.5171 39.4589
47.1237 29.9741 39.731
47.2504 29.064 38.4218
38.715 28.8191 39.0947
43.3856 29.2204 42.2287
61.6456 29.565 44.1694
50.0449 39.7442 51.4027
42.6618 30.076 40.5287
47.9852 29.3498 41.7127
42.752 28.0109 40.0251
47.0365 27.9404 39.3176
44.7497 28.192 37.9434
44.6723 28.7351 39.1273
45.2224 28.2475 40.8447
46.34 27.132 37.2862
37.7729 27.4949 40.958
45.6448 29.1966 39.1058
45.3634 29.3802 41.3424
38.333 26.5787 40.0326
42.0371 25.9843 37.5998
44.0696 28.4149 41.7552
42.0586 26.5585 37.9173
36.5743 27.3726 39.3184
48.3619 27.9371 42.9414
42.8703 29.0821 42.2587
41.1124 29.9375 44.0881
42.3572 29.4106 42.0334
45.6827 26.4939 38.8632
43.9757 26.2628 38.8469
48.2626 31.0897 44.276
35.6114 23.8561 36.8662
45.1354 27.7242 41.5569
42.982 28.7911 39.7459
41.0088 26.0521 39.8349
43.0981 26.7848 40.2708
39.281 26.3048 39.4902
33.5474 25.1212 38.9028
43.2906 25.8112 38.3564
41.213 25.6871 41.0706
41.8234 25.2799 39.4149
40.4625 25.6465 40.406
43.2809 25.8533 40.4455
40.3703 27.8158 41.9677
39.9089 26.8901 43.2182
39.2029 27.6778 38.9535
39.5357 28.0943 43.7977
37.9513 27.2453 42.9931
38.5696 28.2856 45.3532
40.9485 25.3023 38.5431
37.3419 26.4436 39.4424
38.9673 26.4684 44.3403
45.3546 28.1874 42.7292
41.0987 27.4921 44.3972
42.1457 28.943 43.1748
37.8697 27.238 40.8723
37.1636 25.8979 42.1506
40.235 30.3445 47.7687
38.3483 24.666 41.8995
37.2325 26.8329 42.4233
36.446 26.4731 41.7682
37.4439 25.9499 42.2551
39.2416 25.5558 41.3684
33.6987 27.2905 44.6639
36.713 24.0693 42.2921
41.2622 26.8767 43.5188
36.9652 28.299 47.5601
41.5835 27.5721 41.6318
40.4436 29.1224 49.2338
41.0699 27.9438 44.9285
37.0659 28.3583 45.9785
34.0366 25.2983 42.4179
37.1512 25.1629 41.744
36.4654 25.0982 41.6167
38.9165 26.0891 45.7217
38.8937 28.8879 47.4544
41.2906 27.433 44.3807
38.0402 26.2762 44.9869
39.1423 26.0553 42.6077
37.5721 27.3096 46.6605
33.8908 26.731 44.7081
38.0492 26.8919 46.3936
39.803 25.9981 44.4999
37.8023 25.7171 42.7106
30.207 25.8336 45.3827
39.4224 27.4149 47.731
33.556 26.1798 46.1915
32.8789 22.995 40.4203
35.671 29.2784 48.6237
32.6298 23.2455 41.6653
37.3687 26.6645 47.5951
36.8988 29.2016 46.994
36.4909 23.6395 42.5193
31.9165 25.5025 45.6302
37.8671 27.8376 50.0482
35.3006 25.916 43.1376
33.8798 27.072 46.669
36.1361 27.1899 49.0495
37.7138 24.9445 43.1268
34.1887 26.6015 47.1283
33.1321 27.5738 51.2403
37.1175 27.7071 51.9941
35.7044 25.147 48.7799
37.8705 34.5395 55.6263
37.6415 27.7715 48.7519
36.5879 27.0083 48.8318
33.7346 26.8426 46.5555
35.714 25.2875 47.2728
36.1029 25.7026 46.1661
31.6564 24.6044 44.831
34.302 25.0283 47.3324
36.768 28.7723 51.5922
34.5513 29.6587 53.2632
31.2407 25.083 46.482
35.7026 27.4257 51.7988
32.3581 26.4244 50.3812
39.5537 27.6596 50.7849
33.9742 25.6003 45.0246
37.5626 24.3482 47.0638
39.496 27.3371 50.1056
36.9226 28.2088 50.8503
34.4259 26.651 50.5125
34.3688 26.3385 47.2862
32.0611 27.0031 47.8541
33.2607 26.988 49.8959
31.9735 27.1476 52.3194
30.7239 27.6027 55.5438
35.6044 27.1651 47.8571
30.7461 26.6386 49.962
37.0928 25.2433 49.0453
33.071 24.9521 48.1388
29.4218 25.7965 52.5125
34.9786 25.3434 48.7724
36.7419 27.5453 51.2756
32.7903 23.0616 47.0146
30.8688 27.3545 50.7761
34.6082 26.938 54.6977
36.7274 26.424 51.1146
34.1827 28.4658 53.6629
29.2429 24.8434 49.9333
34.4544 27.2829 51.7583
31.5006 25.7701 51.2831
36.148 28.8537 52.8174
27.8927 25.2605 48.9705
27.3018 26.278 52.911
30.7211 28.6671 57.5124
32.5603 29.4641 57.6435
35.0072 24.6242 45.6376
29.1661 23.2587 48.9664
24.8531 26.5883 55.0516
35.1166 25.4813 49.7642
31.7452 25.3385 51.1355
31.3308 30.1128 58.7308
34.9767 26.2454 51.544
27.9769 29.2933 59.4165
32.0869 28.3144 56.5148
31.8247 27.6822 55.9811
30.963 26.1316 50.0041
28.2767 26.7806 57.7162
31.3344 28.4346 58.1192
33.6369 26.9493 58.1322
31.4411 27.0177 59.6058
32.9403 28.0019 55.667
29.7811 26.9125 56.7024
34.5877 27.4893 54.1752
30.6937 25.9862 53.2103
32.6317 29.6803 58.3613
29.4243 25.6843 53.4857
27.8667 26.9591 58.2601
32.489 29.0753 60.618
28.465 24.7183 50.9774
34.1596 27.0205 53.644
32.4324 28.4734 59.3645
26.3362 26.9597 54.5701
29.4671 28.5767 58.7784
34.2336 25.7964 56.4348
28.669 26.672 55.9131
28.3895 26.2906 52.3416
27.5267 27.8581 59.1849
27.1832 26.4113 55.8507
28.8281 25.0866 51.6835
29.1755 26.9052 58.6767
27.1856 27.1189 56.5384
26.5046 24.476 55.331
28.5971 26.0527 53.3405
27.2438 24.3765 55.273
26.1452 27.4665 61.6299
31.9172 28.5702 55.8106
29.5206 30.7465 65.9718
25.5543 25.9678 54.6241
27.589 25.2664 52.5845
26.1724 27.2485 59.3729
31.3044 27.133 58.1958
24.5716 23.5313 53.339
27.5041 25.5745 56.5615
30.9923 27.0015 59.2513
26.5016 22.8672 52.6598
27.3918 24.5068 55.9839
32.5678 28.5365 65.5315
30.582 35.0599 64.99
30.327 28.3591 65.4508
32.8469 30.6376 67.8231
28.0029 26.8064 58.5294
31.949 26.7737 62.2851
32.3393 23.3506 52.5235
29.3539 28.2753 63.4403
30.615 26.4323 55.3745
28.7386 25.6887 59.329
29.585 28.2671 62.5917
28.8647 26.9911 60.6933
34.6454 26.4355 58.7562
27.2825 26.302 57.9757
26.1541 25.8762 62.462
33.5993 28.677 63.8228
33.7003 26.4748 60.2505
27.1543 26.9766 62.2209
31.366 28.622 65.2719
29.2762 26.4205 58.3785
33.0943 25.5461 62.6902
27.639 32.6481 76.2293
29.6104 28.9308 67.8398
31.4039 30.3806 69.0699
29.475 29.5508 65.9522
31.2506 29.7879 69.3605
31.0186 28.7116 64.5449
26.6849 27.5955 61.6142
27.2444 22.7813 55.0701
25.5352 24.5449 56.1675
28.0962 24.2257 58.0841
26.7163 26.6519 63.6067
25.53 26.6192 58.3146
28.4408 29.8087 69.3933
25.4522 27.7474 63.2118
28.7152 28.0241 68.5768
25.344 25.7708 59.4969
26.0472 26.9058 63.8616
26.6075 27.1381 62.1359
25.6429 26.6523 70.282
23.1908 27.2303 59.2503
26.5 26.3341 62.6452
30.46 26.7272 64.5978
25.8155 27.2654 69.0381
27.1407 25.4291 59.9048
25.0875 28.0439 73.1162
30.5954 27.5554 63.9957
26.2071 28.3012 69.4553
28.07 25.3337 59.912
27.7031 27.4787 60.5348
28.0168 25.8149 60.4587
22.4687 25.992 64.2439
26.0325 26.5329 68.4893
24.4443 28.0304 62.6852
26.3532 25.0992 60.3021
29.3334 26.3726 63.6905
26.758 26.5196 65.619
23.7084 24.9843 66.5023
27.5261 23.8205 60.0864
25.4857 24.3261 61.2264
29.9696 25.1059 58.4926
26.6388 26.4393 67.5487
24.0705 28.2861 68.0547
26.6992 25.848 66.9191
25.7198 25.7559 61.2489
26.3271 25.1889 62.0443
26.7017 29.2409 68.2396
26.8633 26.0239 67.6986
24.5992 26.8696 65.9475
30.1846 26.4145 67.0272
24.0935 30.6412 75.6936
23.5995 27.7848 68.4649
23.6688 25.4617 69.5279
26.1411 24.1776 63.7577
24.1408 24.7209 62.4489
27.2481 29.2055 77.0583
26.3395 26.5659 61.8038
23.6642 24.9889 66.4261
31.1071 29.1724 71.4476
26.7116 24.8026 63.943
22.1261 25.1887 61.7629
25.6263 28.9547 70.492
25.6483 27.84 69.1887
27.5803 24.7837 65.9852
30.724 26.1975 66.4134
25.5813 26.1014 67.4696
26.3306 23.6567 63.6005
28.286 28.5148 70.5761
27.6506 27.8528 67.8538
24.4873 25.1962 63.5341
27.1443 26.965 70.5814
25.7079 29.5209 76.1292
25.4675 25.1766 66.5338
26.8671 26.2936 70.1177
25.8669 29.1511 73.3818
27.5541 30.1477 76.2382
41.3541 26.4027 81.0862
26.9279 36.6117 83.1746
27.5039 25.5188 67.6444
31.5222 29.3688 78.1241
29.9061 26.2801 64.3831
26.2811 26.9484 74.9153
27.3666 29.3379 75.7541
27.4782 27.8032 76.9287
24.9054 25.9168 71.2908
25.7137 25.691 65.0912
24.2346 25.0388 68.9303
26.408 26.9591 66.4561
25.0932 28.5972 74.6862
22.616 25.7879 77.4999
26.3485 27.9999 69.5461
24.0578 26.5606 80.1711
27.9622 28.8828 68.4295
26.9444 25.3511 66.0515
25.2256 29.3689 69.449
22.8291 24.686 67.3674
21.0041 24.3834 70.9751
22.9105 23.294 63.7697
22.3661 23.9335 70.8474
21.9601 26.2088 70.5562
22.9372 25.108 66.8912
21.109 25.2838 65.6466
20.8721 25.4906 71.4351
23.1835 26.3136 69.8338
25.1979 27.2857 70.2761
23.4191 26.6482 75.6479
24.0996 27.9677 76.6631
22.4698 25.8511 71.3756
24.5039 25.1767 70.0608
23.5409 27.4853 72.2294
23.5083 28.105 73.5304
23.7277 24.4659 60.8324
25.9126 28.3501 80.0571
22.8358 24.3122 72.3646
24.9352 27.1775 76.2067
24.6089 27.6903 75.6401
25.5213 26.2618 66.6551
22.0389 24.5128 76.6199
21.6307 27.9977 76.3427
24.0626 25.2927 71.6338
20.5525 24.1184 70.4858
21.9693 25.8408 67.4099
23.3673 26.465 76.3013
22.036 25.0473 71.0654
23.3501 27.4059 72.9315
22.3965 25.4343 72.295
21.7181 25.5977 73.7241
22.0296 24.5416 69.1926
26.2417 25.5947 73.8672
22.3803 28.9154 77.8064
21.3025 26.1071 73.5862
21.6575 23.4848 70.7485
21.9383 25.4392 69.2325
19.074 26.3205 74.2448
21.4015 22.5593 69.3691
21.2924 25.5773 77.8354
21.5101 26.3687 68.3301
21.14 24.7052 75.4225
24.8123 25.6703 74.0527
23.088 24.7958 66.8513
19.9278 24.4336 66.0408
19.9412 26.2644 73.8532
21.754 24.0189 70.9136
22.9995 24.8978 71.0086
20.7685 25.6308 74.6866
22.32 24.9324 70.6774
24.3278 25.63 73.6479
22.9287 25.1418 70.863
22.3515 23.5886 69.0422
22.7075 25.2586 66.5535
16.5695 22.5645 67.9617
21.0577 22.0571 65.1224
23.2925 23.9126 70.966
21.2201 24.3006 73.4824
22.7306 24.8381 70.6565
22.9728 24.6568 71.1434
22.4475 24.6822 73.9738
22.8833 23.6501 63.736
21.3175 24.2351 74.8189
22.4219 22.7798 64.9895
23.093 24.8963 72.3801
21.5851 23.7269 70.7181
20.8387 25.5418 71.0438
20.6342 21.6993 67.0335
24.6432 24.1218 68.6587
20.5509 22.3502 66.7354
22.3898 26.0965 77.6071
21.9414 23.8317 72.9739
20.0562 23.5851 68.3518
19.5231 21.6971 67.0939
20.2343 25.5572 74.5876
22.0619 21.291 69.0224
22.0474 26.8332 99.2063
25.751 31.5679 74.9515
22.0462 23.5432 69.2839
21.2863 21.7213 68.5908
21.2442 21.592 66.6503
22.4891 21.3069 61.6007
19.8267 23.6705 67.7279
18.3414 22.995 69.9473
18.643 22.0994 68.6059
19.8685 22.2598 62.9826
19.62 20.4556 66.7836
16.2693 22.3749 72.8363
22.1283 22.1479 68.1529
19.7414 22.1108 59.6999
18.4924 22.6137 70.0989
19.3683 23.4433 68.1768
20.7657 22.7953 73.9507
20.0843 21.1309 62.7345
20.9285 22.2392 75.2926
21.5661 23.3042 68.2353
20.4565 21.7786 68.237
20.2851 22.4063 65.6007
21.8197 21.7279 70.6551
22.79 25.2984 74.6048
18.6899 22.6014 66.9419
20.6842 19.79 62.7042
19.0085 20.0129 68.1887
19.243 19.3273 61.7548
19.0225 21.1317 63.8032
18.9494 22.3212 65.0613
20.5449 21.0716 64.9664
19.109 22.8008 70.8464
20.9558 24.4981 77.9042
17.8046 21.1329 67.1755
20.5393 21.7629 70.6275
20.275 23.7729 68.2091
18.4278 20.695 64.2947
17.3795 22.6886 71.4897
18.7894 21.5284 63.5958
16.2971 20.5467 70.7184
18.1283 23.4207 70.1231
18.3062 21.4788 68.8237
16.2357 23.6483 72.1089
20.0416 22.9035 73.9988
18.1115 21.9074 69.36
19.2235 21.9426 71.8034
17.8361 23.0333 69.9225
17.0738 22.3491 68.1919
18.6201 20.9749 72.9216
17.7334 18.5476 61.2406
18.7164 21.8515 67.0877
18.0484 21.5883 67.2946
17.2074 22.6947 75.8771
18.8627 21.9131 63.7567
18.5689 23.0806 77.0788
19.6166 22.03 68.8382
20.6737 20.4931 67.084
19.4134 23.3515 67.9917
20.7721 25.3385 81.0833
20.0734 21.7512 67.6434
21.9982 23.3434 77.1989
18.8309 20.4119 68.4645
21.7061 19.9604 68.8643
20.9956 24.5569 75.6701
21.2903 22.3742 68.0487
18.6803 23.3219 70.4987
18.4486 19.8571 59.6737
17.8993 21.1588 71.8359
18.3015 20.9835 70.7677
20.4677 21.2887 68.1682
18.2223 18.3953 64.2233
17.9749 23.2058 70.7462
19.6053 22.3504 71.9238
23.2909 19.8833 69.2845
18.6557 20.4167 69.4513
19.37 23.8786 76.9094
21.6038 22.7827 66.9133
16.1382 22.8922 77.3814
18.9788 21.1438 69.9387
22.1918 21.51 75.0224
18.8646 23.5802 77.8361
18.2829 21.8204 71.337
20.0182 20.9129 64.3835
18.3568 19.4962 66.0215
17.1588 20.3546 69.7411
19.5217 22.0909 69.7534
20.358 22.4886 72.1328
16.8135 20.9453 77.2754
18.0781 24.3686 80.859
20.1059 21.1582 63.4171
20.2387 23.8732 75.7941
18.0936 22.3225 72.0498
17.6271 22.764 75.8252
20.3747 21.8953 69.1329
18.2973 21.5713 65.7476
16.937 20.4112 69.0037
18.219 24.3327 99.7441
19.3873 25.4199 74.2788
18.466 21.6967 70.8563
17.3474 20.7579 68.3404
16.5618 21.8305 70.2677
18.06 21.1894 63.6736
19.6475 20.4578 69.1704
17.8652 21.4093 71.0316
18.2896 20.6509 77.6414
18.4025 22.3891 72.0031
18.5014 21.5433 76.2968
18.8736 19.7532 66.1613
20.567 20.4402 74.5797
19.3681 22.5333 68.2567
18.5276 20.8369 76.6625
19.4428 21.1311 75.4467
20.0467 20.5218 65.7494
16.7744 20.9866 67.9106
18.9259 21.6184 70.7618
17.8871 19.9921 67.566
18.0543 19.9234 73.0723
16.2936 22.2282 76.4294
17.9397 20.856 68.4639
16.7594 20.8997 74.5807
16.2333 21.8059 66.8728
16.3691 19.1162 68.3127
16.4177 22.3303 75.6852
18.3524 21.0986 71.9438
16.8792 22.5983 74.5519
15.8514 22.132 78.2915
18.1112 24.3612 78.8678
16.8505 21.071 72.0267
16.654 21.2774 71.7245
15.2006 20.3067 71.2505
15.3574 21.3351 73.358
18.9913 22.5374 79.7708
15.2685 21.7428 70.9919
15.9778 21.9116 79.0998
18.2092 22.8545 68.9081
14.0177 20.3681 77.8167
14.5401 22.4437 75.51
17.3675 20.8333 72.0298
17.1379 22.0699 75.6472
16.2071 21.353 74.2783
18.6737 19.8091 66.0433
17.8529 19.5507 71.1179
19.2911 18.0982 63.6338
17.2737 20.2249 70.9958
20.8407 19.7955 71.19
19.4817 19.9743 71.2116
16.2942 21.396 69.2939
15.7256 19.5501 75.014
18.8797 22.212 71.4725
17.0417 21.7638 73.5413
14.618 19.1941 65.5697
18.4404 20.6782 66.3419
18.1902 19.378 67.5903
16.8193 21.5509 78.6846
19.0024 23.1112 79.6896
18.3648 21.5843 72.7973
17.319 20.6426 74.4482
17.0914 21.3852 74.3574
16.7956 19.3595 70.0921
16.4935 20.9265 71.7199
19.5992 21.8245 75.25
19.0764 21.4503 84.2542
20.8115 22.4952 73.2887
20.5485 18.9868 70.0231
17.9362 19.5637 67.432
20.956 22.7138 73.2837
18.6813 20.1597 75.0387
15.188 23.3849 78.5096
17.8973 20.368 71.6426
16.1482 20.8348 77.456
15.1402 20.3022 76.3004
17.8947 19.3826 68.6779
15.6912 20.6251 65.5102
15.8469 18.5827 66.8688
18.777 18.7568 66.3288
18.3787 20.5575 71.1466
17.8045 20.4918 70.5457
17.6285 20.9222 72.7456
16.9882 22.1553 79.2923
17.5777 21.1761 72.0568
18.3951 19.3683 75.4568
17.6128 21.6637 77.9666
16.0884 19.7154 72.4158
20.0874 19.0903 71.7258
18.497 20.6885 79.2249
17.3777 21.8103 74.3783
19.3618 20.1189 77.7487
17.09 20.4582 74.1732
17.6204 20.6167 76.4212
19.6167 22.2562 71.9447
16.0535 19.7558 71.5307
20.7213 20.1819 73.0649
29.2877 22.1355 96.4555
17.2681 23.7525 74.0888
25.2006 20.7177 75.6456
24.0548 20.5815 72.5969
20.748 21.3009 78.3332
19.2315 21.7696 77.1681
20.4754 19.4592 69.5947
18.4363 19.2405 70.5768
16.3313 18.1115 68.3503
16.7372 22.4977 76.2588
15.8948 21.5206 72.397
18.2318 19.3024 69.5145
14.328 19.7132 71.0272
15.605 21.6027 77.0506
17.536 18.7104 67.2779
16.6315 21.5463 77.6867
15.0108 19.2337 70.3439
16.4131 18.2679 68.0198
15.9561 19.2672 67.5924
15.0806 20.9544 71.2544
14.1389 19.0336 70.6795
15.1355 18.3156 69.5497
14.675 20.2655 74.4745
15.1912 19.2921 69.3909
15.5284 19.6442 62.7091
13.7737 18.4744 71.7237
16.5487 19.8788 72.4392
14.3901 21.3359 74.3817
16.2015 19.6944 76.6555
19.9572 20.7218 74.5285
16.2766 21.2496 72.5056
14.9172 19.6278 70.1852
18.9045 20.2795 76.2576
15.7499 20.6334 75.0466
17.3273 19.6146 75.5337
16.3664 19.3662 66.5393
17.7514 19.1872 80.0231
16.535 20.5331 73.5066
16.4752 19.6908 68.7317
16.6913 18.1339 74.3581
15.2502 20.3405 76.0613
15.443 21.0905 74.7455
16.2379 19.9383 82.9979
17.4001 21.0195 72.1104
11.6281 18.1355 70.8789
15.7154 20.0222 74.2701
14.9832 19.9228 72.5132
14.71 19.9908 66.783
14.7858 19.2563 73.18
15.9112 19.1389 72.25
15.9102 20.1727 77.4699
16.5996 17.6986 71.7757
18.0204 20.6978 76.0921
16.5838 20.5783 72.6353
15.5612 19.9122 70.3314
16.2621 19.5108 73.3544
15.7972 17.9186 68.9301
13.8718 19.4742 67.1283
14.6401 19.3481 73.8409
15.6332 19.2052 73.1433
15.6443 20.5475 76.5776
17.8443 19.6245 68.7918
17.182 21.0215 76.8692
16.8659 18.0477 70.2495
14.2339 20.2954 75.5329
14.1603 20.2388 75.4478
15.5305 21.295 79.2459
15.7596 18.9695 68.6852
14.5489 18.6734 75.6073
16.1168 18.2957 67.4468
16.5279 18.4729 68.7037
15.8695 18.3088 69.7572
17.0111 19.1658 71.9801
18.3565 18.5568 76.5213
13.6535 21.7424 75.3016
16.1839 16.7523 65.3351
16.4445 17.1621 64.7513
13.7221 18.4471 67.1895
16.4882 18.4851 74.3998
16.9599 18.8222 71.1501
17.7304 19.179 74.2148
19.7241 17.3784 67.6898
16.2696 18.2647 72.3636
18.31 17.5751 70.9588
18.7665 18.8676 66.7191
15.369 16.5061 60.3791
17.4404 19.1038 74.6666
15.0629 19.0136 71.9075
18.2063 18.8166 72.5958
17.2235 18.1195 67.9455
15.4243 18.1892 72.2887
18.9775 16.4169 59.1782
16.5757 17.9898 70.8979
14.9414 17.1482 71.5827
16.1258 18.9027 69.309
14.9604 20.201 71.7181
15.0439 20.6532 104.746
16.7776 23.1108 67.3099
13.1099 19.1528 72.7552
16.4805 19.1417 72.985
14.078 18.5511 68.1219
16.3583 18.9662 69.5297
13.5122 18.8574 75.8822
12.0847 17.458 66.9598
15.0827 18.7932 73.4725
15.438 17.607 65.9271
12.3623 17.9697 69.9346
13.7616 19.6794 65.5019
13.3059 18.281 77.6016
16.6078 17.3949 68.4267
14.6971 17.2167 71.3346
14.3144 18.3367 66.1549
15.3283 18.8187 70.6424
14.2612 17.7644 68.7164
13.6515 18.108 69.7801
16.061 15.7639 67.4553
14.5821 17.0449 69.8134
16.9429 19.8826 68.1331
16.3041 17.9559 73.2355
16.1168 19.1674 71.2279
14.9496 18.8096 70.3748
16.0706 17.7281 74.7474
16.0143 18.7753 67.8859
14.8382 17.7694 72.7172
14.9368 18.5659 65.581
13.5697 19.8028 76.2664
16.3347 16.5933 68.7032
14.117 17.8444 70.4117
15.8078 16.8334 64.6881
14.5574 16.696 67.2129
15.4601 18.4325 64.7299
16.0702 17.4681 66.7488
14.9265 18.223 78.3054
15.3788 19.247 66.6543
16.3948 18.4732 73.7841
13.4896 18.6901 76.0085
15.0204 19.7095 75.2367
14.3242 19.1891 71.581
13.7014 19.2185 77.382
17.8522 18.0511 69.5166
12.7269 16.8032 74.6671
17.9701 20.3499 70.0138
15.6376 17.4443 67.9162
13.6592 18.1795 71.3288
16.1292 18.289 71.902
15.643 16.7484 66.183
15.8614 16.8669 70.5726
15.4345 18.2733 66.0784
13.711 17.9109 65.5368
15.9328 17.4602 66.3889
13.9221 16.8265 69.2917
14.4946 19.6728 70.737
14.7354 19.0091 74.902
15.574 18.4373 70.9622
16.0109 18.7578 70.8272
15.6985 18.2596 65.4508
14.218 19.3034 76.6438
15.8832 19.3307 72.8494
17.2404 17.3675 69.7664
15.0308 18.0499 65.0782
18.7523 18.7321 74.9989
14.5548 17.8019 73.2128
15.3647 18.6481 76.8228
16.7433 16.8105 64.5701
15.0468 18.2747 71.8417
15.5994 18.1954 71.9086
15.8904 17.6997 66.779
12.1561 18.1786 74.6968
17.0355 17.6192 68.59
15.5779 18.3069 66.3292
13.5971 15.5795 63.8914
14.2934 18.4279 69.9708
16.0852 18.4739 79.3949
15.6305 17.6274 66.1909
14.1071 16.7908 65.6979
16.6777 18.5141 73.5117
14.4971 17.8775 72.1796
12.3665 16.7664 68.9792
16.0069 18.9337 71.1687
14.6201 19.1601 71.969
13.53 17.6751 66.9921
15.3586 17.1744 62.1876
14.4277 17.0062 69.4713
11.605 16.3206 68.6787
13.2382 18.3566 68.4965
13.6909 17.479 72.6255
15.0884 17.073 66.3837
12.7323 18.6191 70.2695
11.7618 16.926 70.523
14.8085 16.8012 60.4855
12.4388 16.0664 68.3323
13.5244 17.3248 66.5558
12.8181 19.4722 102.023
15.0629 21.9934 65.4131
13.9569 16.6153 66.146
13.0587 21.1188 76.435
12.1471 18.4366 67.5446
13.9643 16.0614 70.2521
16.069 16.9684 70.0167
14.5016 17.7578 67.5362
15.3376 18.4562 69.0911
13.2896 17.2656 68.1257
15.6038 18.2233 75.5837
14.9341 17.1059 69.3623
14.9809 16.9784 67.0011
14.9446 16.9232 74.8938
16.7207 17.5657 64.4274
15.9811 17.494 70.0618
16.3946 19.4303 67.1237
14.3836 13.8153 66.4591
14.1564 17.0451 68.8795
14.0751 18.1373 70.3189
15.3764 18.9511 70.9079
13.6285 18.0054 67.1166
14.301 17.234 68.8901
14.147 16.694 69.6657
12.4634 16.5829 62.6186
13.4493 18.8944 75.6914
14.4577 17.3825 64.8
14.25 17.0139 72.0845
13.84 18.1279 76.7369
13.6663 18.7537 70.2328
12.4033 16.7177 64.7361
13.7573 17.7856 67.7308
14.7107 18.3973 69.0654
12.4426 18.4601 76.0581
14.0657 16.7538 68.8093
17.5136 17.9496 71.3017
14.3627 17.9919 68.3524
15.2738 18.6943 80.2774
16.2064 22.1712 72.1043
14.9408 17.8476 71.7592
13.957 17.0716 69.582
13.271 17.5879 72.2558
15.1126 18.6296 69.8541
14.2958 18.0083 73.576
13.7281 18.155 72.9557
15.768 16.8357 71.9734
15.6864 16.84 71.5754
14.983 17.0539 60.3363
16.2767 16.5012 67.7574
15.8375 18.1071 67.3019
15.9354 17.4921 70.3481
14.2146 17.4103 66.9829
17.2824 16.8042 74.3467
17.2262 17.4598 64.7585
14.983 18.917 76.7722
18.9953 17.5699 68.5559
16.4833 17.7914 70.4567
15.5638 16.7252 75.5924
16.6068 19.1159 64.4936
14.4309 17.9298 69.5825
17.122 17.3798 78.224
14.7649 18.2841 71.7073
14.8597 16.5809 71.9744
15.0368 18.6441 74.4887
15.2637 17.7465 77.2388
15.7289 18.0217 62.4038
15.7418 17.7749 74.2162
14.8865 17.5442 73.9848
14.9192 18.0789 70.6444
18.1239 17.8464 71.0465
14.9272 16.8778 64.859
13.2469 16.2525 63.8335
13.7087 18.1641 67.7654
13.8105 18.3852 73.8479
13.7899 17.8944 65.9196
13.708 17.4996 78.9985
13.0489 20.0503 78.3423
14.8527 17.7491 70.9106
13.3559 17.9422 69.2138
13.9457 19.4251 70.6504
13.8639 17.7771 71.5507
15.8502 17.575 72.9647
12.4958 18.6556 77.1116
16.3254 18.7527 77.7246
16.2879 18.53 76.2569
15.2629 18.1109 70.6571
12.9158 18.2563 73.799
16.8641 19.1071 76.3045
14.9903 19.7386 73.272
14.8539 18.4871 67.7652
15.3999 17.0067 66.2695
16.0231 17.751 78.7049
18.0622 18.5085 72.9739
18.4716 19.0128 71.9891
16.2971 19.9539 74.7561
21.3074 19.2773 67.3301
24.4796 22.0087 133.306
17.9146 0 0