# pn-170911/RbIIA-30-RbIIR-1280-1959.psd
# Power spectrum* (dif=0,1,2) (really just |FT|^2)
# NOTE: only the first half! (symmetric)
# weeks: 1280-1959
# 540 clock-days, 137 excluded
# PSD: 1441
5945.69 0.171742 0.0236863
247666 4.9078 0.0138357
1.14277e+06 23.7983 0.0144851
188319 7.00331 0.0136995
130971 9.55578 0.0150463
79943.4 7.41852 0.014758
55868.4 8.91393 0.0143515
42855.2 7.72348 0.0151933
44261.8 12.4132 0.0170023
39428.4 13.7383 0.0179523
29311.1 12.4658 0.0174381
25879.4 11.9439 0.0210822
14308.5 9.63352 0.019202
11879.4 8.74648 0.0199824
15405.6 12.6616 0.0241284
9962.02 10.5345 0.0281682
12496 13.5204 0.0275674
9841.08 11.4256 0.0290957
7342.85 8.7407 0.0278797
5400.83 6.56546 0.0248847
5092.58 6.9708 0.0235013
6346.6 11.041 0.0333855
6268.14 10.5202 0.0374966
4137.64 8.75252 0.0300669
4630.45 8.39125 0.0345828
5040.96 11.1032 0.0417314
3545.03 10.4167 0.0497015
3322.77 8.28978 0.0342345
2691.13 8.2148 0.0464774
2429.3 8.27376 0.0469258
1814.45 6.08096 0.0400298
1986.89 6.92402 0.0429791
1786.67 5.92521 0.0431012
1700.67 7.30603 0.0506688
1960.42 9.00354 0.0606312
1957.31 8.97555 0.0561335
1258.47 5.71289 0.0467995
2005.37 10.1767 0.0696919
1300.66 5.68749 0.0545027
1607.41 7.84757 0.0633494
1219.85 5.84521 0.055549
980.102 5.44966 0.0560308
1267.9 7.08984 0.0746373
992.357 6.49748 0.0703973
942.14 5.39073 0.067222
1139.56 7.85628 0.0865203
909.045 6.25639 0.0771489
822.906 6.90157 0.0842322
791.257 6.30082 0.0852792
692.766 6.52537 0.0824833
659.808 6.25043 0.0811058
737.85 6.99745 0.0947374
598.064 6.52214 0.0996648
620.811 6.28442 0.0948036
524.037 6.45818 0.101297
569.133 6.24216 0.100747
584.428 6.54117 0.108669
647.359 7.63525 0.135755
594.959 6.62875 0.112099
553.934 6.85943 0.122792
566.635 7.10692 0.129509
467.135 6.36869 0.124345
514.872 6.9339 0.136674
454.361 6.44342 0.135932
459.93 6.80784 0.141919
537.309 7.32397 0.164154
396.767 7.05021 0.153451
507.111 7.70019 0.184463
425.69 7.23521 0.170842
457.339 7.73074 0.190445
455.598 7.2061 0.176476
424.173 7.9905 0.201523
427.689 7.6383 0.199129
346.591 7.35703 0.196047
369.576 7.26024 0.200594
361.1 7.62467 0.223375
375.533 7.46564 0.214567
341.963 7.7351 0.232664
322.128 7.18723 0.221664
322.431 7.19265 0.228479
308.231 8.47501 0.266925
336.103 7.79851 0.267081
319.353 8.24461 0.270388
318.122 7.78211 0.265875
363.931 9.06327 0.316059
274.339 7.85024 0.28105
295.777 8.3327 0.30829
308.353 9.06791 0.329517
311.988 9.19115 0.348354
294.358 8.88181 0.34212
277.134 8.65714 0.336957
277.622 9.19961 0.360823
272.219 8.63537 0.358286
262.006 9.44197 0.401155
265.565 8.82481 0.386578
270.195 8.90803 0.395172
254.883 9.28307 0.419694
258.388 8.7621 0.400269
258.59 9.18996 0.427257
264.678 9.3624 0.450252
271.903 10.4166 0.513611
264.546 10.1759 0.505483
252.179 9.87811 0.491243
240.984 9.63774 0.494454
232.997 9.82306 0.508222
227.232 9.57222 0.51527
236.482 9.99661 0.539858
219.648 10.1083 0.565279
207.583 9.31145 0.532134
217.5 9.92276 0.571842
216.971 10.7427 0.627688
214.922 9.78531 0.593934
209.856 10.8754 0.659359
209.781 10.6398 0.663997
203.478 10.1884 0.648039
217.541 11.2498 0.720187
217.944 11.1943 0.725973
216.84 11.6244 0.754737
192.197 10.4146 0.70417
190.798 10.337 0.70989
184.487 10.5697 0.735753
199.422 11.662 0.822388
174.292 10.3376 0.733243
189.097 11.0722 0.814415
178.536 10.9209 0.820297
184.414 12.0294 0.91788
180.875 11.4958 0.861098
174.534 11.2158 0.884061
174.209 12.1375 0.937188
160.852 10.3759 0.832473
166.13 11.5874 0.947273
179.151 11.5385 0.927906
174.867 12.369 1.02115
184.255 12.4817 1.05912
164.147 11.1668 0.976046
161.908 12.078 1.03396
157.866 11.8704 1.049
151.792 11.6973 1.06138
166.899 12.2733 1.12025
155.946 11.9016 1.08864
157.117 12.0539 1.12151
156.918 12.5616 1.18552
139.015 11.3265 1.09301
145.626 11.9092 1.15387
158.62 13.133 1.30665
153.912 12.9546 1.29938
145.171 12.4862 1.2734
143.623 12.3711 1.28726
149.663 12.9223 1.34224
136.673 11.9333 1.25484
152.063 13.3612 1.41392
153.34 13.7353 1.47088
143.233 13.4689 1.4734
143.178 13.4271 1.50166
135.603 13.1972 1.47873
142.818 13.5859 1.54138
150.641 14.3129 1.64007
124.539 12.0389 1.44289
130.303 13.1072 1.53098
134.955 14.2848 1.72016
123.314 12.7702 1.55308
130.807 13.6197 1.67428
137.454 15.006 1.89192
134.706 14.3727 1.7903
124.242 13.5876 1.72439
129.531 15.5333 2.00883
137.314 15.6519 2.03104
131.006 15.0775 2.03039
138.148 14.8628 1.9898
123.077 13.2077 1.79062
119.579 14.1034 1.89297
127.053 14.6746 2.07643
130.987 16.0361 2.21853
119.09 13.775 1.96065
122.7 15.4902 2.2496
120.255 14.5041 2.08541
129.12 16.2908 2.38457
117.424 14.629 2.17648
118.16 15.3266 2.2681
112.046 15.7835 2.39204
106.985 14.4632 2.1937
114.321 15.1111 2.34601
108.491 14.3295 2.2254
119.285 16.5231 2.6296
115.598 15.688 2.55571
110.1 15.1609 2.39162
108.774 15.9675 2.56997
107.368 15.9835 2.67522
101.007 14.5544 2.45693
121.194 17.0422 2.83318
104.699 15.8615 2.71127
107.779 15.6917 2.71995
105.5 16.0623 2.83052
115.362 16.9162 2.97486
109.367 16.6889 2.91293
100.532 15.9922 2.87477
104.602 16.341 2.93316
96.8327 14.9649 2.69533
94.6699 16.2923 3.04758
101.511 16.3404 3.04475
105.306 17.9969 3.35243
92.0184 15.6523 3.0102
103.415 17.1068 3.31596
94.9747 15.448 3.03715
94.5884 16.0726 3.11353
95.6595 16.6538 3.27427
100.348 17.2536 3.42657
105.691 18.4343 3.65987
95.1543 16.3834 3.37396
89.6821 16.4409 3.39976
92.6844 15.9881 3.21988
92.8051 17.639 3.7015
96.8238 17.7331 3.66739
86.9945 16.5513 3.5299
88.2378 17.1731 3.68071
94.1124 17.8909 3.84837
86.2153 16.4235 3.59272
85.7386 16.4699 3.66948
84.4552 15.9298 3.51336
90.4375 17.529 3.96405
96.2754 18.9712 4.31169
80.3134 16.1121 3.74348
81.2154 16.5539 3.78797
77.9347 16.1632 3.7506
90.4936 18.0093 4.24414
81.6865 16.6278 3.91034
80.9307 17.3468 4.18251
82.9739 17.9845 4.31949
80.7259 17.1635 4.19749
83.9084 18.2969 4.48404
77.9707 16.7726 4.15423
80.0875 17.7248 4.45838
76.9567 16.8062 4.17925
79.015 18.0744 4.68269
77.5403 17.108 4.30675
78.1491 18.2612 4.67245
72.054 16.4626 4.32119
76.3418 17.1115 4.52432
74.6622 16.979 4.42787
77.7182 18.1486 4.81279
79.3882 17.5611 4.69687
74.5587 16.7281 4.58677
77.0545 18.222 4.91631
73.4966 17.0744 4.62591
73.779 18.0894 4.9431
76.1381 18.6795 5.25032
75.4892 18.3837 5.16875
70.8199 17.8698 5.05092
68.0073 18.1521 5.31869
71.8668 17.9384 5.14232
70.3587 18.8002 5.5382
67.4639 18.1021 5.29398
66.5055 17.2836 5.16426
69.7088 18.5627 5.47265
69.7579 18.1542 5.4274
68.6272 18.075 5.47673
62.3832 16.9648 5.21935
74.5136 19.6316 6.05119
68.6724 17.8258 5.5386
65.7182 18.8597 5.95838
70.1049 17.9757 5.55771
69.8536 18.9964 6.03806
63.8205 17.7247 5.67313
56.8455 16.4708 5.32994
66.8551 19.4401 6.25397
62.6305 17.5514 5.74063
64.166 18.6667 6.05819
63.0187 18.5943 6.05196
62.3921 19.5039 6.56015
62.0405 18.2005 6.17303
62.1396 17.4659 5.88955
62.8258 18.1974 6.16036
57.8741 16.9998 5.84092
57.9602 17.3731 6.01763
56.2555 17.3454 6.05184
62.7145 20.0004 6.96002
56.8107 17.9301 6.49899
60.6977 18.7459 6.54634
53.7134 16.6425 6.05387
63.3599 20.022 7.12058
53.7257 18.9493 6.90569
64.7532 20.3016 7.40538
58.0533 19.567 7.18415
62.908 21.335 7.76142
56.4818 18.6464 6.95314
51.8151 18.2897 7.04897
53.761 18.7375 7.08559
55.4881 19.1526 7.28965
60.1008 20.3888 7.71069
56.2131 18.8875 7.39017
58.4135 19.9691 7.4744
53.7427 18.7225 7.49544
52.9659 18.5628 7.33949
54.3255 19.0173 7.43393
50.9839 16.8926 6.8864
57.0179 20.1414 8.05377
51.685 18.0462 7.35062
53.7753 18.611 7.60418
50.8163 18.2512 7.4892
53.9395 20.037 8.22313
48.3389 17.9674 7.50078
53.5543 20.1767 8.29862
48.5165 17.7598 7.44595
54.3267 20.6529 8.75051
48.6714 18.3631 7.73484
51.2157 19.6067 8.47991
48.8689 18.0664 7.61133
47.9334 17.9999 8.02526
51.041 18.5477 7.88947
49.5506 18.8014 8.24044
48.7446 18.6427 8.14822
49.7374 18.9906 8.39374
51.4812 20.3618 9.03605
45.8364 18.1242 8.39375
50.7546 20.891 9.40832
48.4399 18.9368 8.52408
49.772 20.533 9.57573
52.1736 20.4384 9.29419
49.7635 21.1477 9.83758
44.1997 19.1932 8.82454
42.8579 18.3434 8.80381
48.0939 20.0482 9.48574
45.4124 18.5221 8.72911
49.9682 20.3642 9.56788
45.9114 19.3673 9.20922
49.1901 21.2626 10.0901
44.4239 17.5645 8.52821
43.9299 20.1455 9.93102
47.041 20.6884 10.1004
48.0368 20.6486 10.6418
45.1439 18.7695 9.01194
48.0771 21.4637 10.8541
43.3704 19.5035 9.95125
46.9284 20.5084 10.5026
45.0317 19.8133 10.0362
40.7005 18.3161 9.46977
44.8968 20.5979 10.3233
38.3169 18.0694 9.36701
44.8911 21.5519 11.3662
43.6328 19.5958 10.0558
45.1718 21.801 11.4307
42.2467 19.4138 10.3756
42.0567 19.803 10.6441
41.3724 20.012 10.5153
37.6121 17.6394 9.72499
44.6286 20.2889 10.8055
39.1908 18.2996 9.87744
46.2876 22.0978 11.9999
39.6465 18.5957 10.2552
42.9971 20.2903 11.104
39.8601 20.1623 11.2189
47.0766 23.1197 12.5394
38.3774 19.0125 10.9344
42.4843 22.5969 13.0034
39.8413 21.1488 11.8727
38.8208 20.5005 11.985
37.7531 19.7064 11.296
37.2995 20.1111 11.8512
43.3495 21.3162 11.9335
37.0305 19.3014 11.3574
39.4554 19.908 11.5821
37.882 19.4745 11.7708
40.2322 19.7726 11.4499
36.0802 18.7803 11.186
38.7645 19.7068 11.6258
37.9015 19.0245 11.3926
35.2088 19.34 12.041
35.2676 18.8932 11.5795
38.9548 21.5406 13.1865
39.402 21.7015 13.3023
34.2778 19.098 12.0084
38.2437 20.6658 12.7916
36.2126 20.1622 12.4145
38.8188 21.9474 13.5291
35.247 20.1685 12.9198
39.3143 22.4417 14.2719
35.7959 19.4284 12.1669
34.0926 20.0186 13.0156
31.1505 16.9951 11.2154
36.4746 19.6625 12.3291
34.0188 19.4755 12.8606
34.4241 19.0896 12.3147
36.0521 20.0062 12.8429
35.1699 20.5154 13.3993
33.2398 18.789 12.2294
31.7854 18.8129 12.4835
32.3704 20.2526 13.9104
31.57 19.0705 12.6035
29.6737 18.6592 12.5581
32.9747 19.3686 13.3421
33.5183 21.2168 14.6586
30.9382 18.3985 12.3938
33.3265 20.3252 13.9189
28.3961 17.4866 12.5226
30.7678 19.1275 13.1885
31.7733 18.6263 12.8693
33.5286 20.1997 14.0764
33.0016 19.8381 13.5319
31.6559 19.4908 14.082
31.883 18.9718 13.5868
31.5287 19.7738 14.0382
33.5238 21.1785 15.3178
31.6255 19.8671 14.0592
29.4167 19.9093 14.8191
29.6583 18.6478 13.4546
27.8764 18.7163 14.0747
27.6505 18.297 13.3226
29.5476 19.0893 14.0308
29.504 19.5151 13.9919
28.5579 19.9178 15.0269
30.9158 20.2134 14.9654
25.8094 17.1138 13.0664
30.8699 21.1689 16.169
29.5585 20.0198 15.3249
30.308 19.684 15.427
29.5692 18.9887 14.2729
27.5694 18.6953 14.9039
29.7027 19.6922 14.8
28.6342 20.0868 15.7809
28.8556 19.3504 15.287
30.7696 20.7735 16.051
28.6225 19.3268 15.168
27.0634 19.4865 15.421
28.2822 21.164 17.1022
28.3385 19.4177 15.0813
28.5812 20.4667 16.2118
26.0721 19.3927 15.9935
27.7758 20.1195 16.3174
27.6692 19.5245 15.7086
27.979 19.8217 16.13
30.6156 21.6766 17.2656
27.4796 19.035 15.3317
27.8092 20.017 17.2749
28.5562 19.3206 15.5447
28.4303 20.7536 17.3011
26.9684 18.4794 15.0998
27.009 20.2865 17.0321
24.8387 18.0423 15.5433
26.7743 20.1233 17.0148
25.5866 19.9863 17.1636
26.7461 20.3579 17.8107
26.4204 19.4365 16.4889
24.8698 18.7213 16.2048
26.2365 20.0021 16.5727
24.8685 19.4215 17.0854
26.7108 20.2038 17.3567
26.5629 20.5832 17.6851
25.0767 19.001 17.0376
24.4482 19.0359 16.7611
24.8138 18.6466 16.6905
23.7427 18.1367 16.3463
26.3233 20.919 18.401
26.2146 20.0457 17.8546
26.6423 20.5905 18.3319
21.997 17.0221 15.6715
25.2315 20.9088 18.9991
23.7499 19.3005 17.6505
23.1734 18.3307 16.824
24.1008 19.5106 18.1327
23.3451 19.6513 17.7611
22.9349 19.576 18.0297
22.6563 19.5063 18.6868
23.945 19.7081 18.7524
22.379 18.2343 17.2242
24.1698 18.2883 17.3022
23.5945 19.0893 17.5888
22.4308 18.7463 18.2122
24.6308 20.7738 19.5284
24.0944 18.8097 17.4421
23.6309 20.2809 19.7662
22.8051 19.5809 18.6594
22.6615 19.4252 19.5739
23.5416 20.4685 19.6605
22.0838 18.5151 17.7415
20.2628 17.5525 17.1769
21.7998 18.4002 17.9677
21.0912 19.6144 18.6753
21.2221 18.644 18.5707
23.5391 20.6252 20.2309
20.4978 19.2587 19.4261
20.7639 17.9747 17.9736
21.3007 18.173 17.9019
20.8308 18.5602 19.2491
21.6888 18.1938 17.9095
20.6781 18.223 18.7257
22.1243 18.8673 18.8388
20.3984 17.9384 18.816
23.6178 20.7826 20.8774
20.9304 18.6546 19.6344
19.7798 17.1533 17.2848
18.6124 17.6015 18.9832
19.9346 18.2566 19.1409
19.9168 19.0983 19.6011
21.271 19.4535 20.3358
20.9471 19.453 20.383
18.6389 18.3448 19.3344
18.6756 17.4818 18.7253
18.6941 18.2149 20.3203
20.7108 19.1979 20.4472
19.187 18.4258 19.6455
20.4433 18.1714 19.5342
20.9938 19.2192 20.0536
18.1183 17.0816 19.3154
19.7429 17.8857 19.9039
20.7322 19.5286 20.6854
19.88 18.587 20.1734
18.3969 17.2279 19.7872
19.4526 17.7434 19.4155
19.3074 17.738 19.1969
19.1083 18.766 20.7089
18.432 18.6275 20.433
17.9529 18.0549 19.8515
18.3982 18.622 20.9094
19.5004 19.6958 22.3441
18.788 18.5368 20.6946
18.4006 18.5043 21.2821
18.4216 17.648 19.65
17.0031 18.0053 20.9107
18.6906 18.686 21.5382
18.1793 17.8474 20.8099
17.0376 17.2545 20.4484
18.749 18.9719 21.9538
19.4259 18.7826 21.4149
16.8537 16.9017 19.935
17.2875 17.1535 20.7363
18.2345 17.5987 19.7839
16.2698 16.3555 18.6186
15.8344 17.1968 20.8973
16.0059 17.012 19.8638
16.1788 17.5904 21.0033
15.8959 17.2776 21.0789
16.6368 17.6393 21.4381
16.7493 17.6261 21.5085
16.8388 17.224 20.0081
16.2098 17.7872 21.1218
16.7614 18.7905 23.3911
16.9522 17.7567 21.6749
17.2761 18.6219 23.476
17.8128 17.9242 22.1274
17.7036 18.4418 22.439
16.7791 17.4959 21.5552
17.3493 18.0787 22.4364
17.4127 18.7314 23.0649
16.2162 17.1676 20.9726
15.0774 16.5561 21.4619
15.3192 16.7545 20.6858
16.0042 17.7661 22.1076
15.6845 17.2075 21.4746
14.4165 16.5505 21.1336
15.4717 16.9334 21.601
15.7796 17.6793 22.9182
15.233 16.9014 21.6713
14.7514 16.9643 21.7947
16.1887 17.3691 22.2609
16.4587 18.1864 23.9971
16.0683 18.152 23.9478
16.1429 17.8752 22.9701
16.6242 18.3689 24.0257
15.5 18.1621 23.5679
16.1996 17.4634 21.9897
14.0683 16.1462 21.6563
15.6145 18.2396 24.2242
15.3279 17.3699 22.7366
13.9105 16.5777 22.8156
15.1531 17.4476 22.7709
14.0656 16.3614 21.2628
14.2511 17.3544 23.4092
14.7864 18.1581 24.7985
15.4294 17.6542 23.2873
14.9917 17.5665 23.1518
15.8217 19.7335 27.653
14.8521 16.3013 21.9984
15.2459 18.0213 24.4369
14.7913 17.9308 25.2305
15.3871 17.6534 23.7108
14.9532 16.9731 23.2364
14.3763 16.3194 22.8839
15.1407 18.8216 25.8031
14.7385 17.0872 23.4615
13.3097 16.9187 24.4187
14.9296 18.3445 24.6888
13.0176 16.7828 23.9774
13.6767 17.3642 24.7317
13.9741 17.5414 25.025
14.5939 17.5143 24.3004
13.254 16.5087 24.4252
15.1092 18.8744 26.8197
14.4086 17.1738 24.6765
14.8629 18.7679 26.1047
14.2826 17.4486 24.1055
13.694 17.4031 25.1153
13.8315 16.3022 23.3951
14.6969 18.1849 26.4582
13.3933 16.7007 24.4286
13.6894 17.1047 25.0275
12.2075 16.1492 24.8518
14.7828 18.0926 26.5785
13.2979 17.4204 25.1119
12.5263 16.1396 23.8931
13.7063 18.1491 26.8777
13.0683 16.8555 25.5009
11.7936 15.381 22.879
12.8456 16.911 24.0672
13.0221 18.3983 27.9356
13.4115 17.1138 25.555
12.1938 15.9852 23.5867
12.286 15.886 24.8868
13.5595 16.9331 25.4964
12.9097 16.1127 24.3525
12.6508 16.8969 26.6044
13.0212 16.3795 24.7613
13.4621 17.4737 26.0709
12.9965 16.6715 25.1833
12.2897 17.0046 26.8162
11.3782 15.2665 24.3248
11.9875 15.6419 24.4506
12.4054 17.3763 26.1207
12.2061 16.7593 27.0667
13.1102 17.6776 26.9963
12.4227 16.9967 25.6221
12.5155 18.0611 28.5261
12.9628 17.5399 26.5642
11.637 16.3745 25.7627
12.4621 16.9421 26.6261
12.1059 16.5745 27.4861
12.8746 17.262 26.4433
12.301 17.5259 29.1451
12.3194 16.4791 26.8124
12.5733 17.1608 28.0685
11.7648 16.2613 25.5758
11.3257 15.2719 25.2387
11.6293 16.1164 25.7009
12.1917 16.9711 27.512
12.0214 16.4157 25.794
10.9167 15.0264 24.7516
11.1047 17.081 28.769
12.7712 18.2346 29.4771
12.1324 16.3479 26.6484
12.318 17.2243 27.484
11.3391 16.301 28.0418
12.1642 15.9941 25.5552
11.2665 16.4449 27.0129
12.2585 17.6339 28.7382
12.19 17.433 29.89
12.3192 16.3716 26.3105
11.1749 16.8081 28.6264
11.3578 16.5881 27.3491
10.6396 15.7081 27.4125
11.4731 16.1778 26.6601
11.1434 15.9101 27.1746
11.1785 15.989 26.71
11.2526 16.4156 27.0424
10.069 15.719 26.9771
10.2506 15.7866 27.7208
11.458 17.1729 29.4821
11.668 16.3503 26.8349
10.7716 16.7729 29.0305
10.4621 14.5634 24.8906
10.7923 16.3085 28.3997
10.7075 16.6322 29.6059
10.6932 15.2427 26.8615
11.4429 16.4894 28.1086
10.5751 15.131 25.8507
10.2118 15.9222 28.0367
10.2586 15.0048 26.4782
10.2807 15.7642 27.575
10.251 16.5951 30.8034
11.106 17.1343 29.0969
10.2223 15.6313 28.3702
10.5005 16.3468 29.3503
10.4731 16.3552 28.0331
9.69171 15.0842 28.3905
9.90821 15.5231 27.4599
10.5989 16.8655 29.5446
9.3643 15.4949 29.2711
10.6535 15.8595 27.9404
9.93301 15.5038 27.9576
10.3333 15.7726 28.9492
10.7664 16.9002 29.8018
10.8343 16.2785 29.2769
10.6085 17.1399 31.0089
10.7099 16.4187 29.8332
10.9203 17.3216 30.4662
8.96035 14.5298 28.8822
9.62241 16.2414 30.7618
10.7231 17.0172 30.4983
10.7052 17.4624 32.4563
10.0456 16.0058 29.14
9.02137 13.7779 26.7074
9.7955 15.8216 29.8926
9.78839 15.5519 28.7314
9.89849 16.1949 29.4401
9.28315 15.5994 29.6338
10.4153 17.0586 32.1918
10.2941 16.0818 30.6074
9.65105 15.1924 28.9484
9.69447 16.3173 31.3099
9.75309 15.57 28.7651
9.66695 15.2525 28.4665
9.77769 17.4178 33.6605
9.61393 15.2001 28.9991
8.84846 14.3889 28.6449
9.4148 15.3091 29.3563
9.4012 16.1738 30.6852
9.21389 15.3009 28.7514
9.00865 15.2484 30.2796
9.44595 15.6529 29.4963
8.98737 16.1005 31.2387
9.12638 15.59 30.247
8.82365 15.0781 29.6691
9.61127 17.6208 34.3671
9.21879 15.2518 31.9724
10.188 15.9046 30.0163
9.69266 16.1527 31.8718
9.47098 15.7238 28.5313
8.06978 14.8279 31.2066
9.48382 16.4646 32.9292
9.09148 15.0748 30.1056
9.44126 16.1273 31.9256
9.58222 16.5876 32.8344
9.31277 16.2267 31.7907
8.70467 15.8522 31.1633
9.09881 16.26 32.2113
8.32793 14.9282 31.3166
8.99312 15.0765 30.6336
8.75434 14.8679 29.4843
9.18961 16.6211 33.2669
9.09801 16.5124 33.8209
8.70333 15.3204 30.8998
8.40781 14.7795 30.8111
9.04215 15.3377 31.6266
9.4187 16.1558 32.6988
9.1912 15.6331 32.8515
9.22774 15.9726 33.0237
8.85125 15.5291 31.1368
8.60763 16.1399 33.8353
8.93912 17.1239 35.9205
8.4093 15.5027 33.9533
9.42348 15.7314 31.2966
8.62895 15.9061 33.0306
8.22702 14.8624 31.6755
8.16933 14.9106 32.1323
8.43669 14.382 28.6311
8.63733 16.2648 33.956
8.70501 14.941 31.6009
8.2479 14.8416 32.9051
8.92606 16.1442 33.4379
8.52906 14.9007 30.8035
8.30611 15.5845 33.6337
8.57462 14.9429 31.655
9.31917 17.179 34.8013
7.92539 15.2753 35.3621
8.55332 14.6449 30.2603
7.5801 14.6153 31.8049
8.05642 14.2578 30.2173
8.67909 16.2149 33.6399
7.8794 15.3548 33.0539
7.95932 15.3865 32.2462
7.53353 15.0734 34.0694
7.47588 14.8957 32.6306
7.77289 15.6125 33.7534
7.95874 13.9517 29.3926
7.1373 14.0684 32.5924
8.44568 15.4644 33.4401
7.94432 13.7875 30.3445
7.69944 14.6426 34.3525
8.89748 15.4278 34.3192
9.02434 15.4889 32.1083
7.79145 14.8406 34.5822
8.44716 15.9123 35.6482
8.6609 16.0982 35.0412
8.19279 16.3118 35.2265
7.47546 14.5182 33.4239
7.60216 14.475 32.4971
7.93305 14.7818 31.7597
7.37756 14.0363 31.7826
7.5247 15.6607 36.6327
8.29687 15.6805 32.8606
6.79635 13.5159 30.6663
7.5514 14.5357 35.0812
8.95924 16.9687 35.2722
7.1719 13.7999 33.037
7.86397 15.4048 35.1311
8.39239 15.7829 34.0479
7.43698 14.3783 32.3842
7.03863 13.9523 32.6105
7.75909 15.0068 35.0291
7.88189 14.1562 32.6409
7.52266 14.5406 33.7435
7.91866 16.0854 34.8175
7.10322 14.8401 34.8632
7.01741 13.6124 31.0717
6.87209 14.22 34.658
7.84155 14.572 33.8845
7.44286 14.9696 33.4361
7.33988 14.4616 33.9906
7.37885 15.343 36.2908
7.69577 15.2891 34.5846
6.92935 13.6783 32.4029
7.56831 14.8331 33.9725
7.41277 15.0002 36.4615
7.71845 14.6056 33.1209
7.25081 14.6554 34.6175
7.1125 14.0716 33.0704
7.23051 14.2359 33.9091
7.3519 14.1572 33.1359
7.20458 14.6628 32.5966
6.68199 13.7596 34.5512
6.90185 14.7071 35.4257
7.12936 15.2887 36.9762
7.25922 14.3328 33.5394
7.02588 13.8576 31.8692
7.14002 14.2326 35.4785
7.10311 14.043 34.0038
7.3552 14.8629 34.1757
7.06901 15.3678 37.1145
7.25093 14.7011 33.4387
6.00407 12.1105 30.6362
6.8324 14.9016 36.7041
6.62766 13.6932 34.7873
7.01643 14.641 34.8657
6.74169 14.2411 34.7106
6.48651 14.3566 36.1572
6.97325 14.1669 34.4298
6.8919 14.8278 37.1057
6.93623 13.9564 34.8114
6.76262 13.6496 33.3295
6.59403 14.1347 34.3884
6.91489 15.0483 37.0787
7.43998 15.9708 37.6056
6.67164 13.9899 35.139
6.76647 14.2038 35.3956
6.49062 13.2167 31.958
6.23716 13.6159 34.0787
6.56673 14.3888 35.6928
6.27454 14.2772 35.947
6.88457 13.7089 34.6591
7.06169 15.1212 37.0911
6.6879 13.7511 37.1106
7.27811 14.7937 35.5812
6.84277 15.0926 36.7267
6.47725 13.7402 35.756
6.79265 15.5399 38.0095
6.46793 13.5427 35.5975
6.57043 13.998 35.7005
6.44407 13.9086 34.7561
6.38636 14.2152 34.5091
6.3167 13.7789 35.802
6.45339 14.268 36.4886
6.94643 14.284 36.1828
6.695 15.3863 39.7354
6.88166 14.9397 38.7668
7.13427 15.2902 38.6377
6.75478 14.354 37.1729
6.62 14.0293 35.4839
5.94762 13.1477 35.0064
6.16464 11.9038 31.8553
6.31079 14.8189 38.0161
6.41015 13.6755 35.0247
6.0066 12.5718 30.9808
5.82419 13.9155 35.7962
6.22249 14.5745 38.6886
6.46816 14.2248 38.0223
6.73413 14.8669 37.4142
6.09681 14.0929 38.5985
6.22623 14.3182 35.9651
5.89939 13.3724 36.6857
6.71217 15.6973 39.1264
6.186 13.9148 36.8713
6.36122 14.8425 40.7407
5.93638 13.0562 34.7667
6.19746 14.4781 38.6721
6.38856 13.5953 35.6849
5.97409 13.6014 35.4775
5.95525 13.1986 35.9524
6.15209 13.3343 36.168
5.82637 13.9027 37.3012
6.41542 14.4588 37.088
5.75832 12.6697 33.0596
5.58307 13.6958 37.528
5.93907 13.1198 34.6279
5.66764 14.4755 40.1021
6.12278 14.1993 39.5987
6.3509 14.4481 38.3186
5.94053 12.8412 34.577
5.81687 14.5674 39.7299
6.38445 14.1107 38.4573
6.09547 13.6845 36.9929
5.79366 13.7965 35.6868
5.67827 13.371 36.2041
5.74953 13.8209 38.9637
6.26549 13.8196 34.937
5.63542 13.3074 36.4691
5.67054 13.9488 40.0446
6.25583 14.5587 38.4669
5.62551 14.2925 41.6624
6.38354 14.2715 37.2166
5.63614 13.3835 37.0781
5.83237 13.276 36.6069
5.76195 13.8626 39.7359
6.24399 14.1519 35.8053
5.33373 13.2956 38.4535
5.30795 11.9835 31.8026
5.23826 13.3189 38.0083
5.38493 12.892 37.3203
5.80054 13.5446 38.7535
6.03261 14.299 40.7302
6.31885 14.0514 37.5277
5.71771 12.877 35.1574
5.54168 13.8204 41.2116
6.19221 13.8967 37.9218
5.62232 12.6115 33.2347
5.68093 13.4267 36.2611
5.06577 12.6902 36.9455
5.23875 12.379 34.915
5.22284 13.4434 40.6663
6.04103 13.4818 36.4042
5.94175 14.0792 38.7147
5.42418 13.9279 38.773
5.32786 12.4502 37.2732
5.5108 13.6036 35.9167
5.20175 13.5674 38.8811
5.34653 14.0206 40.8135
5.44213 12.3228 36.0612
5.537 13.4894 36.6121
5.52007 14.3071 41.5371
5.8489 14.0947 40.7664
5.26679 13.013 36.9084
5.19657 13.1337 38.3244
5.51937 13.2286 38.5031
5.57248 12.8627 36.4342
5.1846 13.1682 36.1867
4.72223 12.4466 39.7608
5.30226 13.5231 40.5421
5.58617 13.5993 38.728
5.55316 13.7889 39.7728
5.40094 13.3984 39.6038
5.56812 14.4675 41.4753
5.53437 14.1725 38.6522
5.04448 13.0449 39.0232
5.50044 13.6314 39.5603
5.34267 14.0607 40.6894
5.12768 13.192 40.7468
5.57021 12.7849 34.9996
4.75672 12.3864 37.6319
4.65818 12.294 41.2424
5.66194 13.6282 40.6759
5.71356 13.4381 37.4215
5.26315 12.8202 38.708
5.36288 12.6266 36.2751
5.28127 12.6448 37.1228
5.21071 12.9941 36.9423
5.14413 14.2884 42.1002
5.48071 13.2807 40.0105
5.38837 12.3699 36.6813
4.97508 13.6836 42.6136
5.13635 12.0575 37.2571
5.15106 13.2657 36.8884
4.75609 12.3521 36.5032
4.81154 12.3436 36.7005
4.98043 13.0199 37.8836
4.93262 12.062 38.3586
4.97039 13.2769 40.5011
5.17422 12.5208 37.9443
4.85206 12.5668 39.697
5.15222 13.2017 40.788
5.46522 13.8996 41.0178
5.23126 12.7716 38.7728
4.94467 12.9139 40.2925
5.4496 14.0492 37.844
4.57157 12.4719 38.3889
4.54171 11.3617 35.6258
4.98769 12.3349 38.4895
5.14739 12.7557 38.5185
5.21373 14.5669 41.1386
4.63512 12.5498 37.7042
4.65284 11.7098 36.2059
4.76706 12.0789 39.1674
5.02739 13.0365 42.2368
5.44165 14.0304 40.9276
5.10349 12.9211 37.6427
4.86265 13.8165 42.9266
5.02736 13.1338 38.5777
4.85643 12.8186 41.1961
5.14219 13.2589 40.0792
4.814 12.9643 42.5908
5.20273 12.8785 39.8509
4.95678 13.1909 41.3809
4.64955 12.7902 39.467
4.66122 11.8838 39.4462
5.00968 13.3229 39.2201
4.77114 12.8367 39.812
4.71089 11.8576 35.986
4.43679 12.4304 39.7223
4.71587 12.2891 39.1811
4.50288 11.6753 38.0643
5.00074 13.0778 38.0518
4.58792 12.1179 40.2778
5.22344 12.9573 39.4931
4.75907 12.8644 38.585
4.88562 13.1446 43.8588
5.07222 14.2641 44.0718
5.16736 13.4696 41.8947
4.65749 11.7246 38.1951
5.03988 13.5262 41.6469
4.93008 12.8678 40.6624
4.71806 11.9939 39.1529
4.67413 12.3904 37.8088
4.50609 12.5061 39.5813
4.77404 14.15 43.4234
4.74872 12.4776 39.9928
4.56382 12.1941 39.1981
4.5768 12.146 38.4143
4.57762 12.7489 42.9031
4.74988 12.0953 37.6349
4.46571 12.4858 42.2195
5.03568 13.2382 41.0807
4.84237 12.2875 37.9889
4.78585 13.4346 43.3113
4.75802 13.6658 42.3745
4.40664 12.2633 40.5417
4.51405 11.4979 38.4133
4.70519 13.4374 39.7329
4.19646 12.2316 40.5181
4.62159 12.7853 41.1596
4.35514 11.8532 41.6226
4.71819 12.5348 40.1015
4.44034 11.5003 36.24
4.2532 12.1689 41.3601
4.67637 12.0149 39.2428
4.62759 12.4669 39.0154
4.24723 11.6471 36.9056
4.22934 11.2536 36.621
4.38389 11.7409 39.3854
4.6666 12.3789 38.148
4.2948 11.4672 38.8473
4.62346 12.925 44.1684
4.73929 12.3585 37.3291
4.08595 12.0675 40.7326
4.42699 12.3073 42.5331
4.76189 12.2802 38.2363
4.27189 12.0744 42.3431
4.73042 12.2854 37.6006
3.89183 11.3012 38.9951
4.24682 11.6775 37.5891
4.43559 12.3948 40.4664
4.36017 12.4952 39.5555
4.33247 11.6101 36.7518
4.01269 11.7733 38.1283
4.11913 10.3321 39.1237
4.70621 12.6768 37.1188
3.93117 12.476 42.3418
4.34766 12.0599 42.3108
4.59961 11.8984 38.8883
4.10805 11.5842 40.8955
4.79418 12.7489 40.5282
4.25485 11.8974 39.5745
4.23277 12.3997 40.848
4.27683 11.0808 40.5013
4.46876 12.162 37.3641
4.18457 12.3729 40.5093
4.08633 11.6217 38.931
4.40743 12.1893 38.7334
3.92345 12.5344 44.4811
4.41847 11.493 39.9491
4.54098 12.2414 41.448
4.64279 12.2392 38.5505
4.06171 12.4872 45.8674
4.8669 13.3428 41.8702
4.11641 12.0367 41.9408
4.37399 12.2545 43.5923
4.52115 12.2107 40.1363
4.31828 11.8752 39.4161
3.92421 11.1166 38.5872
4.17877 11.725 38.4832
3.99561 12.2827 42.0264
4.27613 11.0669 38.887
4.3101 11.4864 39.8778
4.32443 12.6087 38.5331
3.87489 11.5697 41.3577
4.18105 11.8948 40.2273
3.95834 11.4784 39.2849
3.97002 11.7984 39.5172
4.02924 11.4817 38.6674
3.84135 11.0234 38.9514
4.1207 11.5247 43.0991
4.58052 12.4169 41.5566
4.48753 12.3594 40.372
3.94568 11.6375 40.245
4.09981 12.3876 42.9726
4.39909 11.6954 39.2849
4.06053 11.1715 39.0742
4.03355 11.3473 40.6042
4.16393 11.8123 41.5068
4.09438 11.009 38.3606
4.10401 12.3054 40.6184
3.82196 11.3549 41.0439
4.09773 11.1326 36.9724
3.87298 11.4059 41.0908
4.28794 11.7705 41.6027
4.10064 11.6681 36.5636
3.65673 11.468 42.112
4.14955 11.9551 41.7863
4.13223 11.6492 39.3613
4.18896 12.6144 43.5388
4.24405 12.0312 43.2306
4.26998 11.2229 38.0635
3.80404 11.1701 39.5681
3.97805 11.1603 36.0079
3.4508 10.1466 39.7525
4.23516 12.194 42.2637
3.97923 12.0369 44.2045
4.14337 10.6839 37.1749
3.92444 12.6346 45.0707
4.1069 12.6554 40.2319
4.05071 12.2744 43.6542
3.99899 11.5956 38.0117
3.65573 11.1585 45.231
4.17857 11.9118 38.7438
3.78832 11.65 42.7522
4.26739 11.3878 39.5583
3.93381 12.1299 40.5621
3.8593 11.588 41.9231
3.90391 11.6251 40.1983
3.77821 10.3581 39.9544
3.86273 12.1723 43.9163
4.12163 12.056 40.5857
3.87952 11.9612 44.2103
4.32341 12.4719 41.1427
3.79234 10.7525 40.3382
3.89507 11.6168 39.127
3.59716 10.4902 38.5057
3.637 11.6871 40.4168
3.73693 11.1614 41.9157
3.94976 11.6815 40.5962
3.67419 11.3998 42.4562
4.10298 11.7487 40.3702
3.56279 11.4872 41.4952
3.91734 11.0591 40.8442
3.78891 11.7231 42.6747
4.29247 12.1629 41.2471
3.9808 11.6724 42.6084
4.01808 11.447 41.7123
3.92189 11.3907 40.0277
3.72497 11.1419 38.7444
3.75933 10.7227 44.6235
4.39289 12.1694 40.8486
3.74477 12.2853 43.6748
3.85609 11.2506 40.7166
3.8357 11.911 42.8964
3.92659 11.6806 42.6552
3.82073 11.6083 42.8431
3.82824 11.5965 43.0957
3.91857 12.3812 42.4173
3.89257 11.8977 43.2227
3.9539 11.6494 42.2171
3.81854 11.2594 39.3484
3.50587 10.8711 39.7736
3.84306 11.7655 45.1962
4.13688 11.8408 43.4368
4.27864 11.1038 41.2675
3.89516 11.588 39.6517
3.77948 11.0705 42.8583
4.01085 11.7449 43.597
4.03996 11.7978 44.9411
4.13826 11.8449 41.7593
3.91755 12.1378 41.3166
3.46851 12.1375 43.5283
3.93413 11.2537 40.9896
3.55827 10.8943 40.151
3.64481 11.2107 41.2916
3.78345 11.0228 40.082
3.62498 11.8398 43.1137
3.85681 11.385 40.0814
3.50333 11.1017 42.9669
3.74919 10.6464 42.3895
3.9985 11.9072 42.0699
3.97879 12.205 43.7493
3.79506 11.8093 42.0885
3.89192 10.5457 37.2014
3.46093 11.2233 43.0278
3.64897 11.6247 43.3655
3.73349 11.1859 44.7742
4.04572 11.1689 39.6901
3.6692 12.0882 43.0468
3.67995 11.6336 42.727
3.5715 10.6427 43.0359
3.72692 12.1751 44.903
3.6406 10.6068 40.0225
3.57886 11.7708 41.4888
3.55433 11.8292 41.6927
3.71502 10.9099 42.4436
3.80523 11.4595 42.5089
3.74868 11.3186 43.5866
4.03093 11.7669 42.0603
3.66549 10.7837 40.4123
3.7405 10.5561 39.2841
3.60437 10.5446 39.6802
3.47638 10.8135 40.8567
3.74805 11.2987 40.433
3.34327 10.4757 38.5594
3.31115 10.949 40.0171
3.55356 10.3919 39.9549
3.56113 10.4243 39.69
3.44595 10.6753 41.779
3.49771 10.9718 42.1742
3.8685 11.3013 40.679
3.46354 10.8886 40.1306
3.47217 12.3901 45.4046
3.78175 10.6317 40.0827
3.64935 10.2512 42.7354
3.85668 11.4173 38.8545
3.57673 11.6198 44.5354
3.86952 11.6163 41.1726
3.68718 10.7623 43.8455
4.14352 11.5549 41.4172
3.54018 11.1671 42.4858
3.64139 11.031 39.5189
3.44665 10.8167 40.7614
3.46018 11.5983 44.7355
3.65149 10.8462 39.7161
3.32788 10.0159 39.6286
3.38723 10.6747 39.4729
3.33135 10.3757 42.3973
3.63889 11.0654 38.3433
3.33548 10.1499 40.1693
3.48511 11.2931 42.6915
3.67692 12.605 42.0748
3.61719 10.9032 42.8017
3.57315 11.8872 44.1933
3.79638 10.5 41.323
3.55273 10.4952 40.035
3.44524 11.0259 41.134
3.67706 10.7293 41.4165
3.56147 10.7763 41.2385
3.50327 11.5583 45.2524
3.63537 11.3634 39.9829
3.28459 11.4684 43.731
3.51141 10.2419 39.7708
3.4793 10.3784 40.0507
3.50906 11.3117 44.7642
3.628 11.2574 43.5087
3.6001 11.4532 43.084
3.67557 10.9694 40.4356
3.46601 11.195 43.7179
3.4588 9.88209 38.4778
3.48288 10.6088 39.0644
3.35309 10.4896 40.1173
3.44383 11.0417 43.6681
3.68953 10.5567 41.5425
3.65292 11.5295 41.2244
3.3505 10.2848 39.0243
3.29604 11.0002 43.1071
3.62427 10.8203 39.4302
3.14403 10.924 44.3294
3.45848 11.1594 42.185
3.14079 10.3339 40.5681
3.36717 10.7096 38.2424
3.1645 10.9813 40.3246
3.23225 11.0398 42.6492
3.5097 10.3506 41.686
3.60458 11.1514 44.4903
3.65617 10.4362 39.8589
3.5584 10.5361 42.1932
3.78265 11.7087 43.3253
3.58758 10.4541 39.8163
3.41246 11.1866 42.7214
3.69595 11.8094 44.4307
3.59097 10.471 43.6168
3.60618 11.3648 39.8416
3.31605 10.8302 42.297
3.45789 11.1578 42.5486
3.35171 10.0476 42.1296
3.45306 10.9922 41.5349
3.38078 10.3118 39.2039
3.24076 10.6464 42.7032
3.28515 10.5491 41.9305
3.33012 11.3959 41.7363
3.41479 10.5171 43.0343
3.45501 11.3909 45.6487
3.62197 10.3075 38.7687
3.40714 10.6968 43.0403
3.51715 10.4749 42.5132
3.79437 10.7009 40.7269
3.46409 10.327 41.3479
3.48488 10.864 39.8214
3.2236 10.1039 38.566
3.33682 9.55261 41.0736
3.27967 11.2756 41.6361
3.48211 11.2496 40.9331
3.30269 9.71915 37.5768
3.07428 11.4897 42.6792
3.25072 10.4082 41.2844
3.35436 10.5999 40.369
3.27322 9.64424 40.4596
3.37824 10.5332 39.5723
3.25179 10.6283 42.7203
3.60416 11.253 41.9625
3.44255 10.5913 40.9089
3.25557 11.0771 44.3051
3.61359 10.4765 39.992
3.35388 10.5003 42.9418
3.481 10.7744 42.8447
3.63814 11.4035 42.003
3.30786 10.2391 42.3138
3.29636 10.5991 44.3068
3.48114 11.3221 38.9086
2.95722 10.2715 38.0642
2.92856 10.7386 42.2681
3.3368 9.99956 43.6114
3.48718 10.7957 37.377
2.92915 10.1127 44.0886
3.46631 10.7238 44.6058
3.45933 10.9629 41.7711
3.44233 10.4164 42.3405
3.57183 10.4615 39.6938
3.3891 11.7495 45.8715
3.68794 10.427 39.3243
3.19852 10.7822 38.6389
3.22168 9.52233 41.1186
3.29702 10.8843 41.3437
3.25818 10.0101 39.006
3.15429 10.7638 40.9276
3.21404 11.3567 46.0216
3.65341 11.3836 43.9894
3.32641 11.1953 40.9932
3.11521 10.3259 42.3088
3.23741 10.2206 42.5409
3.32947 10.6656 39.2436
2.98733 9.99549 42.9946
3.45892 10.5668 42.6491
3.47147 11.2501 40.1716
3.31677 10.3798 41.3033
3.45474 10.7615 42.1959
3.49311 10.9342 42.5159
3.61251 9.81946 39.3454
3.22273 11.0349 43.4561
3.57122 10.3418 41.309
3.30654 10.5706 41.4906
3.34365 10.2616 42.4147
3.42503 10.4921 41.8102
3.28928 10.2044 39.4984
3.12633 10.638 41.3271
3.28199 10.8924 41.053
3.09728 9.94973 38.6233
2.98038 10.6591 43.4221
3.44054 9.28466 42.4845
3.32676 11.2679 42.2958
3.37075 10.9833 41.9277
3.39155 11.1995 41.6137
3.40632 10.0059 42.6664
3.46452 10.9839 45.4581
3.60466 11.0991 43.1391
3.56945 10.9643 44.1705
3.65231 10.4824 41.4635
3.32595 10.5848 42.3752
3.41409 10.1751 38.0271
3.2076 10.7421 41.6939
3.23867 11.0342 43.6345
3.35005 11.0432 42.2073
3.22951 9.87607 41.3186
3.12488 10.3804 43.0368
3.26115 10.3877 37.44
2.77556 9.78067 40.5679
3.12503 10.3823 43.9176
3.54111 10.5521 40.4776
3.25935 9.51485 36.6001
3.05774 10.0722 42.681
3.42715 10.7255 41.2476
3.3548 10.5795 42.8263
3.30812 11.2637 42.5678
3.43338 10.1408 41.5579
3.18986 10.4293 42.6091
3.38376 10.8081 40.937
3.11195 9.84337 40.626
3.12543 10.2248 40.915
3.27293 10.6406 40.3652
3.21675 10.0901 40.6059
3.14144 9.68566 41.3187
3.30602 11.007 42.6165
3.2089 10.8578 43.9994
3.23277 10.2635 41.5329
3.16654 11.055 40.8595
3.20907 10.5525 40.6757
3.27337 9.59134 39.6934
3.11839 10.6041 43.0874
3.55007 10.2528 41.1211
3.57154 10.9157 41.9082
3.54414 10.8296 42.4718
3.19287 10.1835 40.9374
3.2573 10.5002 41.56
3.30962 10.8382 43.3971
3.34794 10.0153 40.6293
3.15094 10.5187 43.5862
3.38095 10.4648 40.343
3.10557 10.1144 43.4669
3.22095 10.4091 39.8798
3.0916 10.0363 38.4889
3.07608 10.4541 39.829
2.96061 10.5989 41.4017
3.23578 9.59787 41.7158
3.31981 9.79283 40.3168
3.23924 10.395 38.4825
3.20171 10.1489 42.396
3.42577 10.3096 38.4025
3.07749 9.98758 39.4209
3.34311 10.3033 45.1176
3.70488 11.8527 43.9947
3.55664 10.1089 44.148
3.35981 10.5907 39.2979
3.08709 10.1909 44.4619
3.33018 11.5427 44.8344
3.50113 10.1951 39.7791
2.99332 10.6199 40.8378
3.08668 10.7427 40.2003
3.1171 10.3138 42.615
3.31382 10.5226 43.7168
3.37183 10.1324 43.831
3.46241 12.0261 43.752
3.46583 11.14 44.4353
3.5371 10.3275 41.5834
3.40104 10.7422 44.2633
3.63188 10.6465 39.2577
3.13396 9.80111 41.7761
3.22087 10.376 45.7013
3.5704 10.9302 40.3608
3.19355 11.0004 44.1392
3.54147 10.7162 42.4102
3.25635 11.2341 42.6762
3.11549 10.1459 41.9557
3.10845 10.0166 41.2616
3.10666 10.3591 37.4962
2.86481 10.6338 45.5724
3.39972 11.0145 41.2405
3.18851 10.4334 42.8183
3.26988 11.0996 44.9088
3.57565 10.7974 45.1446
3.50185 10.7315 45.0363
3.4472 11.61 43.0573
3.44498 10.475 42.3145
3.25428 0 0