# pn-170911/RbIIR-46-KOKB-1280-1959.psd
# Power spectrum* (dif=0,1,2) (really just |FT|^2)
# NOTE: only the first half! (symmetric)
# weeks: 1280-1959
# 7 clock-days, 0 excluded
# PSD: 1441
1169.99 0.102348 0.019044
23413.2 1.05303 0.0192127
278305 7.96649 0.0191968
30112.8 0.935101 0.0187372
12329.7 1.89925 0.0193511
6085.11 0.365589 0.0188714
10380 0.819051 0.0173584
2861.87 0.608269 0.0205167
3284.55 0.20051 0.0203495
3624.11 0.505991 0.0186696
2535.75 0.763944 0.0189428
2255.14 0.624847 0.0180558
2101.47 0.584046 0.0197364
926.515 0.808458 0.0198689
1233.34 0.851685 0.0184904
1315.36 0.762315 0.0183786
1071.56 0.909813 0.0243903
679.417 0.200174 0.0167014
1092.61 0.615214 0.0220824
402.763 0.480336 0.0191703
805.246 0.777688 0.0175202
590.98 0.56524 0.018715
677.109 1.13003 0.0195341
1002.33 0.665604 0.0236077
717.15 1.15661 0.0205847
532.099 0.576293 0.0218723
268.148 0.395359 0.0220017
358.332 1.55961 0.0300219
686.478 1.13545 0.0329401
547.978 0.950509 0.0165014
561.094 1.77024 0.0280689
486.584 1.60662 0.0177659
249.176 1.50275 0.0231422
464.075 1.56309 0.0243591
702.817 2.64957 0.0289973
600.968 3.36119 0.039192
536.81 2.20968 0.02267
578.912 2.48015 0.0273066
235.229 1.74355 0.0313579
535.464 2.222 0.0310909
360.366 2.43798 0.0392444
511.918 3.78042 0.0279421
491.586 3.77752 0.0493975
350.205 2.20044 0.0415391
321.168 2.78682 0.0437004
333.543 2.42935 0.0358258
392.403 3.59172 0.0474793
404.623 4.80595 0.0635255
404.109 3.88836 0.0789604
639.161 6.77579 0.106491
731.604 7.95843 0.107327
253.4 2.93003 0.0636133
658.715 9.24848 0.148787
414.989 6.10755 0.104566
412.423 6.118 0.0774601
1101.53 14.6219 0.273302
415.628 5.77337 0.0820401
499.621 6.02872 0.106918
576.421 6.20555 0.134141
834.077 12.1169 0.275296
447.506 7.71254 0.171679
334.774 7.28087 0.161614
242.581 5.39992 0.114986
612.101 8.87098 0.177911
248.175 5.00587 0.114185
918.181 19.6174 0.436541
1015.52 19.4454 0.392149
187.627 4.42864 0.113944
380.515 6.7469 0.202984
439.778 9.19591 0.239012
263.522 7.01997 0.242065
299.287 5.36371 0.173461
443.728 8.20796 0.216126
395.5 9.04932 0.232255
228.014 6.91887 0.245403
549.09 15.0771 0.359741
343.709 11.5705 0.365148
519.04 15.2021 0.467145
303.972 9.60735 0.279749
238.504 6.14819 0.215758
412.339 11.2469 0.43016
174.63 4.61024 0.141378
365.178 10.9833 0.347353
247.355 7.0223 0.223317
294.879 5.74257 0.250387
258.826 9.68563 0.384402
536.508 14.0143 0.440466
366.625 12.7157 0.425811
268.386 5.5736 0.211258
428.86 13.8577 0.603863
311.238 12.4301 0.515224
341.505 11.54 0.534414
511.343 18.1206 0.711006
142.504 3.85157 0.175743
472.093 19.9639 0.82969
406.187 18.2807 0.824585
497.234 20.867 0.999849
344.552 14.1985 0.636358
143.36 7.83433 0.436438
188.524 8.81861 0.358269
237.038 9.34131 0.459799
294.204 12.6335 0.600822
382.093 18.9431 1.02375
221.943 10.4164 0.667973
394.612 19.8274 1.00188
86.3045 3.27551 0.222767
198.997 9.77657 0.669581
319.132 14.3051 0.715744
59.1486 3.69032 0.209366
404.737 23.3969 1.34003
318.512 17.9343 1.10921
243.346 12.1315 0.868708
174.183 12.3456 0.766884
229.103 13.5265 0.786286
280.914 15.3417 0.912145
339.233 20.121 1.28003
321.604 21.0621 1.50011
404.176 26.4528 1.61522
149.663 8.38526 0.615591
93.8561 3.93446 0.27278
247.849 13.0061 0.844379
147.116 10.8425 0.820102
129.497 7.49589 0.474635
209.483 12.6435 1.00462
287.093 18.1218 1.31903
237.093 15.6771 1.18258
391.861 29.326 2.37475
290.529 24.1172 1.78203
120.087 7.8054 0.689657
145.677 9.55604 0.716274
189.927 12.7461 1.02731
191.513 15.7267 1.42623
264.091 20.8994 1.58876
300.946 22.6338 1.98533
107.938 7.62512 0.73108
258.059 22.2511 2.04095
140.721 11.0822 1.03281
290.629 26.0872 2.44154
326.592 25.898 2.10408
276.586 22.3845 2.1569
187.939 14.5911 1.44063
334.722 31.0399 2.92578
52.3605 6.43191 0.531557
136.14 15.0378 1.34306
215.112 21.8235 2.39352
158.011 17.6502 1.86354
137.672 11.3162 1.26141
91.3587 8.7505 0.836839
96.5387 9.9388 1.20083
162.546 13.711 1.54452
240.746 28.5147 3.18945
300.711 35.2373 3.58845
93.0627 9.35646 1.05362
105.061 13.5105 1.78676
80.5207 10.6648 1.3013
343.675 35.9914 3.78597
195.904 18.7488 2.22804
118.127 10.2657 1.25924
182.95 21.0391 2.74573
73.0822 8.58909 1.00943
187.868 21.1634 2.47642
66.0658 8.99295 1.10252
154.09 19.3887 2.43109
157.43 21.887 3.1349
137.832 13.5009 1.68329
106.678 11.635 1.35728
105.773 13.6336 1.82833
97.652 12.5344 1.62435
157.016 22.3837 3.20939
134.098 21.3086 3.06779
72.6986 11.4877 1.82397
229.056 25.4907 3.12113
126.692 15.4043 2.16086
163.468 23.6069 3.53002
160.274 21.1095 2.9562
141.618 18.2543 2.86395
110.923 15.3305 2.28289
119.039 12.4093 1.58275
117.686 16.8546 2.7096
129.254 17.9189 2.59924
65.2178 7.09983 1.0319
211.081 27.9085 4.08445
136.512 18.3458 3.0134
80.0292 10.5248 1.76827
160.082 21.9114 3.45162
143.113 19.5551 3.55522
115.065 19.7069 3.24968
65.7905 11.9241 2.11657
184.369 30.9851 5.31283
163.312 24.7092 4.01923
94.6238 12.987 2.31627
67.7126 10.5827 2.35701
215.808 34.8828 6.10405
144.195 24.5992 4.42808
437.744 71.1657 11.6444
72.7032 11.8042 1.85631
121.443 19.6635 3.42107
65.8704 16.1998 3.046
121.183 16.8139 2.92461
137.734 25.6467 5.22863
129.09 22.3201 4.21763
50.8705 10.2501 2.60034
158.897 25.0954 4.03502
70.7877 13.7234 3.04668
34.591 6.04637 1.09793
94.1226 18.2785 3.64848
115.572 25.3849 5.52487
188.499 35.229 6.67084
50.6977 12.9245 3.21744
97.7381 17.1331 3.21369
167.234 39.1576 8.47919
131.229 24.9149 4.8734
61.0073 12.0745 2.51456
176.958 35.072 7.49092
62.6576 14.3614 3.61396
116.048 18.7305 3.33682
71.4714 16.9757 4.0635
127.13 23.4817 5.4847
85.2752 16.4885 3.3767
101.103 20.1588 4.40775
51.9437 11.414 2.99779
93.7727 25.4897 5.41707
93.3728 23.7163 5.70258
42.7316 8.59199 2.53854
108.39 23.8604 4.93168
99.5759 23.1416 5.31672
133.993 29.4226 6.5983
57.4288 11.9349 2.91484
51.7414 14.2666 3.74917
62.9616 16.6616 3.87732
81.2838 16.2945 3.5877
96.0674 29.4347 8.35493
138.57 30.3626 7.14871
73.3635 18.1728 4.71472
80.4855 21.9095 5.41983
93.3734 24.606 6.61857
70.7191 15.9007 3.71708
147.483 36.4714 9.0822
62.3165 15.7751 4.64151
114.555 29.6271 7.47123
35.4603 9.81727 3.14329
64.1703 14.5174 3.81044
116.968 36.9941 11.4041
111.146 27.2721 6.30171
42.5342 16.0156 4.90138
60.0849 15.5483 4.42036
56.092 13.8974 4.94425
97.1641 24.7048 5.92869
50.6863 12.2893 3.40388
55.0547 15.4623 3.83535
54.0671 16.9337 5.83406
53.3035 18.58 5.46464
85.1723 25.3585 7.14388
73.4189 19.4175 6.33287
94.8186 22.7159 6.08154
75.7336 19.2271 5.7512
93.5805 23.7254 6.48289
83.6625 22.5146 6.84493
56.7922 19.4443 7.2894
73.1647 20.984 6.38986
111.873 32.7874 9.79441
50.0243 22.2695 8.14035
78.3746 20.2973 6.08843
110.322 31.6134 8.98918
67.1773 17.8501 5.64761
83.3757 31.3212 12.4772
164.004 51.6641 15.4856
49.8054 15.0689 5.24806
110.322 40.4016 14.5884
42.9188 12.6241 4.49964
69.4284 20.3767 6.14582
64.7576 25.4728 10.1375
111.034 25.1251 7.43364
96.9192 26.3945 7.70635
41.4184 15.6422 5.33151
69.1749 22.6284 8.07483
33.7656 11.0915 3.86669
59.5095 17.2038 5.86723
56.021 23.0468 9.25465
64.1837 22.3322 7.59128
44.3295 13.3207 4.12858
67.5341 25.8049 10.2963
56.401 16.6034 6.26451
62.0554 18.3579 5.87677
50.4874 17.6696 7.17553
36.2242 12.1567 4.04519
32.0596 14.9681 6.00584
43.9578 17.8484 6.77468
107.11 35.3656 12.4455
49.6352 21.1174 8.93118
97.015 36.7687 13.4856
36.5623 15.0814 6.64319
53.3827 17.0548 6.12561
67.5917 24.0059 9.11868
63.2869 21.2711 8.3588
67.6504 30.5915 14.0982
86.7822 29.1944 9.7705
72.0671 27.584 10.4285
55.6795 23.55 9.67419
40.6484 21.8956 11.2637
45.2452 18.4901 7.41955
60.5356 23.3786 8.86661
44.3478 14.0496 5.14024
59.1952 27.5515 12.1918
57.2833 21.2748 9.02056
48.6295 24.966 10.9537
47.9066 15.5536 6.17632
49.4365 18.6548 6.98426
49.077 22.1386 10.8488
48.9501 15.0776 6.21707
34.1102 11.6803 5.02506
37.4012 16.8091 8.24378
95.8031 41.3067 17.6388
66.6413 31.0543 15.6882
66.4599 25.9313 10.3131
30.8323 13.9544 6.90364
60.3405 29.9709 13.0234
56.6956 22.6728 10.036
53.5856 23.6028 10.222
31.8889 18.9683 9.41922
39.8333 18.7051 8.78238
43.3521 21.6883 9.40339
56.1847 25.7873 12.4987
44.0239 16.9096 8.47629
80.0948 32.4348 14.0846
47.168 23.5445 12.4346
42.7657 16.9014 9.00344
48.2635 19.4963 8.85528
43.1002 22.2518 10.7679
47.6659 27.0857 13.9298
34.2811 17.8703 10.1371
29.3752 16.1968 8.63348
51.0607 20.7816 7.55398
72.9792 37.3745 19.6303
25.6589 11.5459 5.2681
19.9722 7.94214 3.73039
47.2034 23.229 11.9402
79.5709 34.7025 17.9658
25.0486 12.7551 8.23326
41.6338 21.9319 10.17
32.0111 19.4194 10.8321
40.094 21.5106 12.4557
35.8659 20.1605 8.99446
11.3137 6.25961 4.20433
38.5237 17.387 10.1574
57.1043 32.7387 17.8497
28.9791 16.6213 9.0159
47.2732 28.2333 15.4386
33.8391 15.7132 7.79651
32.7265 15.5752 9.09641
36.5229 21.3272 9.85007
48.2816 28.808 15.1235
40.1459 26.6926 15.6566
32.0857 20.0283 12.9435
35.5739 19.5972 12.7808
52.0683 22.8805 10.9186
36.3695 19.8888 12.7371
60.688 32.7287 15.2067
33.361 23.0157 13.9422
25.3655 22.1007 13.077
13.8264 10.2977 7.8327
22.852 10.8282 6.68565
40.6895 22.8065 13.0764
31.2474 20.194 12.7376
54.1619 28.5709 14.9273
38.2158 27.4585 18.347
30.0359 10.5151 6.19882
24.0915 14.5073 9.21148
31.6351 16.5045 9.55433
31.7519 24.0396 15.4293
22.0115 13.6025 7.88357
39.127 19.9736 9.85162
35.6052 22.1321 14.1101
25.5959 14.9147 9.29893
16.1271 12.333 8.41342
22.1352 11.4149 6.75499
29.9363 25.5857 17.4214
63.1423 37.5 23.9289
23.8938 15.536 8.77298
25.166 15.3716 10.5639
47.8097 37.2874 26.9876
36.516 19.2753 12.6345
37.3463 24.5275 17.7404
47.2994 26.3809 16.5836
44.9326 28.444 18.1711
52.2498 33.9807 20.3429
33.1455 25.3165 19.4515
43.3147 24.141 18.232
25.045 17.8762 13.1967
56.3678 35.9375 22.9559
40.3166 24.5179 15.9582
37.3198 19.8239 11.5653
9.96994 8.83045 7.47603
20.653 14.1786 11.9188
23.1482 16.7219 10.8279
42.6233 22.592 13.8541
21.2673 17.5675 11.8792
18.1716 10.7039 7.21236
35.8776 25.3402 16.6119
14.8239 11.942 7.73447
16.776 14.804 11.5548
37.0397 30.2279 22.8941
12.6257 7.76265 6.86235
29.2466 17.3796 11.5138
23.6065 14.6294 9.79577
18.4843 11.3047 7.6625
19.9819 15.1053 12.2914
36.384 31.6303 26.4127
18.587 9.31478 8.2413
28.4897 24.3532 16.9728
41.5946 25.3318 17.9138
14.417 6.04545 3.50053
63.3103 45.9865 28.9635
39.3048 41.0832 31.7392
25.9959 25.2845 23.323
27.2273 15.3075 10.9652
27.5205 22.2235 18.5187
28.8768 19.8266 16.5715
28.5641 20.6298 17.3256
44.9878 33.988 25.5207
16.2267 15.6581 16.5826
32.177 14.9873 9.95856
43.7481 34.2786 23.3713
30.438 27.2248 21.2467
13.2889 9.56766 9.55665
16.8404 13.3402 10.8778
24.3511 17.4677 13.4957
28.7567 20.7555 15.8755
23.7256 18.9647 16.5075
39.1441 32.8389 27.7437
34.7153 25.3344 20.7817
22.0374 20.2914 15.4175
24.1318 21.4694 19.5046
32.4412 27.0717 22.8562
28.8721 20.7742 18.7568
22.3824 13.7702 11.8303
32.6099 25.2888 18.4512
27.03 24.1558 17.588
11.6347 11.3951 10.7216
5.27547 5.54455 9.0007
18.6382 11.7043 8.69432
18.8347 12.2336 7.68121
27.7297 19.343 14.7258
12.8182 10.8353 9.32147
17.4844 19.5402 19.5305
37.5065 23.8355 15.4292
21.6795 23.9175 21.4
19.6656 15.1415 14.6335
17.7066 11.0673 11.2054
21.6967 19.7415 16.2193
26.0438 24.16 23.0589
24.332 20.4983 17.3261
21.3068 16.8592 13.0492
32.4309 30.0522 26.4689
22.3671 27.1391 29.2004
25.7182 15.3825 11.8942
17.201 10.084 7.00165
11.5465 14.3298 15.0454
14.0597 11.1996 14.4234
29.6202 18.5226 12.9513
39.0123 37.2454 34.1891
16.4748 10.1816 9.94905
20.6591 20.9045 22.5016
33.6484 27.167 22.5271
40.0434 34.1828 28.7283
13.3482 9.13202 9.88121
16.3579 12.6897 11.6935
28.8076 22.5165 19.181
13.5512 12.3698 11.8066
13.3109 15.6439 21.356
30.3877 24.026 21.8353
33.4796 27.5807 20.4601
20.0781 24.1412 26.5718
18.0534 12.4472 10.5437
14.4463 15.6758 20.2962
32.355 28.075 21.9826
14.1969 17.7435 20.4333
9.66245 8.99174 10.0045
17.0499 18.3543 16.5454
29.7984 35.0106 38.623
23.3546 19.7308 18.7773
29.6439 28.5059 28.5953
27.2536 26.4986 24.9104
8.20991 7.66138 11.8245
24.3909 24.8092 27.2638
34.7051 28.4389 25.4546
28.6861 28.7486 31.7736
19.262 13.5156 11.5522
19.8171 23.0783 28.0179
13.466 8.74814 7.57934
14.3251 18.9892 24.2341
28.528 19.9171 13.9743
17.7681 20.6786 22.6204
24.3916 23.3388 22.2589
12.8848 11.1904 10.6528
14.3757 18.927 21.5779
21.234 22.9997 26.4726
29.9024 24.493 23.7326
23.5675 30.1162 32.0445
11.9407 11.3223 16.0579
26.5685 20.8369 17.0536
10.9898 17.039 22.7117
21.6252 15.092 12.8646
35.8274 37.6551 35.0264
13.2016 15.317 21.6554
24.7001 27.0911 30.7649
30.6376 32.6668 34.7949
10.2809 10.4779 13.32
17.4322 16.7861 18.0276
21.3389 21.5731 16.571
16.2883 25.3926 31.1612
18.0849 18.3072 22.0156
10.456 9.83846 13.0047
11.7083 12.9124 13.4028
13.1844 14.9083 22.4603
29.0562 26.3743 26.7554
17.9042 16.4957 19.8173
33.9786 33.6163 32.6873
24.192 28.2006 32.8799
31.4849 29.5163 22.3473
9.34358 18.4003 25.8573
16.0894 19.1338 24.8003
24.3316 24.5775 28.3082
12.1549 9.65822 11.3768
12.1321 11.6096 11.0294
27.3862 32.1186 38.9117
11.2993 14.4749 19.4444
18.5718 22.753 29.6593
15.6098 18.0479 22.5779
15.6545 15.4519 18.8513
28.2846 26.4122 25.4406
14.8312 24.0183 34.7848
18.5987 18.5688 17.6645
4.71838 8.76664 17.5584
21.4809 23.8728 26.8415
10.5961 9.94463 13.8115
15.6233 23.2124 32.4608
28.8636 32.3134 34.0002
13.7764 18.2647 25.8958
23.0767 23.6957 26.9497
9.67498 13.2037 19.8977
19.7164 25.5248 25.1625
24.7834 36.4071 49.197
25.4059 26.3953 27.46
18.5756 25.4972 31.7239
17.6342 26.2953 34.2557
13.5935 16.4846 24.9871
10.6511 7.28299 12.21
28.2363 30.262 31.5655
5.93215 13.1115 20.7431
23.1963 25.033 30.5756
20.9389 28.1302 40.755
17.7784 14.7787 17.1382
11.7618 13.1723 16.23
11.0075 13.1421 25.0499
21.3935 22.0851 19.1956
19.9452 29.7374 36.9694
19.0497 31.0971 41.7877
16.6862 20.8689 29.3371
12.2253 8.65163 14.3095
33.798 35.9254 32.9308
10.7972 21.5515 42.5816
12.576 14.3926 21.2838
20.0756 24.7035 27.7535
11.1748 14.4905 19.7994
12.0902 21.5636 39.7574
33.0013 34.0712 36.9983
9.11749 13.1813 20.0925
13.1506 16.6646 21.5085
7.59336 9.23842 14.7614
12.7711 18.5829 27.7831
8.42883 9.4063 12.5457
13.2191 18.2157 25.4422
14.7116 24.1666 40.8557
27.6922 26.5494 30.9002
16.6401 21.1503 23.5098
17.0847 28.0518 42.3216
17.8094 18.7431 21.4713
18.1786 24.5252 26.3766
8.20191 14.4121 23.0447
4.13928 6.74676 15.6955
13.5521 15.7107 22.0016
7.24467 12.3926 27.3677
14.9864 16.9798 18.5872
12.7517 17.3509 20.1416
11.6969 17.3121 23.3194
6.89314 7.12806 10.622
7.85698 12.2171 19.1803
20.7018 26.282 35.9163
15.394 27.7899 38.9983
14.4844 21.4172 34.0886
11.7511 15.3396 25.0096
7.54978 9.41704 15.2089
8.38103 8.53242 14.0821
8.60425 13.9565 24.9928
11.0571 14.0931 24.9245
27.5557 59.1993 139.078
72.9027 67.8935 45.9608
13.5589 23.7567 30.9016
11.3609 12.7767 10.2152
12.3914 18.8267 23.2078
16.3053 25.8064 31.7736
8.96895 21.7509 37.839
11.3109 9.2474 10.7443
15.3138 22.5455 39.2076
16.8444 29.1044 43.5269
9.20486 16.3836 26.6895
17.417 21.8927 31.2116
7.80243 13.4261 25.8405
12.9428 17.8998 34.0191
22.9501 37.5826 50.3813
22.6175 30.3025 41.807
8.32099 12.4063 21.8407
6.35374 6.47617 10.8391
23.8681 38.8186 58.8016
17.0271 22.1564 29.581
13.6377 27.369 51.0121
11.0578 14.8085 24.7666
12.5275 18.381 24.7481
21.6813 41.1152 57.7255
6.75829 13.8772 42.5298
26.0094 24.9004 25.3245
13.3228 23.8285 38.9528
23.7619 33.199 35.779
4.99691 17.1507 34.079
9.88793 15.0265 34.4412
21.5369 31.9669 37.7635
4.29328 6.72272 19.4414
10.9641 16.1535 27.0355
10.03 8.42715 10.0285
17.2233 34.0887 59.624
14.7644 20.1563 30.3903
11.5759 23.408 41.0965
13.1556 18.9048 31.1913
14.2827 16.3187 26.5064
12.3573 22.1046 39.2286
15.528 18.2417 26.7883
11.3197 20.7466 35.6875
10.3552 14.4939 22.172
10.2978 19.2729 37.448
23.6398 33.2388 50.0645
17.6192 29.2779 46.1517
10.1887 19.1936 38.0984
12.4457 10.8032 16.9269
14.6741 25.0024 38.4407
17.1469 24.5685 24.6699
7.29411 19.7331 43.2761
5.41299 7.88203 18.251
13.0298 19.6161 26.7912
8.9462 12.0605 25.665
11.362 24.5662 45.5344
11.923 13.0495 21.4541
13.1101 16.7601 24.3696
12.0275 22.8419 39.7086
10.0394 17.5387 31.8318
10.2447 14.4844 29.3602
16.3443 27.2272 51.7697
12.8238 18.9115 33.5471
15.1036 18.6053 32.6157
14.5958 19.478 26.0532
10.8543 18.5247 24.8579
9.66525 12.2093 20.7185
7.89486 9.01435 9.96108
11.1971 23.2813 36.0318
10.6069 22.0791 45.9852
15.2319 20.2031 23.7212
9.11156 24.1176 51.6867
11.2305 10.0174 14.9704
10.9855 21.4743 38.3235
5.86107 8.1493 13.4462
7.0143 11.1008 20.458
4.8827 15.2579 46.1769
25.3657 45.0767 68.5754
9.12847 8.60558 14.1666
7.05206 14.0566 33.3217
24.5487 39.1659 50.1633
11.3095 24.6064 56.0708
10.2809 16.7954 25.845
5.02381 8.68415 20.2809
5.22251 8.43552 21.0201
13.059 20.611 26.8213
11.3098 21.2166 43.7809
16.5286 29.6453 51.8182
8.1088 11.2961 16.5517
4.02429 7.99537 11.613
5.499 17.3295 37.7458
10.7817 18.3742 30.6767
7.58008 20.727 55.7834
11.992 10.5961 19.7342
15.9262 27.6234 40.6606
10.5285 18.6908 34.2768
7.30898 17.7727 39.0489
13.7243 15.6852 19.7254
5.95128 8.56826 16.003
9.13098 18.7643 28.4017
4.10981 10.5146 41.078
19.3604 27.844 34.1424
9.42202 20.2753 41.9615
11.9199 19.2278 31.6619
7.37446 11.1154 24.0588
11.9418 22.6975 47.6806
10.6279 13.2773 14.0535
5.07902 15.6098 40.2987
15.0778 27.6053 39.3127
4.25865 15.0346 43.9272
14.6464 18.6103 36.8668
21.5033 39.426 65.1255
7.06983 15.8318 37.3616
10.5309 24.7822 49.5321
7.1963 11.1434 44.1346
17.4248 22.6449 32.7853
17.706 27.7481 39.4638
10.4208 17.502 20.7503
9.21891 31.6656 83.1102
14.2164 19.5562 24.0133
4.85002 15.6115 40.0525
8.92597 11.3782 24.6253
4.65447 9.57455 21.0427
9.78279 12.1348 18.2042
6.88816 12.055 22.0163
8.08824 22.4853 34.3121
9.63501 24.3595 52.9688
8.80209 15.4502 36.5222
12.7036 22.2917 37.7848
6.99054 19.2581 41.4193
6.15631 9.36453 30.1082
8.38858 13.3364 23.6488
6.65591 12.0678 27.4118
12.4492 24.5035 45.0078
6.69198 13.0351 25.4422
8.91399 18.8539 34.8594
6.86215 11.1295 21.873
6.93856 16.1094 35.3788
11.8123 33.4638 74.4
8.50237 14.129 22.5814
4.95576 10.6406 26.3175
6.15082 10.9768 22.4176
5.06484 10.0494 20.0291
6.15375 16.2676 34.11
6.54621 16.0297 44.7391
9.9981 9.25479 18.3738
9.74959 17.67 33.3519
11.4673 23.806 36.0008
5.03871 14.2569 34.7231
6.96466 14.2339 34.4167
5.13114 7.95415 24.9074
8.78109 11.5548 22.092
9.57712 23.094 43.1395
7.3648 13.308 33.1617
9.3432 21.4121 44.84
9.882 19.3166 36.1804
9.7822 16.3752 29.6799
6.673 21.937 53.1105
8.55417 14.4071 31.2148
9.04099 21.2437 53.7632
12.2445 15.0484 18.8101
8.07479 22.2429 61.1176
14.4666 26.1136 41.0565
7.68776 17.212 36.1611
11.8984 27.5498 58.1937
9.42449 19.6213 40.6691
5.45429 13.8892 40.0872
7.81055 10.6687 20.0401
6.75835 14.5854 28.1607
5.61255 10.4825 33.8305
9.5557 22.1653 48.6344
7.21121 11.5074 38.4137
11.4573 26.1585 52.8853
16.2835 30.56 58.2987
6.53525 9.99246 16.4438
3.84099 7.08412 16.244
4.54672 9.44712 26.7397
5.14696 11.9792 40.5626
11.7582 16.94 18.0509
2.23339 4.5528 11.3525
3.74441 14.6626 38.979
10.1836 16.879 24.2932
3.09642 11.6235 32.1823
5.24183 11.0092 39.041
10.7045 18.732 29.8027
4.70063 11.0868 36.2031
14.4299 29.9518 54.4578
6.56539 14.5598 40.2592
6.7826 9.75336 25.2286
6.63192 13.9742 30.051
5.35454 12.3269 30.1537
7.05988 11.4728 27.8472
8.9708 24.453 59.4847
6.74036 13.9973 39.283
8.09836 11.7651 18.1519
3.7227 9.24786 17.412
6.70195 15.2334 28.6183
6.11523 14.9134 38.6565
12.6559 36.8104 88.1347
9.25552 9.98523 11.3275
1.91044 7.21872 34.7326
9.84607 19.4771 28.3874
3.54353 10.5669 27.4853
8.2627 16.4211 27.1846
5.99688 20.6429 51.5298
8.16459 13.9514 29.7306
4.66112 9.56581 30.7918
6.27153 11.1351 21.6688
6.24366 13.2046 24.2283
3.46576 8.27765 20.7495
3.52681 10.6257 34.1231
7.37731 13.8121 24.9002
5.75958 16.3431 39.7182
4.00054 7.02069 22.5325
6.74157 15.2632 38.2532
5.57742 15.8295 26.3425
2.47189 5.92488 26.0414
9.14087 23.5376 48.0515
5.5755 15.9125 43.8518
5.9117 10.0045 20.3545
2.8709 9.99185 22.9367
1.83978 4.91056 14.4829
4.7494 16.9967 55.7583
8.02276 13.5232 27.8487
7.10784 15.3467 31.0823
5.97355 11.5858 25.9042
3.51477 6.51519 10.741
2.49353 10.1692 26.4477
3.04444 6.96648 18.9168
3.32287 11.1509 43.5177
10.2879 13.1527 27.8278
4.77707 8.21978 17.9488
1.52083 3.142 18.927
7.86383 11.9272 15.4323
4.53183 12.5808 28.0634
5.72298 13.8809 40.4411
7.59927 12.8811 30.1408
7.91486 21.7855 43.217
5.93293 21.3371 64.9324
7.33413 11.7997 35.1268
6.4212 15.6798 34.0728
4.3576 7.3979 19.6229
7.53959 17.016 31.8389
2.63663 9.3344 22.2417
5.11931 12.3644 29.596
2.28034 7.94085 34.0394
8.29895 13.9123 28.1894
2.73158 4.32533 16.0468
7.10806 19.0206 38.4465
5.35854 11.7609 24.3287
3.72683 16.3189 57.005
10.9165 26.6867 59.6972
6.57825 13.4402 40.5176
5.00725 15.6739 54.9264
6.35278 6.99611 12.7393
5.76318 15.4541 30.9651
4.19046 12.4276 37.3403
6.07431 13.1216 37.7517
6.82419 19.1168 50.658
6.58509 14.9613 34.2736
5.53957 9.7635 27.3068
5.1169 13.3693 50.1387
11.6524 24.3136 59.8777
6.87657 17.966 31.9404
5.13746 12.0696 33.0967
5.79274 17.2239 50.9668
6.13544 13.706 42.8805
7.74947 12.4268 29.8445
8.87117 25.9926 73.8385
16.0997 39.4763 66.2593
2.83981 10.9347 42.1979
6.28046 12.5977 21.2366
1.93028 10.1767 37.2368
3.55827 6.74228 31.6993
8.71812 19.9951 46.6874
7.15621 15.4308 39.3572
8.27416 23.347 58.6811
7.1229 11.4662 32.5794
6.58456 12.4996 23.3344
5.11423 16.2238 43.4586
4.40659 9.13255 26.9382
4.52723 14.3725 46.1373
10.6823 28.2722 56.3701
2.70658 5.36698 27.6021
5.30714 14.2454 34.416
3.34973 11.2689 29.9695
2.95675 4.41256 17.9458
4.41829 11.1976 17.7617
2.23387 6.38858 18.0437
2.39269 10.258 38.0926
6.06323 14.4069 30.562
4.44324 11.7663 44.9857
9.89961 28.4327 72.1809
6.17413 14.6867 25.5472
4.26024 19.4147 53.6627
4.98704 9.65766 34.8362
4.37454 5.52402 17.31
1.904 6.81727 26.451
5.19365 13.9513 28.5134
5.3448 21.3104 52.7046
5.26721 13.8133 38.9347
5.74327 17.319 47.1105
3.52992 8.02857 34.1787
8.85515 31.9127 76.0439
6.92197 10.7156 25.6548
4.80126 17.8428 52.0557
5.34369 11.0407 42.4185
7.59869 17.1692 35.4999
4.19848 13.0709 37.5051
3.51752 5.04474 21.1749
3.96829 8.21861 38.2081
6.92115 13.7353 29.1093
5.36207 10.4268 23.0623
6.65581 22.3713 57.4889
5.37336 16.923 69.9726
9.47998 16.8555 34.1992
4.87223 16.8037 38.2885
4.09527 14.0573 48.6808
5.20481 12.0595 29.7027
3.82121 12.7825 47.3208
7.24183 11.5508 20.2343
3.98345 14.2774 41.182
4.41016 10.2414 29.6701
4.56477 15.8111 56.2174
9.0127 19.2634 45.1995
5.5786 12.1257 18.5732
2.38541 10.5325 37.4727
3.97815 8.56404 19.459
4.52669 18.4426 49.4485
4.27026 8.51116 29.9573
6.90704 26.7022 64.4593
3.64239 7.77449 40.3885
5.10064 15.4708 57.308
7.22701 13.249 26.8492
3.15445 9.45572 36.9195
5.34626 18.2304 44.3048
3.15351 8.77782 35.0678
6.27668 20.3147 53.0372
5.13477 10.4511 36.0658
4.62059 11.1959 24.2952
3.85911 15.0137 32.9303
1.94449 9.70853 55.5149
6.13261 9.21427 28.1034
3.66295 9.41458 14.6843
2.31903 9.10935 22.9698
2.86626 11.2436 25.6669
2.05461 11.5017 47.3133
6.73521 14.0769 36.9539
3.56773 8.81084 26.4791
4.47505 11.0053 25.5759
2.03145 5.45706 32.2541
5.44911 20.2179 38.5244
3.83123 9.02092 29.2291
5.20479 20.5412 66.1014
5.67897 13.5151 37.3481
3.52321 8.97792 42.8046
5.21789 11.3771 34.9885
5.821 14.4657 43.1858
5.58039 16.957 60.6249
7.68325 15.2622 20.719
1.75296 6.26331 32.1083
3.99633 10.6812 11.4601
1.96964 14.3298 41.0294
2.30312 5.22497 15.7489
2.25902 14.595 60.5606
8.33684 23.8441 49.6359
2.91602 10.7264 48.6035
5.22662 10.1882 35.2327
6.53608 15.3386 37.2167
3.13163 5.28651 22.8092
4.45295 12.4793 48.5058
4.74732 12.3083 40.2691
4.39516 11.8262 54.8314
9.35242 27.7012 49.6869
3.33317 6.63506 24.1013
3.29677 12.0545 35.6756
4.82797 18.3798 51.7679
4.37116 10.9058 36.4445
5.06825 13.8304 55.1864
8.21899 22.3678 57.1299
4.26963 13.048 30.1231
2.92708 7.68937 19.5893
2.49466 8.90245 33.0549
2.76265 9.61027 23.4757
2.47755 5.73339 22.819
3.71419 18.2107 41.8457
3.54087 11.1632 54.2039
6.62635 13.652 44.0032
7.26704 14.4301 33.1228
3.62965 11.257 47.3377
6.13663 16.0046 33.4209
3.80957 8.47341 22.1348
3.79311 14.2098 38.289
4.05096 8.25399 34.4445
5.80254 19.008 46.702
2.06057 8.44195 50.6153
5.40403 11.8611 53.9852
6.64715 11.2697 25.4335
3.99876 10.4998 21.9751
3.08663 8.57859 19.5372
3.28662 14.5617 41.8843
2.37513 7.98126 34.9912
4.947 15.2725 37.7124
4.37702 10.7365 38.1417
4.92406 17.608 53.9782
4.46014 8.56761 21.2777
3.70318 13.2165 36.4273
4.38313 17.1667 54.6968
3.01774 4.53721 13.024
1.87231 10.8208 59.5245
7.39829 16.1039 37.4953
3.46521 5.70927 27.4634
3.99828 15.0264 40.5902
4.82368 16.6659 52.9189
3.77384 10.4535 31.7619
2.88667 9.36321 34.3033
3.93078 11.8261 39.5181
5.53222 12.56 40.9157
4.19015 9.39989 30.5858
4.77547 17.3136 54.475
4.61744 6.18648 23.2084
3.11957 10.0073 20.806
2.73494 9.36283 33.725
3.86062 8.70876 19.51
2.16377 8.2523 16.9215
2.27496 14.9518 79.3949
7.4251 9.26662 16.3574
3.77343 14.5961 41.3404
3.73104 12.4152 28.6409
2.02369 6.44294 21.4128
2.42197 8.82261 47.704
3.94421 9.36502 21.6688
3.14205 5.93273 6.71155
2.28256 11.1384 37.808
3.10338 6.84155 26.2576
4.03922 9.53412 27.7025
2.64724 5.98891 20.5917
2.84729 16.8354 49.0828
4.59087 12.563 32.7856
3.88866 17.4688 62.5734
3.59388 8.46018 42.0081
4.01675 11.2454 42.7209
4.77893 8.6358 16.7743
3.99191 18.7437 70.7672
4.61057 10.3499 32.9149
3.44364 8.27261 18.429
2.87826 11.8209 35.9348
1.50492 8.10965 58.979
4.79368 10.7524 54.309
5.08808 10.3131 12.4933
1.16006 4.98704 21.2443
3.04244 14.1644 38.2809
3.09765 15.036 58.2258
4.8227 13.6586 39.1678
4.28795 9.77849 16.2131
2.34414 14.997 56.6543
4.57708 6.19547 16.5223
2.00104 9.4993 41.56
4.60353 12.8387 24.7299
1.86655 4.70864 20.8976
2.94336 12.3354 76.8331
6.86422 15.0532 18.2371
2.30675 12.8599 32.5473
2.66675 9.91153 34.2847
3.37417 17.5004 48.4634
3.41037 6.73558 42.6189
4.96853 11.165 44.7935
7.56653 29.6855 60.7043
4.40455 17.8497 54.0538
3.26029 12.7685 57.3565
4.23268 10.3631 40.0106
3.22937 7.47187 23.2265
3.49281 11.2895 25.8548
2.15189 14.9067 64.6522
6.30505 17.3849 51.2688
5.01055 12.5321 27.4807
2.67434 12.026 58.1925
4.89498 15.2475 63.5008
4.64742 10.3687 32.9432
3.19961 7.64637 37.3647
3.22105 6.93075 23.5626
2.85936 8.31246 30.4327
4.09663 7.68709 12.9477
1.82794 9.81628 46.2342
3.83522 5.85964 17.4438
2.78267 10.8084 42.9447
4.69569 13.5022 38.6883
3.22363 9.22808 23.2326
2.85771 16.0872 74.875
7.00052 15.7823 39.3574
2.91789 6.79158 14.3085
1.18737 7.07593 35.1218
2.90172 7.97933 18.2169
2.08115 9.09309 34.6824
3.3871 6.55173 23.6729
1.59393 7.44864 20.9819
1.64017 4.82187 38.9502
5.05996 10.2795 19.7219
1.86467 5.32201 18.1088
2.74301 8.77819 27.8279
1.46481 8.53261 50.1456
4.34562 19.2663 70.8852
6.16004 11.5598 13.8623
0.953001 6.65669 29.3911
3.04028 10.0091 47.7262
4.68696 13.1603 32.357
2.59949 10.3582 38.0349
4.77443 15.769 40.2914
2.73084 7.09517 29.4482
2.53277 9.80534 52.5189
4.37896 13.4008 45.7713
5.01034 11.8837 26.2489
1.70005 6.68033 35.7084
4.03529 17.1695 64.2284
5.47031 18.3286 43.5206
2.77574 9.27729 55.8541
4.39297 16.4842 46.0556
2.70391 4.66334 39.3759
4.63071 20.1533 55.7797
3.77657 10.5348 38.8822
3.3947 8.37423 42.1858
3.59683 10.1274 27.6217
2.59408 9.38637 42.1166
2.85355 10.2919 26.4338
2.2139 11.5424 57.093
6.05462 14.1329 32.4337
2.86681 9.60432 40.508
3.75112 21.4113 80.2768
5.60274 7.83253 47.6352
5.65237 15.1261 27.0376
1.96299 6.23645 33.828
3.71269 10.5648 21.9577
2.26762 6.78711 31.3203
4.01791 13.2404 29.9565
1.59388 5.46356 39.3767
2.89694 9.1427 30.2372
2.6011 11.3402 25.5536
1.55156 5.15056 28.9208
3.13407 8.16241 27.3409
2.50717 10.6223 33.0442
2.29894 6.48245 24.2577
1.70799 7.41066 17.8614
2.05098 12.3167 63.8452
4.07868 13.7222 29.9488
3.28344 14.9863 53.317
4.141 15.0125 52.0267
3.7191 9.91028 46.9448
4.75964 14.4749 34.8824
1.91156 9.5053 38.2762
2.58269 6.1521 19.7508
2.15649 11.5677 34.9342
2.5029 5.44768 43.4522
4.79868 15.3542 49.8959
4.75096 13.0539 37.3988
2.9343 11.5626 35.1157
2.52586 6.4807 14.2648
1.48677 12.4542 71.144
4.83847 18.4732 63.9966
5.20698 9.39213 23.8
1.84295 7.94076 37.8924
2.90332 14.3253 28.4325
1.66784 7.33871 44.1917
3.99618 13.8089 55.3082
3.07298 4.96746 22.2363
2.49365 11.6491 38.962
2.33049 5.99442 30.6842
2.13409 5.28455 12.2593
1.31256 5.10071 11.4641
1.60869 8.61595 34.786
2.69007 11.3022 29.3067
1.96945 5.91673 44.3337
4.20115 10.6917 46.8329
3.6473 8.97984 31.874
3.06063 17.7577 65.502
4.24876 11.0873 43.685
3.38349 10.1407 36.4677
2.44562 7.80593 70.1518
6.64485 24.6606 41.4396
2.50346 9.07251 49.2706
4.02894 9.94628 31.636
3.17402 14.7863 41.3165
2.85243 7.43805 22.7416
2.65683 13.0297 35.4311
2.25173 11.3954 47.9794
3.3225 10.6994 23.9882
1.51349 11.402 62.9254
4.85756 10.1627 43.829
3.97503 11.2118 35.8978
3.38622 8.01464 26.4912
2.03852 5.69754 24.4176
2.45922 12.2456 24.8823
1.14309 13.687 64.6439
5.45301 12.0437 46.3359
3.68571 10.0524 30.6454
3.08707 9.74357 34.4413
2.88588 10.2706 47.7016
4.06114 15.5065 61.4105
3.64933 11.7056 54.5369
4.15414 16.3414 35.0318
1.96595 3.19609 25.4801
2.462 10.4953 46.1022
3.48324 8.69213 34.5458
2.90741 14.2107 28.3006
2.08256 9.00198 36.2983
2.94461 11.1946 38.8372
2.46428 9.37296 24.658
1.68922 10.3753 44.1039
3.19749 6.38848 27.2966
2.39029 5.42678 26.3945
2.59352 5.87284 25.1327
2.04767 7.21958 44.1647
4.0135 10.7268 46.5454
4.64112 13.5199 46.2096
3.25499 18.3458 83.0938
6.23039 12.4946 29.3093
2.80111 11.5217 37.7315
2.27567 9.77651 48.5233
4.45403 16.417 61.7365
3.70795 10.2332 28.5904
1.79725 10.2788 45.9954
3.57304 18.5305 53.9089
4.11627 8.00231 18.3165
0.800168 5.73229 35.8897
3.11894 9.22587 45.766
3.13959 7.82073 20.5423
1.06069 3.04964 9.93255
1.23965 3.43816 36.8029
3.47278 19.4004 63.8499
4.12623 8.55481 25.75
3.38573 14.0614 24.2309
1.86161 13.9701 48.6621
2.84595 9.07067 34.5718
1.91606 8.06517 25.7046
1.34417 4.33163 36.4622
2.65852 2.66793 23.1437
1.98014 10.1312 30.9159
2.47423 8.05501 34.1642
2.8504 7.63316 33.2762
2.60862 6.70968 40.1187
3.76702 13.8097 27.0139
2.43117 5.38434 24.7001
2.49119 11.2158 23.8561
1.2771 1.98226 13.9637
1.41105 5.8933 28.1381
2.51563 5.36777 31.8376
3.19241 13.8386 18.592
0.953795 4.801 36.1358
2.16725 8.23905 38.6945
3.27742 8.66417 41.1418
2.83829 8.30222 16.6218
1.2553 6.21587 39.8077
3.26426 10.3088 44.3405
4.00703 13.525 102.407
8.83574 25.6542 40.7421
3.07863 12.7667 43.8489
3.13443 5.73003 24.4364
2.34036 8.51695 27.9283
2.5784 11.3389 34.9593
1.5239 7.30319 25.361
1.07396 3.8056 20.7988
1.34292 4.45871 14.7535
0.925802 8.31153 51.041
4.5518 15.587 50.9599
2.65087 10.06 53.1659
4.31581 6.69357 27.8505
2.34205 6.86496 12.0538
1.76673 8.28147 26.0231
1.61384 6.99497 17.4208
1.34079 4.01968 22.894
1.31737 5.28942 40.733
3.09648 8.66757 13.9142
1.07125 6.82953 18.4201
1.67354 5.73853 24.7544
1.97362 6.32915 39.2346
2.50309 4.21308 38.5641
4.23533 12.9381 34.7156
2.99216 12.2842 43.0594
3.0427 12.9634 33.874
1.60546 8.10602 37.6335
1.82503 6.59753 40.0201
3.33215 7.98976 14.8993
0.722382 3.88185 24.8139
1.40296 6.60553 30.9079
2.44542 5.36845 23.3073
2.69977 7.31713 26.134
1.88348 5.45222 23.933
1.59997 6.80364 39.9131
3.00842 9.03873 32.054
2.28055 10.6133 40.9985
3.29967 11.6842 56.613
4.40398 11.2033 28.4016
2.16083 10.9963 24.0259
2.00691 12.7173 72.3951
4.31455 11.3741 30.84
2.85106 10.8206 36.2247
1.8228 7.73946 27.3269
1.86656 9.02124 36.5772
2.68379 6.8436 32.9902
3.25857 13.4805 51.1541
2.64645 8.41973 23.437
1.84701 6.5472 23.4935
2.21373 8.51649 31.1233
1.69527 5.26481 16.0581
0.870106 3.25209 25.7592
1.63527 6.23532 37.4215
3.0092 9.23205 16.6439
1.11039 12.0791 68.0819
4.88031 8.1711 30.2292
3.01371 14.5495 38.9352
1.72572 5.69755 27.0874
2.76173 7.4156 30.3727
1.65088 8.96514 33.6335
2.01382 7.09921 37.6361
3.42103 8.25921 19.1412
1.51625 8.21803 20.8356
1.34231 4.97761 24.2427
2.07552 8.79082 39.0565
2.53334 7.27503 32.2949
2.04001 8.481 26.9831
2.77773 15.7343 60.3981
4.37745 7.20277 32.0194
2.91843 7.31728 18.2121
1.66953 6.92358 20.7374
1.11354 4.66322 28.5392
1.848 10.1644 29.2277
1.91656 5.92857 35.0609
2.08984 9.41912 50.8154
3.44829 8.24544 13.0518
1.53605 10.371 58.9226
4.03687 11.1699 44.1123
2.64721 9.18441 24.6285
2.25033 10.8429 38.0551
2.77575 6.13701 24.4883
1.63799 7.99994 41.7163
2.70487 14.2288 36.7489
1.97695 6.97183 30.6945
2.39532 6.34325 24.8987
1.73294 6.89437 51.3467
4.10988 15.2731 34.3336
1.78049 5.89667 31.1992
2.44833 8.36261 35.0797
2.74643 5.9705 16.5737
1.19615 5.05476 47.3336
3.38199 15.8333 37.3426
1.98062 7.03221 39.0316
2.34752 12.2283 40.4274
3.16699 7.18516 39.5772
2.43865 13.6896 38.8825
2.41191 22.9661 191.803
13.0816 20.5589 43.2391
3.4704 15.9793 40.0491
3.01875 7.98551 25.645
1.87211 6.95052 38.5124
2.756 11.3518 34.7793
2.11203 5.28241 22.942
1.78975 9.70449 37.5626
1.77292 9.5373 42.5996
2.512 8.26537 40.1861
2.58091 7.7656 40.1202
2.91537 15.4713 28.6232
1.60837 8.50111 29.8258
1.80756 12.4695 60.0389
3.85807 11.5614 23.1887
2.10838 5.68912 28.8532
2.56783 3.48213 25.9578
1.76466 4.86779 17.8675
1.35487 14.6158 74.2356
5.62127 19.8598 51.4943
3.11335 14.6753 40.4241
2.71272 4.75274 27.8468
2.51788 9.30361 24.7897
1.72243 5.70874 35.4767
2.51864 6.3723 22.193
1.79977 9.49432 39.917
2.62055 4.52876 19.0831
1.94133 8.20713 36.5294
2.374 12.5367 51.3718
3.94053 13.2689 46.7665
3.18147 6.58762 44.6109
3.70531 12.7556 47.4362
2.89373 7.43449 26.7788
2.08024 10.0363 36.127
2.14581 11.2677 32.0742
2.63198 11.1649 31.979
2.24741 8.60348 26.6957
1.4086 2.28356 53.0808
3.33174 7.48928 34.0061
3.22308 16.4703 33.8465
1.5236 14.1296 71.2747
3.94408 5.73515 25.6592
1.43406 9.00343 26.0524
1.76954 3.33227 35.3076
2.63737 14.2948 24.1675
1.44798 4.78192 29.3528
1.87402 5.80748 55.2216
3.73688 8.36717 24.3184
1.52237 9.631 32.902
2.6461 10.1532 28.2949
1.82748 6.84763 39.2015
2.5634 9.74224 30.1715
1.97648 3.7858 14.6602
0.742256 7.19934 37.065
2.82304 6.81951 36.2338
3.1542 9.3842 57.0409
4.33162 14.6971 21.1173
1.37669 8.79957 35.1671
1.8642 10.3199 34.6393
2.67527 7.86571 38.2396
2.67645 6.59246 26.1724
1.61549 5.46781 23.051
1.02606 9.42264 49.3626
3.2456 10.9335 44.8914
3.35346 12.8807 51.307
3.53977 6.86713 21.3752
1.53922 7.7765 22.1764
2.00728 6.89652 39.8384
3.23298 13.9833 44.3348
2.59225 9.83265 36.1322
2.06424 6.28427 34.0536
1.68509 9.66813 43.7136
2.94297 6.4845 24.3695
1.83989 7.94941 26.6942
2.09809 12.2864 47.1401
2.52774 8.90696 38.7303
2.65196 8.52523 30.0364
2.19652 9.70198 32.2732
2.07887 7.77528 34.8854
2.4517 8.17141 34.7911
2.4052 12.0038 61.2792
4.49898 20.7649 82.3589
4.97754 12.3028 27.3666
1.99325 3.88931 16.083
1.4975 3.85596 24.1165
2.18408 9.3781 40.3866
3.43516 8.49696 26.9934
1.9123 6.55465 24.2068
1.8433 2.63074 14.0536
1.29223 7.41407 18.0475
1.11368 6.17232 42.1508
2.96091 11.2859 41.5963
2.48258 9.79969 35.7795
1.91472 6.56331 22.0991
1.31832 6.19727 21.509
1.58236 7.50024 12.3806
0.955191 10.1141 101.916
7.73952 0 0