# pn-170911/RbIIR-51-RbII-1280-1959.psd
# Power spectrum* (dif=0,1,2) (really just |FT|^2)
# NOTE: only the first half! (symmetric)
# weeks: 1280-1959
# 335 clock-days, 2 excluded
# PSD: 1441
59971.7 1.11255 0.026497
2.09658e+06 53.0056 0.0442324
2.85129e+06 49.4543 0.0496063
807659 16.5244 0.0407636
577112 20.2739 0.0460529
329956 9.0553 0.0452254
216408 8.82532 0.045842
159080 8.53094 0.0449832
125458 8.4892 0.0514019
100903 7.77116 0.0492754
72581.8 6.53443 0.0502638
74375.9 7.44508 0.049
49670.4 6.78655 0.0515015
50752.5 6.36127 0.0526947
40682.3 6.59103 0.0570137
40401.8 6.9735 0.047927
30202.8 6.05585 0.0534576
29695 6.67416 0.0502443
27266.9 6.2359 0.0633299
24078.2 5.70553 0.0584056
16171.1 6.45029 0.0623911
25107.7 6.94857 0.0579102
19345.8 6.19501 0.0630243
15116.2 6.15869 0.0572781
13009 6.17452 0.0590165
13268.4 6.65609 0.0636524
10275.9 7.17798 0.0771039
11145 5.97113 0.0650164
10778.8 7.15328 0.0680856
9682.78 7.7673 0.0785345
7580.11 6.44477 0.0720877
8812.55 7.77327 0.0856738
8325.34 8.4994 0.0859907
6717.04 8.17359 0.0887026
7616.8 7.94915 0.0874909
6891.27 8.26674 0.0939532
6224.36 7.67973 0.0858651
6351.2 8.08867 0.0876583
5890.87 9.1903 0.103561
5722.46 8.87522 0.117582
5336.79 9.97297 0.120966
4723.43 9.49188 0.110481
4831.56 10.1744 0.119907
4538.44 10.0933 0.147851
3942.73 10.0534 0.138647
4341.05 10.7758 0.1489
4235.56 10.0795 0.145484
4476.02 12.8137 0.178852
3480.02 11.3685 0.176419
3764 10.0409 0.167073
3615.57 10.7246 0.172752
3698.32 11.848 0.19103
3222.11 12.2422 0.205051
3232.79 13.5136 0.238339
3284.31 12.3552 0.202345
3260.62 11.1404 0.207206
2967.69 10.9322 0.224162
3292.03 11.9125 0.242057
3236.94 13.0534 0.255474
2729.24 11.851 0.250653
2860.65 14.4057 0.281678
2807.51 12.5865 0.275268
2725.58 13.1751 0.305818
2882.96 14.4402 0.323879
2779.86 14.7102 0.356795
2666.79 14.6759 0.350916
2419.32 14.6899 0.359086
2795.58 15.7518 0.400556
2372.01 15.5344 0.41989
2430.41 15.1981 0.394264
2005.17 14.1914 0.403995
2057.82 15.4307 0.447743
2032.88 14.3169 0.427182
1936.76 15.495 0.457101
1930.92 14.3695 0.43218
1911.35 15.7798 0.502738
1789.26 13.9736 0.445377
1661.76 14.6587 0.484645
1746.89 16.7297 0.540579
1727.78 17.0385 0.600293
1667.77 15.4817 0.558481
1585.4 15.9122 0.558536
1524.4 14.6579 0.545193
1436.74 16.4274 0.611943
1445.78 16.9555 0.618161
1589.76 17.558 0.659443
1324.01 16.8985 0.659311
1241.16 14.8129 0.608271
1263.83 16.4823 0.647965
1262.44 16.9846 0.693259
1060.35 15.4715 0.645488
1356.34 16.6807 0.725053
1281.26 17.6504 0.743918
1142.52 16.1053 0.712908
1239.68 17.2485 0.7878
1370.52 17.7116 0.823627
1100.63 18.7741 0.881877
1217.36 16.2232 0.775809
1144.4 17.7673 0.854672
1043.61 17.9415 0.913178
1056.26 17.687 0.894237
1261.92 17.917 0.931761
1073.36 17.0338 0.907325
1013.67 15.8833 0.859364
1137.25 19.3026 1.03759
1046.13 19.1305 1.03951
843.671 15.2373 0.857834
1012.42 17.4025 0.998899
947.697 19.0149 1.0681
941.589 18.3985 1.08919
913.159 20.3936 1.2271
1018.75 17.8382 1.07526
939.68 15.898 1.02786
762.402 18.2869 1.19954
827.969 18.2182 1.17514
903.616 16.8846 1.07108
703.655 19.014 1.28505
697.45 16.1455 1.09168
740.376 16.0064 1.07816
716.566 16.4274 1.13645
823.766 15.5784 1.10281
707.903 19.0495 1.34676
660.263 16.0854 1.19359
847.208 17.8532 1.32062
741.823 17.4573 1.32903
737.596 16.8964 1.31675
666.581 15.8937 1.22422
587.878 16.779 1.27102
670.997 18.1739 1.43828
627.652 19.2362 1.60136
614.365 17.1058 1.40711
627.925 15.9588 1.35644
598.212 17.3318 1.55495
591.652 15.8348 1.35171
619.29 17.4684 1.47877
623.508 17.0402 1.52082
634.224 17.9342 1.67687
555.803 19.2214 1.78738
545.672 17.7405 1.61123
579.136 17.5638 1.67609
560.495 16.6463 1.63239
561.386 18.5989 1.76518
497.384 16.8705 1.69019
516.069 17.4769 1.73792
546.543 17.2582 1.7726
543.175 17.0939 1.76748
429.205 15.2207 1.58201
527.197 17.7936 1.89285
471.609 16.5951 1.70999
527.949 17.3874 1.85243
459.194 17.4021 1.87393
485.036 16.2882 1.8286
539.278 18.3546 1.99252
524.238 18.3282 2.05362
475.69 16.9613 1.93039
500.038 17.4944 1.98375
429.638 17.131 1.98718
462.153 16.2743 1.94778
424.049 15.5962 1.86657
403.271 17.492 2.16017
404.685 17.021 2.11184
376.101 16.6466 2.07523
414.572 15.8402 1.97441
378.947 17.599 2.28108
476.646 17.3044 2.23065
462.112 17.2753 2.28082
370.448 18.7706 2.3866
361.45 17.8225 2.38967
454.552 15.4047 2.04621
370.961 17.1063 2.26302
380.894 16.3206 2.20664
308.504 17.0614 2.35454
316.97 19.1384 2.63647
383.581 16.4261 2.3554
337.882 16.4834 2.33476
323.927 18.7883 2.77177
345.641 17.0432 2.49489
345.501 15.8894 2.43812
335.98 18.5642 2.792
319.83 16.0119 2.46077
345.947 17.6022 2.75715
386.473 18.4036 2.87195
284.55 16.8641 2.63535
336.274 16.8458 2.69073
325.634 17.6099 2.83886
344.637 16.5856 2.73598
361.678 18.7575 3.01404
397.698 17.265 2.93126
299.902 16.3 2.7618
271.16 15.7278 2.63292
314.552 17.2613 2.90583
344.001 18.1591 3.12217
284.501 18.3115 3.12892
348.159 17.8127 3.12238
282.733 15.8631 2.8115
289.773 16.553 3.01461
270.739 15.2714 2.84468
343.399 16.2045 3.01167
260.975 18.5831 3.36469
261.276 16.9653 3.20034
286.505 18.2923 3.37311
267.305 16.6594 3.14918
252.659 18.5556 3.54743
311.573 19.574 3.79736
281.16 17.8068 3.47441
260.215 18.6782 3.65574
285.23 17.4163 3.51651
288.492 16.8847 3.43802
237.998 16.3371 3.26844
247.393 15.7946 3.36761
241.31 16.7305 3.45417
280.78 19.3374 3.99245
266.879 17.2727 3.63395
270.731 18.9237 4.05486
254.897 17.4884 3.73551
237.211 18.5422 4.11211
254.281 17.2445 3.74137
247.535 17.2553 3.82802
231.237 17.6325 3.93687
261.103 17.9036 4.03555
227.583 17.6326 3.96105
265.461 19.4247 4.50785
256.236 17.9029 4.21704
272.981 18.4308 4.27737
261.543 15.6837 3.75548
245.243 18.3493 4.40702
237.124 17.4634 4.26575
226.946 16.6544 4.0165
227.017 17.9519 4.36197
217.702 17.8734 4.44705
203.562 17.6041 4.37898
215.774 15.8169 4.05551
205.948 16.8002 4.31723
222.495 16.7411 4.22272
210.57 17.9161 4.6595
196.349 17.7223 4.56521
198.778 17.7123 4.71291
202.056 17.2401 4.49107
218.342 16.8897 4.45806
197.693 16.5843 4.46575
177.881 16.5946 4.47125
204.115 19.1305 5.28378
192.126 16.7313 4.55979
190.384 18.2292 5.02726
169.574 17.8601 4.84689
185.702 17.4513 4.91189
186.441 17.3329 4.93044
192.302 19.916 5.6658
174.796 17.6173 4.99675
197.566 18.0648 5.28104
172.323 15.8827 4.6704
183.813 16.7057 4.93676
175.58 17.0596 5.08523
175.59 17.8125 5.32371
180.606 17.2153 5.20235
156.868 16.6771 5.13617
180.166 17.6983 5.44054
182.791 18.3324 5.78295
179.202 21.0093 6.49724
160.899 15.9973 5.12767
180.503 15.7763 5.02066
155.116 17.1081 5.33205
138.011 16.9145 5.32427
161.148 18.6476 6.04029
159.235 17.6492 5.76934
158.2 18.0772 5.99377
192.391 16.3405 5.29053
193.84 17.2655 5.69763
131.405 17.2422 5.80292
170.56 17.0036 5.72621
158.971 16.4259 5.71014
159.122 18.6994 6.3248
150.176 17.4513 6.03415
153.074 16.6724 5.94983
154.008 17.2962 6.03855
158.28 15.1197 5.1218
136.815 17.4195 6.08521
168.644 18.968 6.80977
142.373 19.1098 6.84708
145.307 17.5917 6.38255
135.072 16.0421 5.85662
150.278 16.8987 6.15141
141.434 17.6348 6.4262
130.393 17.2184 6.60411
126.612 17.3852 6.50848
109.643 17.2667 6.61311
103.85 17.6455 6.67764
157.907 18.0058 6.94904
113.26 18.6227 7.31551
107.718 18.493 6.87053
124.635 18.4361 6.98893
110.63 18.5325 7.33227
132.423 18.4902 7.14819
131.809 16.7905 6.65469
124.136 17.3166 7.03349
132.156 17.041 6.44676
136.734 20.6969 8.49151
122.547 16.9358 7.11868
127.077 18.2548 7.44317
141.046 17.7676 7.27546
115.318 16.9074 7.2412
141.008 18.9726 7.80852
116.861 18.8519 8.04984
132.81 18.4741 7.54999
116.642 17.284 7.40053
122.455 19.0682 8.21441
120.996 18.0048 7.69351
110.056 19.2336 8.25443
104.905 18.0807 7.91514
146.953 17.6355 7.84273
140.436 19.5556 8.75393
116.917 17.0237 7.54683
106.678 17.6427 7.85367
104.989 18.042 8.10743
106.887 17.3428 7.96444
100.738 16.3738 7.51676
110.621 17.9092 8.27308
112.01 17.0934 8.06709
103.238 18.562 8.82539
123.239 17.1023 7.78837
108.497 17.2101 8.31141
104.157 17.5619 8.4079
129.614 18.3139 8.6985
114.643 16.4923 8.21909
107.525 18.4137 8.52599
112.695 18.147 8.99819
110.045 18.814 8.86216
109.378 18.9588 9.74665
104.648 17.6756 8.9017
91.3632 16.9176 8.33851
103.532 18.9765 9.20119
93.932 18.5264 9.38891
89.7611 17.4149 8.82388
95.7341 19.3408 9.50097
90.8876 17.5805 8.93319
107.536 17.7443 9.25286
81.9083 17.3476 8.96967
95.3903 17.9288 9.30976
104.875 20.1375 10.3421
107.736 18.0869 9.82414
82.7716 16.506 8.70477
88.8176 17.2899 9.15372
91.146 17.9012 9.40181
96.5057 18.5555 9.94593
91.1311 16.8505 9.07724
104.827 18.6964 9.9411
103.196 17.4788 9.6202
91.9791 15.9992 9.00919
98.878 19.407 11.0726
101.743 17.9581 9.7798
101.22 19.4097 10.7279
102.129 19.0664 10.8301
91.3328 16.6409 9.34415
108.901 18.5568 10.6235
100.019 18.0719 10.0967
118.193 19.7879 11.3593
96.0264 17.8551 10.4143
96.7434 17.8748 10.4275
101.244 19.1777 11.32
99.422 17.5463 10.213
95.9186 18.6847 10.9132
82.3894 17.0695 10.0766
101.662 17.2151 10.3381
98.8596 16.6881 10.0313
90.7068 17.9829 10.5439
80.8347 17.9153 10.7009
89.46 16.8236 9.99434
94.6147 19.2491 11.812
82.9092 17.4127 10.6579
79.0336 16.8938 10.1714
79.6385 17.6334 10.7129
86.2886 20.3016 12.4763
83.0797 17.5361 11.0242
91.6335 17.5696 11.0161
67.4264 19.4439 12.047
87.3817 19.8999 12.9367
83.088 19.6652 12.5545
83.3998 16.6219 10.5664
74.395 20.3617 12.8723
81.172 17.6246 11.6854
84.3905 21.4099 13.3448
79.0273 17.3308 11.1473
86.374 17.5293 11.6529
79.3653 16.7025 11.1457
71.7717 17.3852 11.338
84.3074 17.6705 12.0265
82.6335 17.2237 11.4402
71.1324 17.6128 11.9136
76.4121 17.436 12.0428
96.4599 17.84 12.0955
80.6957 18.6647 12.9014
88.6734 19.3512 13.1641
72.6307 17.6999 12.2481
79.2069 17.2489 12.1543
66.6333 18.7511 13.5332
81.6302 16.2986 11.1673
69.5168 17.6765 12.051
76.0777 18.5364 13.5817
75.5577 17.8993 12.9146
88.5816 17.2171 11.8135
81.9306 18.0071 12.9706
64.0474 16.5599 11.6316
76.1075 19.1552 13.9271
85.3156 17.951 12.7048
70.8897 17.9244 12.8106
69.6189 18.7428 14.1329
78.5894 19.2415 14.1531
74.8982 18.1968 13.4069
73.6302 15.8356 11.9094
66.8407 17.0756 12.6362
72.3639 17.654 13.3938
73.698 16.4 12.6525
69.0095 17.6821 13.3866
84.4954 17.7111 13.6401
68.5778 17.1286 13.1917
63.8992 19.2834 15.0158
68.2902 18.1639 13.7781
68.0111 18.1665 14.0901
65.1177 18.5729 14.3502
65.4162 17.3824 13.5261
60.8416 18.5382 14.8231
66.4176 18.6005 14.1792
62.0655 17.5091 14.1615
60.7641 17.4095 13.6496
69.56 17.6661 13.9081
59.1206 18.577 15.084
59.7766 19.3894 15.2762
63.8948 19.3074 15.6032
65.7734 18.0204 14.6249
63.3345 17.5214 14.4066
54.9647 18.6624 16.2451
64.2783 16.0849 13.1887
68.099 18.8807 14.9824
70.3979 20.6552 16.6894
64.7985 18.0411 15.2333
62.2 17.1342 13.9783
57.8571 16.0923 14.1735
62.9146 15.7923 13.4728
60.3742 14.9157 12.5407
66.0975 17.7559 15.7423
68.8769 18.5121 15.2698
71.6126 19.3597 17.0984
66.6411 19.4854 16.8956
66.4943 18.4091 15.7221
59.5332 17.8163 15.7977
68.9678 17.0085 15.2015
61.8533 19.7855 17.4
58.2014 17.3739 15.5673
57.6529 17.9319 16.0582
54.4741 19.7373 16.9636
59.1751 17.32 14.7551
54.7059 17.8672 16.0139
71.2668 18.5895 17.1556
66.6841 19.4654 17.117
54.0485 19.195 17.4873
54.311 19.4301 17.7739
73.6786 17.9882 16.5553
56.7232 19.2046 16.7948
57.5081 18.8588 17.1357
47.0224 17.5397 16.0378
48.136 17.5291 16.6649
68.6244 17.7176 16.7296
54.1474 19.1332 17.8119
51.427 16.5759 16.158
55.2539 18.3818 17.109
55.35 16.218 14.9903
52.2008 17.288 16.2667
49.0465 17.1741 16.2145
55.9661 18.3669 17.5078
63.0767 17.1567 16.724
46.771 17.2004 16.8492
57.5673 17.7065 17.4403
55.1716 18.0316 17.5519
55.345 19.22 17.9441
53.2186 18.5623 18.0777
55.7328 18.3495 17.6331
50.3616 17.1443 17.473
52.7439 18.5923 18.0307
53.9561 16.3215 16.5334
58.2263 18.478 18.6292
45.0607 17.4779 16.816
53.4426 17.9954 18.8165
59.6518 17.3396 17.5726
49.9042 17.7003 18.0693
55.6933 16.6108 16.5694
55.035 16.3113 16.2417
48.7913 16.1372 16.5372
54.4042 18.5177 19.5852
49.8761 18.3634 18.0453
52.9475 17.2957 18.2465
47.1274 18.4059 19.6629
55.7788 17.623 18.6307
52.4799 16.3482 16.5444
51.0361 18.2552 19.2689
55.641 18.8643 19.7847
54.0343 16.5288 17.8606
48.0406 16.019 17.5502
55.105 17.7702 19.3551
51.3641 19.0139 19.9237
55.6433 18.1704 19.4482
51.0591 18.7516 20.8729
52.0045 18.9434 20.5513
49.0796 18.9098 20.1714
46.0327 17.9822 19.5122
48.2046 17.3546 19.5567
49.4565 19.0569 20.967
44.8009 17.4254 19.1996
45.606 18.3385 20.186
46.9628 15.8498 17.834
50.5695 16.9483 18.8662
45.2236 18.1877 20.2102
55.0866 17.4458 18.8496
50.4774 18.8111 21.0253
48.3459 18.4737 20.9446
50.1522 18.0149 21.2588
45.1347 17.8871 20.303
50.3845 17.8332 19.9863
46.0966 16.4713 19.0146
44.6734 18.0368 19.7859
45.1115 17.5143 20.8515
47.041 16.2672 18.6019
53.1323 17.8082 20.3178
44.4893 18.2042 21.0042
42.2926 15.9452 18.7911
44.9389 15.9225 18.3934
46.4654 14.7654 17.6937
45.2864 17.9053 20.8141
47.121 15.9759 19.0355
44.7459 16.8393 20.4437
47.7985 17.5651 20.7266
41.2154 16.709 20.2099
43.3582 17.89 20.6022
43.8926 17.7061 20.9201
40.8074 17.0525 21.8487
44.901 16.346 19.7225
43.8193 18.0986 22.0635
47.4214 18.358 22.9628
48.619 16.9268 21.2168
40.3684 16.3752 20.6388
49.1233 17.82 21.799
43.6354 16.4401 20.1559
40.3015 15.5519 19.4705
43.1866 17.7731 22.6116
37.7805 16.3315 20.5118
42.0102 16.9876 21.147
46.2054 17.2612 21.9919
46.6518 16.5582 20.9636
39.4104 17.9854 21.255
46.1242 17.3289 21.0837
37.7404 16.0628 20.8249
33.3743 14.9688 19.8779
46.4284 18.0406 22.7026
37.882 17.1428 22.1409
34.7168 18.6661 24.0127
48.1709 17.9466 22.1437
44.0261 16.2094 21.0813
34.1823 17.174 23.6611
47.31 17.8907 23.1951
43.9465 17.7633 23.1241
42.4759 18.9587 24.4807
36.9169 17.2046 23.0496
43.8297 16.7684 22.2755
41.3214 17.6842 23.7403
46.8374 18.1132 23.8424
38.7261 16.1449 22.0309
44.7464 18.4617 25.4186
41.5211 20.2932 26.7736
41.8809 17.9494 24.2642
39.2242 17.8884 23.2866
40.7033 17.6392 23.8554
39.4607 17.533 24.5596
37.7406 16.151 21.8303
35.2648 17.7679 24.2626
29.8459 18.4915 25.0364
29.5088 15.1766 21.4691
54.7321 17.4045 23.3072
31.8059 18.1428 24.4154
32.9368 18.6208 26.9143
40.6712 17.4827 23.7577
33.6734 16.9146 24.0895
39.463 18.388 27.172
38.7741 16.5003 22.7318
36.6273 17.2977 23.5299
36.3635 15.9664 22.499
37.2607 17.2739 24.0522
33.174 17.5975 24.1515
36.9114 16.8819 24.4082
36.0207 17.7272 26.0451
30.8398 16.955 25.0445
34.9881 16.9651 23.1648
34.7856 17.1885 23.6065
36.2554 14.1859 19.7979
32.7233 15.5223 23.6156
35.3109 15.2961 22.2794
31.3401 16.7255 25.4665
30.4873 17.6339 24.3147
31.9319 17.3104 26.1381
37.985 17.5492 25.3909
34.6452 14.0855 20.8406
35.0539 15.8014 24.1779
31.7416 15.4575 23.5789
31.329 16.7418 25.3761
29.8041 15.9922 24.3
35.0374 17.0583 25.3279
37.9264 16.8966 24.2049
31.5624 16.0451 24.402
25.2375 16.716 24.6789
35.3939 16.1178 24.2939
32.6321 16.5763 25.7254
35.7855 17.0874 25.2673
34.0299 17.0146 26.9826
37.9693 17.4047 26.3368
31.6377 15.7245 24.1867
31.6524 16.5157 25.4538
32.2465 18.3033 27.9276
31.9125 16.4608 24.2531
29.3324 14.434 22.507
30.2345 16.1002 26.2576
35.5975 17.4304 25.9906
29.1105 15.764 25.157
30.8032 17.2921 26.9839
33.3355 15.5585 23.7197
31.2033 15.3122 24.3321
32.6017 17.4724 27.6864
30.1382 17.3505 27.8025
32.4192 16.6103 25.2332
31.3667 16.4481 25.8089
36.6723 15.0394 24.7958
32.5873 17.5376 27.391
28.7342 15.5636 25.0285
31.2976 15.6619 26.4144
32.4789 16.1999 24.5885
28.2164 14.9207 25.1045
31.1052 15.7346 25.18
32.0485 16.692 27.8147
32.6243 17.6533 27.6405
31.8947 15.6715 25.7466
33.9903 15.2739 24.4888
29.03 16.2133 27.6626
32.2173 16.2638 27.9871
30.2276 16.2237 25.8236
32.8875 16.9342 26.8779
31.6838 15.9088 27.3688
31.6699 16.3784 26.0845
33.6215 15.9104 27.1264
35.9316 15.5364 25.7298
30.1943 15.873 25.9763
33.4819 16.6416 28.7955
33.4834 16.4093 28.9635
26.8675 15.4568 25.4446
32.6491 16.1352 27.2134
32.2366 15.6751 26.1897
28.7237 14.9729 25.7663
27.6479 14.9913 26.4054
30.4088 16.3691 28.4556
28.3191 14.4598 24.5432
32.1581 15.4312 28.155
27.1221 16.7801 28.2988
29.4705 16.34 28.4256
31.8146 18.071 29.8071
29.2722 15.814 26.1797
28.9957 15.6424 28.1496
28.4453 16.4344 29.7813
33.1321 15.5262 27.2588
30.279 16.625 28.7374
27.7519 15.2463 25.8482
28.341 17.017 31.3925
32.6809 15.0395 25.3005
26.4575 15.7899 27.6094
27.1854 16.0782 28.6109
29.601 15.0984 27.68
30.8929 15.3681 26.5104
26.3075 15.5383 26.3629
29.3232 15.4966 27.9245
31.1379 16.6281 30.8982
24.4778 14.4191 28.2356
31.132 15.6187 27.2099
30.0374 15.8989 28.0699
25.3099 16.0032 27.4189
30.2303 15.1719 29.2092
28.2089 15.0455 26.6615
27.77 16.0404 29.1097
25.9267 16.2376 28.6914
27.0675 15.3077 27.761
26.8346 16.7076 32.1642
28.5582 16.6471 31.384
26.3318 16.1523 28.8717
33.0274 15.9558 31.9039
33.1628 16.9416 30.8733
28.7798 15.9811 28.7354
33.5482 17.4391 31.9416
26.9996 14.4399 27.5362
26.5913 16.1044 30.1312
28.1655 16.6804 29.715
26.7702 16.0567 30.5359
24.8859 16.3235 30.8372
25.6781 14.7965 28.3924
26.1588 15.2253 29.7809
28.5916 15.842 29.1964
27.3614 15.82 31.3024
25.8485 15.0358 29.3632
27.5233 15.1846 29.3313
26.2724 16.1177 30.0433
28.0591 15.8777 29.2454
25.7975 15.7608 30.4901
26.3485 15.4599 29.4789
28.1282 16.952 33.6517
27.2452 16.2167 32.3126
24.8781 15.9224 30.6972
26.8718 14.3911 26.3973
23.6844 15.9133 32.2947
27.6739 15.4467 30.7839
26.8021 16.5642 32.2897
22.4979 15.1962 28.5662
23.729 15.1311 30.1213
26.5909 15.5255 29.4971
27.2821 14.0308 29.8119
27.9884 15.9468 32.1691
22.6992 15.4073 30.2942
28.0536 16.4965 31.1821
25.0273 15.3496 32.0576
25.0441 14.315 27.3775
27.8462 16.2828 32.9131
21.5008 15.3619 30.2244
25.4434 14.2006 28.2689
23.8622 14.0309 29.2435
25.8132 15.1129 30.3988
25.3329 14.9614 30.2965
24.0839 17.436 34.0538
29.8928 14.6413 30.8391
25.648 14.9818 31.04
25.4604 14.7595 28.6274
24.6759 14.2154 30.7931
30.3921 16.1316 31.7814
26.0395 15.6581 31.8431
24.0677 15.2583 31.5464
20.7793 14.8447 32.064
23.9746 14.072 29.0897
27.525 14.8392 31.337
24.8743 15.9464 32.6289
27.9611 15.0209 29.281
24.7235 15.3049 32.8554
23.0993 15.0094 30.5044
24.2123 15.7063 32.4283
29.7185 14.7462 31.3631
22.0123 15.9509 32.6873
23.8004 17.0826 35.8922
21.4578 14.2429 31.6373
22.164 14.4754 32.3666
22.1981 15.2794 31.0103
23.5479 14.8473 31.0757
21.3077 14.93 32.2633
19.9006 14.3059 31.7899
23.4917 15.5727 32.6504
22.4982 15.0314 30.4135
23.304 15.175 33.9619
24.4388 14.0905 30.3906
24.5351 16.2462 34.483
20.3211 15.675 34.4371
21.9743 14.0383 28.5338
22.5142 16.7956 35.1398
23.9584 15.1007 33.4504
21.4898 13.0236 30.0003
22.3398 16.2275 34.5082
23.8537 14.6679 31.7662
21.6282 14.103 31.0301
22.4973 13.6657 29.714
24.8077 16.252 34.343
19.8197 14.4614 32.5301
26.0204 13.8575 31.1397
23.5563 15.3945 35.4199
22.1954 16.3788 34.2648
22.6149 14.2084 32.7741
24.6988 14.8216 31.8205
23.3647 15.6421 35.6061
22.2492 12.893 27.6789
20.8768 13.4345 31.3766
22.0166 14.7672 34.4944
20.6008 14.0116 30.6544
24.8469 13.7651 32.5714
23.2466 13.7025 28.817
22.1463 15.2735 34.4833
27.0406 13.4039 32.6132
27.3409 13.7199 29.389
22.3004 14.3927 33.47
28.3597 15.2812 32.4496
22.4392 13.5709 33.5044
28.5573 14.1572 32.2822
21.2023 14.2718 31.6017
21.3445 14.4823 33.2901
22.8698 13.3 29.3571
21.4288 14.4088 34.9232
22.1642 13.8008 32.124
23.5928 15.2643 34.9491
20.6548 14.7404 32.6736
22.2188 14.7178 35.5904
19.5056 12.916 32.4727
20.3141 13.7896 31.5271
22.6554 13.4791 31.032
20.6064 12.6181 30.0858
20.5888 14.1511 33.4156
22.1949 15.944 39.7505
24.2459 14.2682 32.1325
19.8493 13.7662 30.8379
20.391 13.7398 32.3988
21.6098 15.2171 34.0673
19.9198 13.9852 34.3534
18.2883 13.9035 32.9904
20.9474 14.3037 34.8028
25.2111 13.8746 32.0931
19.5058 13.0229 31.6164
22.5166 14.696 35.7299
20.1583 14.1325 35.4984
24.578 13.1975 31.4476
20.304 15.3962 37.2803
21.3607 13.0866 30.5573
22.7488 15.1558 35.7256
21.1072 12.7233 32.0958
20.0293 13.948 32.9238
22.4905 13.5484 33.4179
18.8212 14.6282 33.464
18.7014 13.5831 33.6146
23.6495 13.4345 31.5097
20.3059 13.3153 32.1873
20.5669 13.7212 34.1489
21.6568 13.591 33.8338
20.6798 14.4287 37.5034
24.9964 13.8644 33.5821
21.7753 14.5211 33.9118
19.5753 13.8603 33.2261
19.9649 14.1168 36.1632
19.4561 13.7465 34.5608
22.1827 13.8538 34.4549
19.3388 13.7269 33.4497
21.9528 14.0886 35.8012
18.7819 12.728 31.346
22.8677 13.7194 35.5654
19.7093 15.0744 36.483
18.371 13.8556 34.9876
18.85 14.5329 37.4565
20.6114 14.0959 35.2812
18.1804 13.9315 35.3867
22.1591 13.1421 32.13
19.803 13.4807 35.1938
16.5161 12.7486 34.1926
25.8982 14.7042 36.5613
21.7835 13.6043 34.0851
18.1741 13.8608 37.0637
23.0573 14.7342 35.0322
19.0215 14.8202 37.2766
22.7718 12.9545 35.0916
24.2243 14.4866 35.1348
18.3164 13.3373 34.2099
20.9836 15.5994 40.1826
23.2987 13.1004 33.4601
21.0121 14.1271 36.2392
19.4889 12.6053 30.7749
19.5739 13.717 38.3297
18.9057 15.3967 38.4359
21.5878 14.4883 37.9896
20.9495 13.499 35.229
19.1211 14.4157 36.299
21.5604 14.9215 38.6008
35.6327 13.6021 36.8428
18.5955 13.836 38.7997
23.3943 14.819 37.9391
24.697 14.3086 37.3083
21.9408 13.9868 36.1728
20.7843 13.0667 33.3187
19.7943 14.3182 36.6806
20.4189 14.7265 40.0644
19.4114 12.8726 33.9844
20.8188 13.7994 34.1248
20.002 12.9238 33.7661
18.0921 12.3118 32.4963
16.6624 12.5161 33.183
16.2843 13.9421 37.9423
21.1025 14.8843 38.7848
19.1179 14.1972 39.116
18.1424 13.0113 32.8204
20.0542 13.122 36.78
19.7195 13.913 34.8893
16.5966 12.7029 34.3039
15.3968 12.8544 35.0153
17.0973 13.3851 35.6044
19.6997 13.0659 37.1341
16.4113 13.3839 35.6058
15.8644 14.2321 39.3791
17.7129 13.4405 35.5901
16.3164 13.9514 36.6496
17.1505 12.7753 35.783
18.1924 12.9884 35.7351
18.2413 13.4818 36.7679
18.6161 13.9461 38.5395
16.1909 14.3332 38.7242
21.3431 13.5549 37.1318
18.5527 13.7754 36.7962
20.2711 15.3549 45.5539
19.9972 14.0748 37.1556
24.2568 12.9107 36.667
18.7223 13.1866 36.2011
19.3435 14.9046 40.6082
17.9913 15.1027 40.667
18.2965 13.3069 33.7009
17.1411 11.7961 36.2654
18.4446 14.2765 37.8513
20.4441 12.9156 36.1257
18.7315 12.8157 35.6878
18.7529 13.7466 38.2936
19.4601 13.8835 39.2353
18.0631 13.422 37.6241
18.0772 13.2333 39.1897
17.2098 15.0129 44.7847
18.1465 14.2939 36.357
17.5896 13.281 38.5598
18.552 13.7047 34.2743
17.6759 14.164 40.5022
16.637 13.0017 37.1768
17.0936 12.3999 36.9562
16.5748 12.6706 31.4401
13.4023 12.4422 37.0421
16.9232 13.0833 36.3601
16.7217 12.6238 38.8828
15.7381 13.3325 39.0757
17.0915 13.2601 36.6594
17.7953 12.7283 36.0107
19.3404 12.8938 36.8953
16.5385 14.1249 39.4509
14.3374 13.9553 41.2136
19.2226 13.3751 40.1027
18.8122 14.5308 40.0004
17.6568 12.5891 36.7754
18.2605 13.5784 39.1606
19.7759 13.5285 39.1747
18.4321 13.1112 36.6975
19.541 13.9756 38.7551
17.6916 12.9631 37.4687
13.9024 13.5525 39.891
16.5781 11.4836 33.8935
18.5588 13.549 43.6967
16.7693 12.6714 33.9456
16.4389 12.4688 38.0049
17.8238 13.2831 38.4999
16.7981 12.7812 37.4974
18.4834 14.1087 36.831
16.5852 13.6757 42.5007
18.1513 13.6422 40.5532
19.1405 12.0073 38.2621
17.7292 14.307 41.1027
16.6978 13.616 36.6579
15.9471 12.3993 38.0411
20.757 13.5166 39.3753
16.6454 13.3669 41.0776
17.5467 14.2536 41.1632
17.2784 13.4812 41.6724
15.7564 14.0832 40.2823
13.8806 12.7304 36.7765
14.5974 12.2451 38.4948
17.1012 13.0597 39.2071
16.3886 13.5215 41.4503
16.1492 13.9218 40.472
16.565 13.7766 42.477
17.0813 12.9949 38.2789
17.3445 13.5171 39.8728
17.4404 13.8581 39.5232
15.7868 12.6589 38.7151
13.9596 12.4084 38.9166
14.4886 11.4559 37.1762
16.3292 12.6881 37.6729
16.4494 11.9022 33.2462
12.2735 11.3794 37.9682
17.105 13.2959 40.1736
14.0868 12.2195 34.2286
14.6082 12.03 37.964
15.2901 12.1926 38.2868
16.5012 12.9935 39.2204
16.2405 13.3957 39.151
16.4447 13.0638 39.4117
16.6237 13.5981 40.393
16.4228 12.4867 39.774
16.7938 12.3522 38.7499
18.6147 13.4517 40.3044
16.5415 13.7245 39.2097
14.794 12.4666 37.7791
15.7383 11.8875 39.3113
16.3176 11.9881 36.1511
15.0272 11.5039 38.2136
17.315 14.3268 41.9311
15.5003 10.9955 33.5581
17.6175 11.943 36.2788
15.8458 12.9226 41.5888
15.6212 13.3176 42.1253
14.1851 11.7293 38.5722
16.8235 12.2111 34.6551
14.6698 12.4776 40.181
14.931 13.3934 38.857
13.6612 11.861 39.5048
15.9126 11.5693 37.4226
14.3937 12.5113 38.2203
14.11 13.0731 39.2244
14.997 12.7139 39.0743
13.3688 13.7563 43.8129
16.6576 12.7887 41.8507
15.7884 13.4577 43.7041
16.4779 12.6762 39.0647
13.9316 12.4165 37.699
13.5897 11.8406 41.1386
15.9999 12.0594 38.1789
14.0498 11.2305 37.7617
16.609 12.862 37.5338
14.8739 11.8189 39.5017
14.2215 11.2175 35.0584
13.7776 11.6897 36.2886
15.9278 13.0805 44.7806
17.9016 13.0771 42.3167
17.4493 11.9126 39.3849
16.7293 14.4015 41.1122
17.1228 11.6867 40.3451
15.972 13.3905 40.9477
19.0151 12.591 39.9946
14.8969 11.0853 37.2162
18.1727 11.5276 39.8975
16.4118 14.1001 44.8788
17.0445 13.7135 40.7199
14.5354 12.6225 39.2969
14.3579 10.9525 34.5899
14.8877 13.0232 41.1419
14.1233 10.9632 38.1038
17.1412 11.4968 36.592
15.686 11.2828 37.7299
13.2354 12.3677 40.1651
14.9871 12.7376 37.7276
18.7897 13.4683 46.7134
14.5408 12.8919 42.5862
16.3809 14.395 44.8994
16.3094 13.5938 43.4574
14.2071 12.9842 43.1367
14.8667 12.6502 42.5878
17.3501 12.5318 39.7743
14.7897 13.0103 43.7847
13.6478 12.1946 40.5028
15.2813 12.7054 42.8662
15.9224 12.1186 38.6053
13.7116 12.3506 38.9182
14.9198 11.3252 39.1138
16.8339 12.0298 40.2131
12.6299 12.152 36.1195
12.6873 12.2992 42.8736
15.019 12.446 39.959
15.1151 13.1357 40.6857
12.4248 12.7171 44.6881
13.62 13.0432 44.3578
14.5603 12.4042 43.5531
15.1877 11.4843 37.2576
14.0017 11.8068 39.4669
14.7898 13.5952 43.5177
13.9599 12.386 42.0363
15.9283 12.2556 41.7974
15.3036 12.7194 39.7946
13.3867 11.4003 40.0925
14.1036 12.1694 38.9418
16.7043 11.525 41.8825
15.2116 12.7032 38.8816
14.6689 13.4321 46.0942
15.29 11.552 40.9008
15.2459 12.5886 41.0734
15.5615 11.8577 37.5312
17.6623 11.3087 40.608
15.2564 11.0568 36.7234
15.4779 11.6431 38.1091
15.457 11.731 40.7297
16.0047 12.1318 41.7242
15.0138 12.5987 39.6675
15.5979 12.5319 41.5214
15.0355 11.8782 38.8853
16.3136 11.4598 41.7155
13.4683 12.3444 41.1287
15.5291 11.2877 35.3369
12.9459 12.239 44.9888
13.0787 12.7359 41.9459
14.3099 11.593 41.7742
14.0205 14.4933 47.1547
15.3603 13.1958 42.2796
13.9109 12.1833 42.675
12.6421 12.1472 43.6534
14.3395 12.425 42.4437
14.5482 12.5447 42.2
14.7313 12.0531 40.681
12.7456 13.3395 42.6742
12.0518 12.8397 45.1334
16.6365 12.3759 44.9231
12.6926 12.4596 41.4428
14.175 12.4771 44.6242
14.9308 12.3868 39.716
12.1077 12.0338 41.0501
12.7885 12.7545 44.0623
13.0484 12.0655 43.485
15.2339 12.6889 41.1927
12.5574 11.4794 43.2915
14.3225 11.693 40.3812
14.7251 11.1577 39.3997
15.8028 10.9816 37.4645
14.3022 11.7398 42.2526
16.7369 11.6768 41.8838
16.239 11.9755 40.7179
13.7631 11.3363 39.8723
12.7151 12.6067 45.7996
15.5768 13.1501 46.3885
13.6604 11.8877 35.4605
12.7831 10.7688 41.3396
13.8561 12.5362 41.2848
15.5394 11.4133 39.9851
14.1704 11.801 42.9482
14.342 12.437 40.4507
14.3291 12.1091 42.9732
15.3835 11.2812 42.2385
14.12 11.9591 41.9901
13.7923 12.1889 44.1492
13.5542 12.31 42.5199
16.1675 12.6213 40.7704
14.9534 12.0342 43.6063
15.6731 12.0584 43.666
16.3479 11.8658 38.7164
13.309 11.7763 44.6267
18.5707 12.6568 42.9532
14.4979 12.5416 47.3745
11.1908 11.9869 40.263
13.0848 11.9815 45.4246
12.52 13.0721 44.7894
11.9146 12.5129 43.3874
13.675 10.6986 38.5579
12.1036 12.2506 43.6663
12.9525 13.2119 41.1508
14.9497 10.4754 41.1905
13.6034 11.8492 41.625
13.9489 11.9728 41.8227
13.7832 11.9454 42.95
13.0982 12.2939 45.6982
14.0008 12.8264 43.0326
15.9162 12.3288 47.5911
13.4914 12.7652 46.3093
12.9075 12.7456 45.2185
15.5878 11.3993 42.3591
14.6652 12.9127 47.7149
13.7849 11.8399 39.9192
15.0647 11.6651 43.162
14.7532 11.3061 40.658
14.6521 12.3165 44.5263
15.4535 12.4948 46.2741
14.3171 12.7359 46.9319
17.5269 13.6814 47.6465
27.6964 13.2817 42.6114
12.7538 11.5896 47.4647
22.6104 14.1924 49.2491
21.0308 11.5448 43.0383
17.1033 12.9351 48.3114
16.8988 12.7795 46.4216
16.0618 12.6161 43.8438
14.8022 12.2974 47.8462
14.4028 12.2561 40.5478
12.6284 12.1844 46.2304
14.0244 12.4138 44.6837
15.6521 12.3746 40.5927
10.8498 12.1163 44.4632
12.8815 11.0717 45.0297
14.646 12.2508 42.3952
12.858 10.8482 39.2141
11.1868 11.0493 38.5543
12.6693 11.8286 42.0822
12.5137 12.6131 45.5531
12.1053 11.8233 44.1525
11.9479 11.8567 40.1313
11.9894 10.4347 41.627
11.8469 11.9555 45.6835
12.8604 12.6068 42.2658
12.4551 11.0266 41.1725
12.4729 10.6761 39.7528
13.8875 11.9708 43.3591
11.977 12.2127 42.1236
13.0875 10.5117 38.1359
15.0533 11.1743 40.0834
13.1096 10.9931 43.9124
12.7494 12.1772 41.0412
14.6583 11.1686 40.6193
13.5067 12.5573 46.0037
14.9939 11.2246 42.0079
13.5213 10.3505 39.3735
14.5593 10.3396 41.6814
13.43 11.4786 41.8614
14.6582 10.9628 40.2982
13.1645 11.2628 41.405
12.6195 11.9032 41.4714
11.8739 11.6957 44.7402
13.6615 10.9078 42.6529
13.9495 11.8882 41.8818
10.7422 11.7794 41.765
12.4172 11.0841 43.6406
13.8994 11.0659 42.0389
12.0147 11.7534 40.7563
13.6497 11.7966 42.6585
13.3394 12.5797 45.0928
12.7726 11.2745 44.2071
12.0207 10.7684 41.6715
15.2685 11.5331 44.9014
13.2918 11.7083 41.2676
12.1932 11.4081 44.7479
13.0402 11.8358 42.9256
13.7055 11.0032 40.236
11.0628 12.3449 43.9828
12.4857 11.7762 45.6967
12.8966 12.6427 50.2172
12.7284 11.5126 41.89
12.6699 11.0681 40.2583
13.0927 11.5377 43.2979
13.1421 10.0602 41.7749
12.0516 11.0429 40.3517
10.1783 11.2623 44.5932
13.1814 11.1104 41.805
11.9169 11.5199 41.9191
12.0457 10.4757 39.0379
11.4216 11.365 40.1212
13.2281 10.426 43.5256
12.6514 10.8556 41.5038
14.3276 12.3693 41.7307
14.0751 11.5537 46.2234
10.9184 11.2353 42.3258
12.3403 11.849 44.2779
13.2995 11.4969 45.4203
11.6716 12.2196 42.9876
12.8832 11.5541 45.2545
12.9035 11.1894 45.4429
14.9979 12.1872 46.6206
14.6588 11.5754 45.7265
13.1933 10.8352 37.6753
14.6478 10.9651 44.972
16.004 12.1727 41.8735
12.6263 10.9137 43.9501
14.5923 10.8779 39.9622
11.5618 11.7321 47.5053
15.5243 12.2359 42.0274
13.6938 11.7851 44.0453
13.7252 11.0645 43.2236
15.4201 11.5264 42.539
14.4111 10.4249 41.0597
11.7325 11.4627 43.7411
13.1119 11.3267 39.7586
12.2838 11.0987 40.203
12.1015 10.2237 44.1747
11.1137 11.3771 40.7871
11.3251 10.4206 44.3501
11.8809 11.732 42.2957
11.5517 10.9885 43.3968
13.1356 12.265 44.7136
11.5913 11.239 43.4493
9.53954 11.2602 40.8067
13.3263 9.84535 38.8436
12.3332 10.9669 39.9287
10.8685 11.0358 42.3113
10.9326 10.771 44.9953
12.6092 11.2907 43.6944
14.0578 10.6813 41.3463
13.0512 10.744 43.5326
12.1809 13.3476 46.0633
14.5114 10.9642 42.5961
12.188 12.3003 43.0227
12.6669 10.7322 42.0519
14.3387 10.9508 43.9947
11.5759 10.5017 42.9503
14.132 11.4556 43.3345
13.3129 10.8658 41.5556
12.5694 11.6159 44.2599
12.3199 10.9799 43.1463
13.5792 11.6485 43.6509
13.0803 12.2549 43.131
12.6906 11.7214 50.8034
12.3093 11.5467 39.3615
12.0433 11.276 42.9757
14.9074 9.68289 40.3113
11.577 10.9176 45.263
13.707 10.1907 39.0416
12.1227 11.2812 42.1833
12.1588 10.8762 43.4451
13.0704 11.2375 42.99
12.2093 10.951 43.3003
11.0435 10.669 41.4875
13.6572 11.7226 43.6021
11.4687 11.2373 44.0346
12.6607 10.5718 42.9099
11.5785 11.705 43.0372
11.2618 12.7267 46.7892
13.6216 10.3908 44.175
10.1294 10.1652 39.5219
13.4937 10.5117 39.4885
12.0505 10.5481 42.1767
10.3606 9.10687 36.4595
13.5146 10.3673 42.3259
12.0771 9.85353 37.6763
12.6327 11.0344 44.7394
12.422 11.2112 40.5174
10.2773 11.163 42.9254
13.085 10.6317 40.3453
11.4012 10.776 43.6201
11.4049 10.3759 39.5311
12.5322 11.7975 48.0909
12.2924 11.2952 44.7254
13.0237 12.0626 46.4285
12.3803 12.1379 45.1674
13.1454 11.2406 44.0658
11.4201 11.4296 43.6576
13.3761 10.2592 41.3085
11.8858 11.171 46.0864
14.2937 11.8981 44.2689
11.4302 10.8595 46.5292
13.0207 12.5582 44.9149
12.7805 10.3379 43.8165
11.7943 12.1393 47.5831
13.356 11.6973 42.4299
11.8828 10.4546 38.6013
9.26927 11.2801 45.3267
14.1768 10.465 43.392
13.241 11.3851 43.1898
10.6502 10.4569 36.6445
12.2932 10.0691 47.2223
13.5659 12.1266 44.8868
12.2993 10.6564 42.1217
11.9019 10.8724 40.8049
12.553 10.46 43.9502
12.4782 11.1773 46.3004
9.29053 10.384 42.8242
13.5324 11.6911 46.3967
13.277 11.6665 43.4094
10.5115 11.5142 46.9736
13.0353 11.7171 39.222
12.0344 10.4726 40.6641
9.38608 11.2065 49.8303
11.5226 11.1446 38.5067
10.9693 11.2205 46.5051
12.3743 10.431 45.8339
9.92125 11.3032 40.7231
8.37115 11.6916 47.9205
13.6228 10.8633 41.7431
11.3773 10.4058 44.6955
11.8435 11.2296 44.0911
12.3906 10.9871 45.2186
10.8301 11.782 40.9642
11.2739 10.8086 40.7398
11.6931 12.1626 48.3085
10.6063 10.8215 41.7318
12.2526 10.7177 39.5717
13.8709 9.78201 42.9026
12.9476 10.8008 40.773
12.4815 10.7058 45.4545
11.7961 10.7443 42.7624
14.3268 11.6541 41.983
12.5021 10.9654 42.9544
13.3925 9.92625 37.0019
12.4965 10.327 45.5508
13.8658 10.033 39.5099
14.626 10.1589 41.3353
13.8587 10.6507 39.9229
12.6062 9.65678 40.5288
12.297 11.633 44.9412
12.5045 10.8117 45.9606
14.2797 11.3827 41.3769
11.3897 10.9049 46.2464
12.9496 11.6057 47.2439
12.2621 11.2843 44.4704
11.0315 11.6634 41.0463
11.9143 10.4891 47.8528
13.3925 10.9946 39.6558
12.0358 10.436 40.9647
11.8576 11.7945 46.8843
10.6754 11.3473 44.3785
9.88716 9.28963 42.1938
12.4775 11.4791 44.5554
12.6771 11.7349 42.1823
9.10736 11.2339 42.9767
11.7443 10.7659 44.1029
13.1353 10.55 43.2609
11.3604 11.5825 43.7707
12.5174 11.9318 47.4469
12.2398 12.7188 49.319
12.4618 11.5704 43.0894
11.3008 9.38723 37.8463
10.0026 10.0637 46.5143
12.9712 11.7972 41.8815
11.2979 11.9942 45.0437
11.5507 11.0976 44.0659
12.7703 11.2828 47.9718
14.2041 10.9639 43.3139
11.3365 10.8014 42.6418
13.2426 10.1471 40.6086
12.477 11.49 42.2826
12.7579 9.68382 44.6658
11.151 10.961 36.4638
12.9522 9.92461 43.844
12.0087 9.78713 40.4985
12.0149 11.9238 46.7855
14.4273 10.7886 39.0142
12.7193 10.2732 41.3275
12.2774 10.5614 47.2861
13.0881 11.2367 39.0999
11.2148 10.2821 39.508
13.7282 9.78554 45.4757
11.4026 10.8792 44.5696
12.492 11.6542 45.9777
11.709 12.2108 45.8544
13.6806 11.7292 52.6992
12.9159 11.9077 44.7386
12.7755 12.2173 45.9515
12.4943 10.5031 45.4694
11.9359 11.4773 45.7903
14.3911 11.3095 44.0222
11.8032 11.1456 41.4156
10.432 11.1678 48.789
12.4356 11.8209 38.4134
10.6171 11.1232 49.5189
11.5727 12.5473 45.7754
10.7388 10.98 42.4374
9.56357 10.8612 47.9606
11.0371 10.5291 39.0512
10.9194 10.6763 40.8819
11.6032 10.902 43.3655
10.5807 10.6594 46.129
12.8181 11.1603 44.6718
11.1515 11.2862 46.9282
13.1189 11.5359 45.501
14.0437 11.1447 47.8273
12.4864 10.8913 43.4531
11.5874 11.798 48.0957
14.2042 11.7853 48.6699
13.2303 11.7983 39.0236
12.4156 10.8753 41.3797
14.0367 10.8025 44.8637
14.3969 10.8851 49.4827
16.2597 11.528 44.3494
15.3956 11.9289 44.1652
14.2102 12.0925 50.7938
17.9509 12.0161 49.4281
22.4468 11.5538 41.3703
11.8298 0 0