# pn-170911/RbIIR-47-USN7-1280-1959.psd
# Power spectrum* (dif=0,1,2) (really just |FT|^2)
# NOTE: only the first half! (symmetric)
# weeks: 1280-1959
# 427 clock-days, 109 excluded
# PSD: 1441
237.753 0.0901743 0.0784765
20056.1 0.324636 0.132595
116982 2.46652 0.134242
13573.1 0.61039 0.134175
50928.3 4.0476 0.131486
5060.25 0.602249 0.15
3743.07 0.581296 0.146378
2986.85 0.641661 0.131425
2664.39 0.789669 0.139045
1648.13 0.563277 0.13218
1404.86 0.607243 0.129401
1181.91 0.624767 0.142466
1091.17 0.709311 0.146701
911.207 0.699016 0.131885
807.619 0.707682 0.132078
724.216 0.753831 0.140876
714.318 0.756273 0.140557
601.235 0.770647 0.140572
588.98 0.852962 0.138876
559.858 0.865837 0.136674
540.498 0.953395 0.141775
454.904 0.909166 0.135186
465.665 1.03673 0.140573
437.247 1.06928 0.136384
475.862 1.2247 0.134368
402.253 1.14365 0.149505
411.693 1.32905 0.1518
379.919 1.28802 0.137953
387.954 1.42494 0.140765
324.246 1.23922 0.135511
343.245 1.40499 0.140909
312.912 1.3702 0.135965
318.727 1.49009 0.142866
291.034 1.46617 0.144381
345.517 1.81605 0.152552
302.113 1.66633 0.145703
311.507 1.87075 0.143169
316.902 2.01431 0.140313
334.477 2.18622 0.154252
306.982 2.1305 0.153085
300.66 2.22352 0.157128
320.476 2.43118 0.16599
264.144 2.09919 0.153443
289.126 2.51693 0.143203
295.965 2.61994 0.166962
268.433 2.59118 0.155274
284.794 2.80907 0.160726
270.117 2.86362 0.159089
313.751 3.37806 0.162726
239.71 2.76832 0.166874
262.075 3.03517 0.162466
257.4 3.05343 0.151145
259.822 3.33305 0.175252
295.83 3.93228 0.182632
262.376 3.61312 0.19183
252.751 3.51716 0.190775
243.27 3.54064 0.179469
242.754 3.7182 0.201686
251.938 3.89866 0.176658
253.258 4.13125 0.20087
252.707 4.3854 0.209314
224.057 4.00384 0.186879
246.738 4.38228 0.199928
211.811 3.92787 0.193805
220.561 4.13716 0.210293
206.896 4.13705 0.209506
240.505 4.8238 0.244194
241.429 5.18315 0.232966
216.367 4.69481 0.21376
220.491 4.90724 0.240358
199.878 4.52678 0.231304
231.542 5.45629 0.264608
211.818 5.23262 0.257073
209.231 5.19224 0.265132
220.759 5.72718 0.279752
216.185 5.7161 0.266922
210.711 5.81311 0.286046
226.865 6.34738 0.27837
218.723 6.16605 0.284581
199.953 5.746 0.298615
196.631 6.07961 0.31641
193.962 6.04797 0.307889
205.73 6.47071 0.345553
206.571 6.56795 0.33707
212.616 7.13679 0.358656
196.363 6.59232 0.335634
186.872 6.5524 0.358431
214.417 7.56808 0.401109
185.311 6.77325 0.368671
186.978 6.87529 0.374162
187.033 6.97243 0.395247
236.06 9.17495 0.478029
186.907 7.31818 0.404089
189.389 7.59747 0.427941
176.977 7.31008 0.449093
172.654 7.51611 0.432833
258.971 11.4005 0.597629
183.98 7.93932 0.474701
179.703 8.09631 0.486045
189.787 8.66991 0.491009
165.615 7.91269 0.47872
174.149 8.21215 0.49583
180.245 8.8042 0.535595
199.895 9.99129 0.589825
168.645 8.52308 0.558255
173.823 8.98104 0.584698
165.06 8.64393 0.594987
182.845 9.95384 0.654268
206.304 11.2797 0.72084
170.274 9.41652 0.634459
165.557 9.21297 0.596021
153.028 8.95666 0.636263
158.695 9.13643 0.668386
164.036 9.80969 0.712294
171.498 10.2832 0.722184
178.609 11.3356 0.825774
171.58 10.6459 0.7792
142.955 9.04617 0.707284
140.994 9.10197 0.683033
163.733 11.0616 0.848397
182.277 12.3516 0.928452
154.056 10.2819 0.815686
157.805 10.9839 0.89781
144.693 10.5955 0.822284
155.472 11.55 0.932166
151.721 11.0458 0.909495
154.143 11.4805 0.957731
153.558 11.6898 0.987045
140.194 10.7915 0.930667
149.472 11.5976 0.992717
143.84 11.2154 0.963541
153.189 12.5001 1.07975
149.402 12.0522 1.0971
154.956 12.9735 1.11699
151.713 12.4884 1.09671
140.983 12.2662 1.14346
133.565 11.5673 1.11914
134.365 11.9233 1.12276
140.788 12.2245 1.19958
141.491 13.1246 1.28125
127.449 11.6101 1.16159
121.877 11.3942 1.10437
125.305 11.8426 1.21003
131.428 12.8516 1.35948
180.115 17.8339 1.82668
138.309 13.1723 1.3321
125.866 12.61 1.41262
131.952 13.064 1.35879
143.639 14.8357 1.63297
130.256 13.4096 1.43704
116.778 12.3095 1.36692
132.301 14.1055 1.56267
116.19 12.5838 1.38141
133.851 15.0474 1.77674
142.169 15.2604 1.72774
141.486 16.6751 1.98278
147.972 16.368 1.92021
127.978 14.2923 1.68846
119.799 14.1976 1.74133
128.11 15.0572 1.85994
122.579 14.377 1.77627
128.787 15.81 1.95588
114.221 14.0019 1.78455
121.1 14.7397 1.90812
122.202 15.5549 2.00873
117.647 14.8583 1.94944
113.766 14.5742 1.92348
127.799 17.0112 2.31138
144.98 19.5652 2.80093
134.358 17.2583 2.3192
126.306 16.4996 2.2843
124.755 17.1512 2.35933
128.795 17.9165 2.55687
103.475 14.4766 2.1183
118.388 16.9686 2.50865
123.15 17.5562 2.54168
120.702 17.2285 2.4781
117.038 17.1579 2.61847
123.928 18.5764 2.84156
120.626 18.4341 2.84774
119.296 17.925 2.75016
117.81 17.8476 2.71734
100.556 15.4485 2.44431
106.333 16.0966 2.47963
105.781 17.1386 2.79114
113.489 18.1063 3.02201
116.64 18.5798 2.97769
106.777 17.7092 2.94017
104.382 17.3009 2.86808
120.295 19.925 3.32731
103.434 17.2899 2.86889
99.5424 17.7135 3.17801
155.913 26.3977 4.46033
104.473 17.7055 3.04319
93.0323 16.4039 3.00666
106.817 19.0153 3.4386
107.02 18.9997 3.3743
101.385 18.4107 3.33547
94.186 17.5291 3.28664
101.326 18.8174 3.48012
101.163 19.0933 3.56396
99.7384 18.4414 3.52366
96.1737 18.449 3.57046
101.452 19.5865 3.78592
104.714 20.6456 4.06945
109.356 20.0716 3.83476
100.655 20.1128 3.99179
97.3116 19.3895 3.88528
98.7409 19.8905 4.03551
98.1001 19.7514 4.0592
101.221 20.2877 4.14726
102.253 21.7595 4.50024
94.6701 19.5394 4.05842
88.3308 18.7047 3.99372
87.4029 18.6014 3.95612
98.2933 21.959 4.8159
114.394 24.0647 5.04717
95.3971 21.0887 4.59959
86.3184 18.8123 4.18621
86.4967 19.5928 4.41447
98.8195 22.3721 5.072
90.3828 20.738 4.73282
92.8751 21.5992 5.03244
91.0417 20.4833 4.56752
92.8493 22.0905 5.23449
97.0082 22.2646 5.09475
80.8914 19.2441 4.54709
93.6065 22.1943 5.31268
87.7997 20.9927 5.11997
91.1797 21.6317 5.19951
89.9635 21.9523 5.43612
96.6984 24.1098 5.96307
85.7971 21.1994 5.35371
87.6588 22.1712 5.65857
88.6205 22.2402 5.59171
86.0152 22.2515 5.93254
88.4975 22.2998 5.63363
81.473 21.0468 5.47016
79.623 21.0001 5.51547
79.5699 21.3881 5.84971
89.4233 23.6211 6.23357
87.0077 23.5505 6.36171
75.525 20.2236 5.39385
75.6317 20.5596 5.62092
84.95 23.5522 6.5748
77.5706 21.327 5.87115
78.6507 22.6296 6.43904
86.2169 23.9858 6.67953
74.4303 22.0541 6.49221
81.8737 23.4508 6.71426
70.7817 20.6014 6.03555
70.523 20.7077 6.32853
75.113 21.3118 6.06442
79.8462 23.5086 6.86792
79.123 23.5711 7.02289
67.6391 20.0191 6.03994
72.4606 21.4531 6.47151
71.3596 21.7563 6.86655
74.4772 22.5453 6.90282
67.056 20.3233 6.33456
74.3314 22.8946 7.08079
71.767 22.27 6.90219
65.254 21.3008 6.80395
75.8124 24.5544 7.91243
89.4479 28.1875 8.98316
74.2899 23.4275 7.41716
64.3293 21.1097 7.01955
69.569 23.3923 7.72931
67.2154 22.6077 7.63876
71.8843 24.1964 8.14204
71.0218 23.7933 8.00161
69.5694 22.9606 7.69801
60.6802 21.1379 7.26294
68.7639 23.7717 8.52575
73.7358 25.1289 8.49301
69.4132 24.3317 8.5168
78.1536 27.104 9.38339
74.763 25.8029 9.02416
69.8215 24.7558 8.65795
62.9418 22.3078 8.05013
62.1102 21.7496 7.65904
58.6582 21.9292 8.39416
66.8943 24.3024 8.74027
68.3392 24.8916 9.02498
65.1736 24.2807 9.17292
64.7298 24.4305 9.13647
59.2365 22.2458 8.72117
65.2512 24.1055 9.11572
92.8571 34.5628 12.6306
65.8134 24.7782 9.5359
57.0628 22.2117 8.79472
62.9667 24.5342 9.34978
60.6168 23.7928 9.44827
62.939 24.8538 9.85523
64.0876 24.8288 9.59294
60.0088 24.1608 9.82123
60.5951 24.0809 9.51273
61.8753 25.1465 10.2923
62.891 25.1284 10.264
60.2533 24.5325 10.0549
67.0656 27.2789 11.1387
66.9508 27.6617 11.5834
62.9085 26.0911 10.9708
64.0155 26.6054 10.7423
54.6096 23.705 10.383
56.0672 23.3998 9.99864
59.2046 24.6991 10.4291
59.1754 25.5248 10.843
51.0928 22.7558 10.2295
56.4335 24.1405 10.4798
54.6806 24.2102 10.9445
55.8716 24.1154 10.6991
59.6967 26.5429 11.7718
56.0407 24.3813 10.5903
53.3124 24.2878 11.1883
56.0527 25.0477 11.0839
52.3033 23.3917 10.8313
54.8999 25.2043 11.736
61.5105 28.1906 12.9387
58.2627 26.2892 11.9717
57.6394 27.0129 12.6259
55.5195 26.5329 12.5963
58.1067 27.3678 12.9781
58.8881 27.6967 12.9375
52.7974 24.9694 11.9609
55.6692 26.4702 12.7536
54.9784 26.5193 12.7262
55.9658 27.7292 13.5381
54.8245 27.6051 13.7892
61.0971 30.0401 14.5562
49.0708 24.2805 12.1461
51.0245 25.2327 12.7909
51.6195 25.7172 12.7543
47.4619 23.2337 11.5065
48.8381 25.4158 13.309
55.8479 27.5076 13.6051
53.8141 27.6187 13.9933
51.3441 26.5303 13.8408
47.3316 23.9889 12.5393
46.6708 24.0273 12.2943
50.7972 26.8634 14.2508
53.0391 27.9546 14.8738
49.4298 25.6941 13.594
50.1325 26.1429 13.8669
47.1433 25.4444 13.8111
47.035 24.834 13.3991
48.9938 26.1173 14.0572
50.7508 27.7519 15.0251
47.137 26.2207 14.6127
45.391 24.8923 13.7809
49.8723 27.2165 14.6374
44.3615 24.6046 13.7144
46.5464 25.8642 14.2704
42.9135 24.3392 14.1194
48.3831 26.8946 14.7291
46.0611 26.0799 14.8897
44.8642 26.1309 15.1268
40.1839 23.0908 13.1408
44.0375 25.7782 15.1083
43.8797 25.7681 15.4582
50.2737 29.0038 16.3297
41.8409 24.1827 14.1347
48.8954 29.6198 17.5965
43.917 26.0307 15.2736
41.7806 24.7623 14.8735
46.1477 27.3651 16.5382
46.289 27.3534 16.3919
41.8352 24.5676 14.7217
42.6472 26.3122 16.2425
40.6685 25.1155 15.7311
45.3689 26.949 16.0091
43.3991 27.0532 16.6814
41.8569 26.7013 16.6425
42.3831 26.2117 16.4207
43.3861 27.1764 16.8975
38.4815 24.7485 15.8808
42.3834 26.5121 16.5504
37.8002 24.9944 16.5153
41.5 26.5991 17.0978
41.2427 26.2439 16.9865
43.6577 28.2839 18.2578
39.4272 25.8481 17.1632
42.1102 27.9546 18.8655
41.1801 25.6114 16.9375
61.2245 39.3999 24.4896
42.1776 27.9376 18.3899
38.2054 25.8656 17.795
42.0155 27.2962 17.6964
38.6867 26.2386 17.7492
35.0457 24.1707 16.991
40.7968 27.4138 18.4932
40.1613 27.3679 18.8802
37.2788 25.5599 18.0437
40.6139 27.9851 19.4686
39.454 26.7466 18.6331
36.4123 24.5651 16.9098
40.4546 27.7206 18.7505
37.8154 27.1058 19.4389
36.5408 25.5318 18.3725
37.428 25.5096 17.7757
39.108 28.5486 20.5496
34.8724 25.3866 19.1281
37.0606 25.356 17.8676
38.9579 27.9443 20.303
38.7137 27.2829 19.0504
38.9035 28.4397 20.2793
34.528 25.8314 19.4189
35.249 26.3804 20.0322
35.4723 25.3244 18.683
32.884 24.6068 18.5269
35.2192 26.3718 20.1015
34.7802 25.8666 19.5566
34.942 25.1643 18.3306
32.2329 24.6379 19.335
34.7984 26.6594 20.9463
35.5304 26.0434 19.5634
34.0032 24.8453 18.8122
36.0876 27.7239 21.2647
35.872 27.7537 21.1673
35.4047 27.4677 21.3904
32.4089 24.7294 19.7577
34.5958 26.87 21.0964
34.4765 26.3385 20.3363
36.0261 28.7108 22.7929
37.1336 28.0359 21.3371
35.0393 28.908 23.2751
34.5104 26.9619 21.1985
35.8217 29.2643 23.8758
33.0228 26.07 21.3592
31.4821 24.5627 19.3207
27.4389 22.0398 17.9004
33.0281 27.3428 22.2141
31.3934 25.6403 21.2481
31.6315 25.4331 20.5544
34.008 28.582 23.9706
31.3909 26.8416 22.7504
29.9209 24.771 21.1041
32.5024 27.1463 22.9416
31.9539 26.7422 22.4303
32.4747 27.2233 23.1991
31.4548 26.8229 22.6221
31.4387 26.419 22.6926
32.7003 28.1306 23.9859
29.15 24.032 20.6966
34.2191 29.1572 25.1517
33.7171 29.5757 25.8594
32.5419 27.1163 22.9629
29.0851 25.9162 23.1872
30.3062 26.2931 23.0629
27.2559 23.7752 21.4539
29.5093 26.5552 24.0198
30.4639 26.4769 23.3173
32.2743 28.8983 25.9174
30.9054 26.609 22.844
29.9567 27.6128 25.1407
29.421 26.4527 24.0355
31.8073 28.5731 25.7348
28.2889 24.7366 22.0416
29.1852 28.1821 26.9445
32.6362 29.8 27.1675
29.018 26.5953 25.2409
28.575 25.5016 23.416
27.3012 25.1753 24.0903
29.0476 26.4365 24.4173
27.3455 25.4495 24.3232
27.6662 25.3489 23.6432
30.5957 28.3136 26.5202
28.3404 27.3435 26.7139
30.6239 28.6283 27.2009
28.6711 27.2216 26.2006
27.6806 26.2671 25.2952
27.1264 25.9401 25.2082
28.7908 26.7942 25.4593
28.72 28.6392 28.674
27.1788 26.2347 26.0494
30.4608 29.3987 28.6925
28.3124 26.724 26.1224
28.7113 28.642 29.0033
31.1939 29.4046 28.5022
29.4972 28.6692 29.0965
41.8427 41.5041 38.2984
30.8059 31.8481 32.5614
30.0743 30.7242 31.4363
30.1036 30.088 30.7754
31.157 30.69 29.9614
26.8031 27.3528 27.9839
24.8489 24.5062 24.3598
24.5133 25.6836 27.1621
25.2497 25.1017 25.9572
24.8005 26.0339 28.232
26.4653 25.7072 25.7901
24.9065 25.669 26.9196
25.9629 26.8394 26.7839
23.5473 25.1734 27.044
24.862 25.9891 27.1948
22.3615 23.3074 24.8543
27.1923 28.8437 30.2076
24.5161 26.1489 27.8408
22.3902 23.2743 25.018
24.6361 26.0006 27.9488
22.868 24.2342 26.6718
24.9645 26.2514 28.6681
25.4038 26.4976 28.1734
22.8894 24.8031 27.7051
24.3633 25.8717 27.4801
23.572 26.0835 28.2688
22.7424 25.1492 28.3334
22.7674 24.8998 27.865
23.7076 24.983 27.4423
24.1618 26.5116 29.0532
24.1896 26.5701 28.8147
22.6347 25.7596 29.7001
23.0858 25.0651 28.0233
23.1615 25.0759 27.4297
21.8265 24.7955 28.8769
23.0678 25.7529 29.125
22.4177 25.1799 29.0725
23.7995 25.3495 27.7676
23.5097 27.7525 32.7613
23.7737 25.317 28.5535
24.925 28.3757 31.9193
23.6402 26.3022 29.5207
22.3763 26.7933 30.9848
22.7897 26.8321 31.075
20.5972 24.3921 29.4975
20.9452 23.9102 28.9142
23.3636 25.9314 29.0507
21.3586 25.4376 29.9679
19.99 22.9485 27.6694
21.7809 25.2717 29.8027
20.7191 24.2977 29.1972
21.3821 26.2344 32.0481
20.6233 24.2668 29.8485
21.3654 25.1608 30.9575
21.0652 24.2527 29.132
20.7525 24.8914 30.2626
21.1218 24.7437 28.9461
18.4924 23.4646 31.1241
21.8535 25.3658 29.8831
20.9905 24.9146 30.1167
19.7044 23.4061 28.4926
20.525 25.9869 32.3682
20.9513 26.3657 33.7299
22.0997 26.6451 32.7882
21.5602 26.4149 32.9364
21.6613 27.1437 34.4124
21.5489 25.8505 31.3702
20.073 25.686 33.1156
19.6329 23.5718 28.605
21.1686 27.2239 33.924
19.3123 25.3166 33.7089
20.0007 24.6759 30.919
20.1181 25.5518 32.6152
20.1498 25.4815 32.149
17.5619 23.1803 30.8261
20.7686 26.2113 33.7671
17.983 23.2642 30.2952
19.5265 25.4115 33.0743
18.9328 24.9071 34.0211
18.2646 22.9094 30.2721
20.2071 26.1168 34.2235
18.8298 23.6557 31.1442
20.7773 26.8158 34.1058
18.816 25.5237 34.2726
19.0924 25.1567 34.272
19.9216 25.8434 34.7595
19.4801 24.8546 32.6144
18.2554 23.526 31.3024
19.1233 25.7277 34.3117
16.2458 21.1408 29.0558
17.4925 24.718 35.3833
17.7227 22.9809 31.8721
19.2873 25.6654 35.1923
19.8765 25.6572 33.7703
18.6569 25.8331 34.9613
16.4185 24.0385 38.5568
27.0678 34.5841 42.8499
19.0989 26.2803 36.3251
17.4535 23.2465 32.0017
18.5338 25.4473 35.0502
17.7292 23.6211 31.8935
17.0021 23.9083 33.0452
16.8091 24.3947 35.4997
18.9826 26.4917 37.4645
18.4342 25.3204 35.294
17.6323 24.5699 35.1338
18.791 26.3464 36.8415
16.3485 22.554 32.5675
17.3012 23.6427 33.4005
17.7362 25.3113 35.4833
16.3811 23.519 34.5864
16.3613 23.7781 35.3404
17.8369 25.1889 36.2256
17.1846 24.213 34.7366
16.4217 23.9288 34.9398
15.9944 22.6433 32.831
16.2433 24.4745 36.7437
16.229 22.9469 34.3832
17.2784 23.7879 34.0444
17.1114 25.5979 37.4141
15.9869 23.454 34.6911
16.1969 22.6982 33.8239
17.6512 26.1751 38.5876
16.1333 23.2698 33.9386
16.5973 25.5818 38.737
16.5866 23.3407 34.0388
15.0263 22.9011 35.0418
15.4927 24.4027 38.3226
16.7878 24.799 37.6664
15.7805 22.9308 35.0838
15.4957 22.5894 33.6866
15.4549 24.4141 38.8699
16.3904 24.3489 37.5827
17.3908 25.5286 37.5921
14.9308 22.5173 36.2932
15.6281 23.0263 35.508
16.8078 25.1084 36.7603
15.7877 23.7836 35.8475
15.0627 23.5445 36.3193
14.5469 23.2825 37.4811
15.3224 22.7964 35.865
15.1813 23.5972 37.8669
15.8014 23.73 36.1819
13.7644 21.9979 36.01
14.8907 23.368 36.7109
15.4386 24.4456 37.5918
13.9008 21.7317 35.3063
15.3005 24.7113 39.098
14.1326 23.0028 39.2993
15.4364 23.4726 37.334
14.8079 22.9058 36.9778
15.1391 23.4343 37.5522
14.5687 22.1256 35.591
15.6887 25.7641 40.8521
14.5951 23.2124 38.739
15.2277 23.8186 38.7037
14.8526 22.8729 35.8415
14.0271 23.0186 37.553
14.7934 23.3084 38.0311
14.5149 23.5112 39.1645
14.3585 23.0217 38.7457
14.7651 23.2906 38.8919
14.393 22.6819 36.4386
14.0977 22.9053 37.466
14.8873 24.2687 38.8628
13.2669 22.1568 36.8138
13.9102 23.3945 38.9991
13.5669 22.2816 38.0131
13.6849 22.8679 38.809
14.7481 24.3865 40.8708
13.9286 23.0493 38.3576
12.3037 20.6275 36.9388
14.3622 24.0602 40.6689
13.2555 22.1821 37.7018
13.2273 21.9719 37.6573
12.8068 21.511 38.0614
13.3437 21.7829 37.3171
12.9729 22.0818 38.8193
13.5423 21.9307 36.2382
13.0585 22.8598 39.4697
12.9329 22.2891 38.2528
11.6756 20.7961 39.2571
13.7336 23.5525 40.9337
13.9596 22.2529 37.3187
12.3771 21.1075 36.4496
12.7114 22.8516 41.3696
13.4074 22.8167 39.7351
12.7874 22.4155 40.8347
13.2934 22.3491 39.778
12.6462 21.8428 38.3017
13.4988 23.684 41.3175
11.9539 21.8465 45.0211
19.2063 32.3952 49.5028
12.3933 21.6906 39.1707
12.7982 23.4491 42.1687
12.3 21.4276 39.0285
12.2996 21.3523 38.9643
12.6363 21.8701 38.8081
12.3945 22.7203 41.9691
12.1385 20.943 37.5179
11.6942 22.1495 41.4733
12.5197 21.3261 39.0501
12.71 22.5035 41.5841
12.9241 22.6551 41.5154
12.8787 22.3229 40.2806
12.899 23.456 42.3722
12.1567 21.9242 40.7691
12.3756 22.3627 42.5746
12.9189 22.5255 39.8139
12.2413 23.5104 43.4547
11.7138 20.8283 39.2528
12.0996 22.4819 41.012
11.1777 21.1034 42.2729
12.3806 21.4367 39.9736
12.0241 22.5802 42.2496
11.6172 21.495 40.2404
11.3861 20.6037 39.6979
11.147 20.758 39.6842
11.4665 20.4108 39.0758
11.6977 21.5419 41.1627
11.7779 20.8572 38.9531
12.081 23.3668 45.1275
11.6811 21.0161 40.1456
11.2823 20.7459 38.6665
10.7105 20.139 38.2047
10.7099 20.5936 40.499
11.9289 23.093 44.2081
11.2045 19.8312 37.494
10.1876 20.4211 41.4316
11.262 20.9437 40.6979
10.3466 20.1136 40.2063
11.1782 21.7571 43.4113
11.3505 20.5137 38.8735
10.8045 20.7897 39.7164
10.5949 20.0714 40.3981
10.727 20.4593 40.2692
10.9703 20.803 38.4296
9.70947 19.549 39.9701
9.99564 19.1824 38.3785
9.98915 19.6312 41.2034
11.0114 21.8815 43.6006
10.2662 18.9497 37.765
10.4802 19.6665 37.9223
9.89423 20.0187 41.0378
10.0633 19.175 37.8332
10.1663 21.1883 42.2974
10.6478 22.2359 47.6509
11.3443 21.6589 43.3156
10.3788 19.8199 41.6907
11.107 21.636 44.6531
10.9716 20.7033 41.0956
10.386 20.197 39.7381
9.91916 20.4505 42.7691
10.2736 20.5012 40.3097
9.74961 19.8613 41.9141
10.2139 20.7981 42.8668
9.77986 18.9924 39.6491
10.6081 21.7777 43.8569
10.1499 20.408 42.3968
10.1792 20.4276 41.9052
10.1624 20.4983 43.1861
9.7365 18.967 40.5599
10.3653 20.9176 42.072
9.38094 19.0026 40.0942
9.64112 20.7415 44.783
9.71006 18.6039 37.396
9.11131 19.8451 43.7831
9.88463 19.3393 40.0007
9.58819 19.2762 39.5795
9.21437 18.8969 39.0409
8.25326 17.662 39.577
10.0656 21.0742 42.9271
8.56298 18.3822 42.0087
9.59679 19.4833 41.8055
9.41792 18.9813 39.9645
8.79957 17.8521 37.5743
9.02254 20.2077 42.9431
9.1449 20.5745 46.2755
9.50753 18.3764 38.639
8.72486 19.045 43.3277
9.44302 19.1484 39.9825
8.80222 19.257 42.7177
9.37125 19.0195 40.175
9.05574 20.1336 45.4292
9.79439 20.769 45.0474
9.36277 20.3467 45.9537
9.52936 19.7763 42.3857
8.51612 19.1381 49.1453
11.9692 23.7425 46.0834
9.32552 19.6293 41.1468
8.323 17.9899 40.6175
8.74784 19.1688 42.5469
8.78697 18.7723 41.3446
8.4532 18.4114 41.6466
8.81381 18.6395 41.2909
8.23675 18.1282 42.2438
9.0494 19.3207 42.2009
8.56827 18.7947 43.7892
9.52547 19.8397 44.0789
9.3883 20.3422 43.8806
8.46283 19.0246 42.5819
7.99757 17.505 39.8155
8.3076 18.0665 42.1089
8.51091 17.7681 39.0189
8.13068 18.8073 42.489
7.95856 17.4572 39.9504
8.13491 17.9524 40.8644
8.60537 19.9746 46.5299
8.44566 18.3075 42.4241
8.43422 17.8358 39.9013
8.02632 18.4491 41.7494
7.75422 18.5621 45.1656
8.99654 19.0069 41.8117
7.6036 17.0962 40.3049
7.33056 16.2608 38.9021
8.21741 18.0893 41.34
7.98546 17.8911 41.8224
8.60014 19.6463 45.039
8.02528 17.4881 42.43
8.01606 17.0431 38.308
7.69361 18.2072 43.5195
8.1083 17.4583 39.5741
6.84777 16.0671 39.9474
8.26805 19.0885 43.5759
8.21023 19.4263 46.3613
8.59992 18.9473 42.3435
7.50645 18.0654 44.334
7.93487 18.0822 43.2327
7.99404 18.0427 43.6563
8.05029 18.258 42.8571
7.77423 18.045 41.781
7.47 18.3593 43.4438
7.56147 16.7606 40.8764
7.829 18.2749 42.6586
7.36284 17.4643 43.6496
7.78797 16.7071 39.982
7.9933 19.0997 44.8533
7.84024 18.5376 42.7599
7.25993 17.9441 43.7853
6.9083 16.0168 40.7568
7.69815 17.8644 43.2865
7.38346 16.6968 39.165
7.01764 16.6341 40.6843
7.54181 18.0956 44.1629
7.08215 15.4364 37.6658
7.19687 17.5501 42.4371
7.16285 17.0119 41.9658
7.45377 18.7105 46.1935
7.67077 17.8637 44.0873
7.40241 18.2867 46.7783
7.54263 17.6811 44.8938
7.76613 17.5522 40.9569
7.27232 17.7255 42.6226
6.8108 16.3305 42.1651
7.23334 17.1262 43.9277
7.56943 17.8669 44.0839
7.08346 16.4705 40.9823
6.99109 17.1098 42.5761
7.09213 17.7377 47.7916
7.94889 17.4288 40.7748
6.61535 16.1546 41.2435
7.11081 18.1497 44.3365
6.89008 16.1634 39.5711
6.86749 17.2192 43.3495
7.15801 17.526 44.285
6.92729 17.0458 45.0015
7.35862 17.3718 43.7521
7.04265 16.7138 41.5592
6.47949 15.7088 40.3768
7.05031 17.7179 45.0574
6.84622 17.1291 44.2185
6.92656 16.0831 39.7051
6.6673 17.4506 47.098
7.29403 17.8803 44.1008
6.88598 17.36 43.6853
6.60649 16.6477 44.9781
7.25119 17.179 43.0809
6.82341 17.1844 43.1932
6.69109 17.9455 47.5404
6.93112 17.4385 44.1585
6.0015 14.963 40.39
6.59206 17.1436 44.4406
6.49199 16.091 43.4032
7.00166 18.4435 55.9412
9.75735 22.537 50.2301
6.87113 17.7604 45.1631
6.28869 16.5325 44.0806
6.16783 15.2396 43.5072
6.70028 15.9844 41.9512
6.5852 16.1639 41.1979
6.29012 16.9575 46.327
6.79914 16.5989 42.4504
6.02899 15.465 41.7663
6.30455 15.8787 42.6424
6.14666 14.9375 40.2816
6.21681 15.314 36.8637
5.64612 15.684 44.4354
6.44031 16.3998 42.8383
6.11512 15.4012 41.3608
6.12153 16.2121 44.422
6.59295 16.4298 42.5241
6.19104 16.2288 41.7822
6.07054 15.6808 41.2233
5.96132 16.0925 43.5009
6.06452 16.0162 43.9769
5.83031 14.297 39.9466
6.04136 15.8785 43.5274
6.44367 16.2652 43.4311
6.40575 16.5922 42.9557
5.87282 14.8514 41.9316
6.5565 17.2916 43.5722
5.83463 15.2737 41.428
5.69486 15.659 44.7207
6.08789 14.8841 39.403
5.54661 14.9048 39.9417
5.46976 15.6928 44.7527
5.74607 14.149 39.1711
5.84293 15.6119 44.1069
6.14176 16.0147 42.635
5.68513 14.4627 38.4005
5.2838 14.4033 41.9643
5.93489 15.8617 44.8257
5.94246 14.4422 38.8753
5.6067 14.8769 39.8765
5.29791 13.7813 39.661
5.46126 14.8757 40.8762
5.53579 15.238 42.6812
5.74448 14.9262 41.4693
5.51302 14.8839 44.8299
6.38297 15.7862 40.0726
5.31998 14.9989 42.6007
5.71698 14.981 40.1519
5.20723 14.5912 42.7121
5.92229 15.5268 41.9744
5.59225 15.3836 43.9175
5.64488 14.9085 42.9633
5.79479 16.0058 44.9183
5.67282 15.1267 43.2057
5.65958 15.293 41.6058
5.57527 15.6221 42.5337
5.25729 14.8925 42.9764
5.50311 15.4932 45.3106
5.41001 14.0007 40.5348
5.53801 15.0368 42.2718
5.28699 14.2467 40.4273
5.17966 14.4215 42.7071
5.81083 15.6572 42.7105
5.33696 14.1903 41.8279
5.62605 15.2284 40.8808
4.98283 13.7826 39.7329
5.37605 16.4496 47.4504
5.33954 14.394 44.6087
5.9044 15.648 40.5816
4.88268 14.1179 42.8123
5.33737 14.0509 40.98
5.3345 15.2868 44.6072
5.39747 15.337 47.0073
5.73955 15.1407 42.8015
5.18914 14.0647 41.1225
5.21084 14.7967 42.7183
5.12677 13.9008 42.5705
5.5796 15.5828 44.5433
5.23365 13.9025 39.6006
4.84391 14.1169 40.9984
4.88489 13.6374 39.3506
4.65344 13.3869 42.6665
5.34032 14.5139 41.6817
5.14745 14.5976 41.3856
5.04426 14.5057 43.1564
5.30722 15.5758 43.5374
4.98165 14.174 43.2675
5.20726 13.8626 41.0413
4.96495 14.4884 45.5295
5.5816 14.7842 40.1387
4.67103 14.036 43.4177
5.38778 14.5074 41.7849
4.80943 14.4636 43.4324
4.87305 13.9002 42.1667
4.83117 13.7134 41.7514
5.08334 15.0371 51.5928
6.49995 17.2164 43.1199
4.83803 14.0195 38.9116
4.62725 15.4957 48.2946
5.38376 14.5102 42.3276
4.86925 13.7375 41.7401
4.86634 13.6988 39.7537
4.72677 15.1397 48.372
5.17936 13.9238 40.607
4.8727 13.8083 42.9355
4.70407 13.4495 42.286
5.06366 15.0082 45.6091
4.9466 13.8938 41.2055
4.66373 14.1524 42.4658
4.62066 13.9386 46.2465
5.50984 15.7221 43.6266
4.94022 15.3808 46.7003
4.97142 13.2535 41.8236
4.62145 13.0359 41.1429
4.89994 14.4914 43.5842
4.75739 13.137 38.3844
4.21004 12.8764 40.893
4.61806 13.5691 43.5538
4.95109 14.244 43.279
4.79474 14.9749 45.7792
4.8497 13.5624 42.1911
4.73394 13.7732 45.4988
4.96915 13.8967 41.0404
4.75234 13.9505 40.6038
4.4402 12.5689 39.4951
4.66572 14.8234 46.1494
4.80222 13.668 40.6
4.59008 14.3795 45.2326
4.79056 13.8983 42.9322
4.58102 13.2883 42.329
4.52855 13.0859 41.5546
4.64662 13.6169 41.7099
4.57559 13.8974 43.4488
4.91028 14.8918 45.603
4.94224 14.3768 40.7967
4.40067 13.9008 43.1767
4.29292 13.195 45.5167
4.71261 13.2048 38.3847
4.14778 12.8861 45.2451
4.97358 14.4107 43.6878
4.78576 13.7394 39.9876
4.3138 13.9 44.6324
4.555 13.3187 41.408
4.39942 13.6707 42.6441
4.18376 12.6309 41.9632
4.24028 11.9185 37.1319
3.84599 12.408 41.4897
4.47491 12.9423 39.149
3.88796 11.9252 40.9035
4.35646 12.854 43.2731
4.60549 13.0266 42.1786
4.57255 14.238 41.8135
4.09861 13.1415 45.0088
4.6205 13.3636 43.1417
4.20922 11.9398 38.38
4.18585 12.7505 38.6736
4.01422 12.8907 43.6123
4.43979 12.9375 41.5976
4.28895 13.1198 40.7545
4.06305 12.7534 42.0421
4.22623 12.7569 40.8258
4.37254 13.2555 42.9628
4.30319 12.1502 39.5661
4.21796 12.8065 39.118
3.87351 12.6316 42.409
4.20597 13.428 44.6286
4.34579 12.7588 41.0824
4.41081 14.2657 43.9935
4.28762 12.8925 40.4168
3.96085 12.5364 41.7562
4.21786 13.1108 42.3291
4.12906 12.2282 38.1451
3.95297 13.1596 42.9395
4.15694 13.392 45.9856
4.39711 12.8783 40.149
3.84502 12.1711 39.8434
4.00737 11.7417 39.1236
3.98477 12.1947 39.3799
3.91839 12.123 41.8796
4.2799 12.9927 40.9718
3.96976 12.9942 41.2498
3.99517 12.4576 41.099
4.01972 12.7627 44.031
4.21756 13.049 40.392
4.08227 12.0271 40.2863
3.95102 11.8949 40.7523
4.2872 13.6903 42.7377
3.8935 11.9083 40.2398
3.98019 12.0284 38.9847
3.8346 13.0227 41.3782
3.78717 12.3925 41.753
3.85609 13.3051 54.2342
5.76417 16.3666 41.8068
3.61389 12.9822 45.0866
3.93256 11.4094 39.101
4.04155 12.8577 40.4137
3.67397 11.9804 40.7578
3.77928 11.1431 39.9923
3.7375 11.9338 41.0583
3.94985 12.5617 42.1484
3.93849 11.9772 38.2317
3.56193 11.2829 39.4565
3.90429 13.0763 44.4992
3.99755 12.2388 40.2272
3.59836 11.9292 39.2051
3.56068 11.3441 41.0809
4.02459 12.5355 40.3648
3.72879 11.5403 39.8405
3.71513 12.8794 46.1911
4.27815 12.1385 42.8882
4.18958 13.6112 41.9861
3.58335 11.5996 41.2984
3.82803 10.7897 37.1424
3.69826 11.9499 39.4717
3.81115 12.675 41.4445
3.64533 11.5162 40.8252
3.77302 11.864 40.2472
3.68807 11.991 40.8555
3.79382 12.4338 43.4178
3.82116 11.7842 41.9127
4.05752 11.6079 37.2731
3.60726 11.9716 37.118
3.24707 11.9051 41.4159
3.62115 11.8008 40.8913
3.58923 11.7906 44.0284
3.93921 12.253 43.5882
4.13131 12.4927 40.4623
3.75048 13.0857 42.7987
3.74327 12.4109 42.8717
3.80884 12.3072 40.6499
3.70066 11.5382 40.1235
3.8255 12.6634 41.2472
3.66029 12.1052 44.1882
4.02964 12.765 39.5341
3.31114 11.2204 41.9038
3.62098 11.4867 40.8678
3.49672 11.1779 38.4963
3.4203 10.7446 38.9976
3.55001 11.5444 39.545
3.47904 11.4205 39.8511
3.65415 12.0076 41.6478
3.53896 10.4526 34.869
3.23539 11.0916 39.3082
3.47348 11.7218 40.6773
3.59149 11.6644 40.8223
3.60501 11.2481 38.3334
3.47393 11.5024 38.5637
3.53045 12.8361 45.5279
3.87362 11.4222 40.5636
3.69722 11.4684 40.0816
3.60211 12.5073 45.4894
4.02282 12.6921 40.9821
3.52806 11.4689 40.508
3.484 11.7252 40.8339
3.60652 11.7848 43.3046
3.7196 11.9589 39.2241
3.29049 11.1138 41.3589
3.56686 12.2563 41.2352
3.58777 11.648 43.0948
3.66849 12.2664 40.4851
3.34727 11.5173 40.7133
3.50514 11.8891 43.5355
3.78664 12.2844 41.4449
3.42183 11.1744 39.9019
3.5288 11.3583 38.4088
3.31022 11.2293 42.6509
3.48465 11.9565 45.6756
3.77602 11.9439 41.8134
3.64953 11.5733 40.7428
3.53568 11.6432 39.5771
3.38147 11.8814 42.1147
3.63405 11.2999 39.4323
3.59444 12.1023 38.9066
3.10331 11.1032 43.6505
3.67976 11.4509 40.3045
3.47848 11.9825 43.4682
3.64036 11.9525 43.3619
3.69017 12.1094 40.6224
3.25443 10.1696 38.8294
3.34297 12.2401 42.7739
3.45679 11.686 43.1101
3.74136 11.9962 39.3744
3.11936 10.2133 36.6296
3.00869 10.6966 42.5221
3.59988 11.723 40.3467
3.45329 11.5417 37.948
2.99939 10.9204 43.9711
3.68775 12.829 49.7539
4.11796 12.7448 40.8701
3.39587 11.1857 41.172
3.2816 11.7647 43.6029
3.54658 11.6081 40.5307
3.412 11.3619 39.9604
3.20326 11.4218 40.3423
3.29915 10.4219 36.0101
2.92433 10.5383 40.4389
3.20871 10.8533 38.1264
3.21732 10.9203 41.2137
3.41616 10.8367 38.6338
3.21912 11.5723 42.9852
3.38 11.0769 39.4039
3.21959 11.4115 41.6902
3.27379 10.6966 39.4704
3.18542 11.0725 42.3365
3.31461 11.1545 43.4818
3.53232 10.6972 33.5478
2.69149 10.1132 40.3313
3.24268 11.5389 40.3186
3.19699 10.2022 37.7237
3.16863 11.7651 39.0195
3.08319 11.4899 42.0322
3.18314 11.1032 41.1477
3.24624 10.4637 38.3003
3.01674 10.1628 36.7377
2.92422 10.3381 39.2541
3.24563 11.8894 40.2636
3.11806 10.6224 41.0344
3.26436 11.4512 39.8336
3.15231 11.021 42.6911
3.39625 10.4544 40.6316
3.33853 10.9542 37.1294
3.01813 10.5712 39.5911
3.10192 11.0719 39.9861
3.20708 12.4073 44.8761
3.44694 10.3056 37.7475
2.90112 9.95278 39.1652
3.13556 10.9931 40.575
3.06626 10.3079 40.951
3.34425 11.1708 39.6433
3.21508 11.0568 39.3999
3.02133 10.1102 37.5542
2.95475 10.4978 38.0905
3.0215 10.3605 35.7398
2.82381 11.1861 41.51
3.12083 11.0205 41.5262
3.12578 10.2658 38.1487
2.92799 9.64056 39.8439
3.09954 10.7231 39.5241
3.20884 11.0342 40.8936
3.09938 10.62 39.5049
3.09381 10.484 38.3805
3.1251 11.0663 39.0337
3.00091 10.0104 38.75
2.95407 10.3548 35.3742
2.69124 9.68251 39.9602
3.20408 10.8747 42.6958
3.3288 10.7512 39.7325
3.09488 11.2541 43.422
3.18407 10.0543 38.013
3.01898 10.1169 40.0582
3.158 10.7028 43.0529
3.35493 10.6272 35.5626
2.83542 10.7725 40.3967
3.11596 10.8513 40.2482
2.95831 10.5713 38.0073
2.98899 10.4593 37.7168
2.87556 10.2872 38.6039
2.91222 10.7419 40.4933
3.05916 10.5311 40.947
3.08664 10.8958 40.2504
3.03736 10.8553 38.8775
2.94365 10.8651 42.0458
3.15689 10.8985 39.8285
2.99601 10.3131 40.365
2.9779 9.58966 35.8877
2.6854 10.3058 42.4007
3.17363 9.60338 36.5066
2.88594 11.5753 40.3456
2.97079 10.7422 39.641
2.84893 10.2277 37.8992
2.85947 10.0681 41.3718
2.99585 10.0157 39.6344
2.86932 10.0639 36.5864
2.84824 10.335 38.9015
2.81088 9.57572 36.8714
2.8143 9.98947 37.9634
2.84803 10.1381 36.0819
2.76688 10.7364 39.6306
2.88929 9.94449 40.2391
3.03581 10.1713 40.663
3.04188 10.6702 37.01
2.83762 9.37963 35.7896
2.73316 11.282 41.6872
2.93388 10.1465 42.8625
3.19968 11.043 41.3118
2.96348 11.1268 40.2816
3.01629 10.3139 40.6907
2.96757 9.50157 35.2866
2.62755 10.6344 40.0225
2.84808 9.53208 35.0664
2.64036 9.51382 41.9315
2.98001 10.7263 37.2866
2.77003 8.76542 33.4604
2.54863 9.24461 36.7429
2.73311 10.4985 38.7472
2.86488 9.55776 39.0817
2.89535 10.2783 35.8328
2.60497 9.72153 36.9918
2.69822 9.66486 37.8838
2.78092 10.2432 38.9665
2.87214 9.85063 38.9535
2.76949 9.76074 38.4247
2.88735 10.312 38.7974
2.82187 10.0255 39.3535
2.77383 9.92774 37.7075
2.82029 10.7183 39.3244
2.80505 9.53467 38.6229
2.89256 10.1097 36.3063
2.53205 9.26021 38.0446
2.81784 10.1997 39.1842
2.89307 11.0639 37.8048
2.70302 8.96526 37.0936
2.70864 9.99043 37.8122
2.75438 9.82933 40.1977
2.94151 10.0478 37.4227
2.62447 9.5951 36.9664
2.65797 10.3458 41.6844
2.95865 10.4018 40.3088
2.92014 10.5638 40.5742
2.93769 10.2398 38.8046
2.83531 9.53557 34.6333
2.57847 9.60143 38.8985
2.83875 9.531 34.7378
2.50971 9.45789 37.5012
2.69358 10.5605 39.2404
2.77448 9.64303 37.8016
2.68311 9.27956 38.9739
2.86745 9.83207 36.5599
2.63514 9.60252 34.898
2.53486 10.2677 42.1386
3.01051 9.44011 38.9057
2.83979 10.4037 42.0145
3.08229 10.3875 39.1189
2.7477 10.605 40.0019
2.91454 10.5435 40.3685
2.78002 9.45575 34.3657
2.44599 9.46388 37.9177
2.72897 9.36405 35.7685
2.62257 9.83145 36.1448
2.51212 9.60763 37.6016
2.6342 9.29512 38.8106
2.78953 11.4419 39.0377
2.68285 9.73191 39.4368
2.8346 9.00558 37.3121
2.66127 9.76518 39.0006
2.74931 9.48528 36.23
2.57086 10.6047 41.3118
2.81196 9.98008 37.2757
2.64678 9.78064 38.3371
2.57008 9.2521 37.0624
2.69733 9.63121 38.6326
2.70778 10.1991 42.3754
2.89227 9.43657 37.7973
2.62057 9.34332 37.6944
2.68069 9.4136 36.1249
2.64154 9.42572 36.0482
2.62598 10.0795 37.934
2.59773 9.65876 38.0909
2.71632 9.74901 41.6999
2.96499 10.688 40.325
2.90445 10.6407 39.0836
2.7188 9.59509 37.0418
2.65713 9.04017 35.5207
2.55159 9.89874 40.0406
2.73149 10.8072 40.9868
2.91654 10.2565 36.7302
2.56633 8.77848 36.8428
2.66843 9.96143 40.8836
2.82735 9.72497 38.2006
2.61076 10.509 42.5686
2.92281 10.2222 38.6275
2.72038 9.76521 37.1051
2.58945 9.89926 39.6221
2.80887 10.115 38.4156
2.70229 10.0514 42.7487
2.9089 10.29 39.4478
2.75353 10.3524 39.5549
2.726 9.43413 37.2294
2.55385 10.4624 41.1522
2.86014 10.6274 43.0638
2.99294 10.0675 34.9434
2.41477 9.69441 36.7862
2.4871 9.04137 35.3174
2.51744 9.12047 36.7934
2.61712 10.0822 40.5401
2.80663 9.56242 36.3506
2.52818 9.27092 37.4684
2.70172 9.22703 38.5896
2.66716 10.3091 39.3004
2.60713 9.63857 41.8035
2.89857 10.2751 38.0112
2.6297 9.03093 33.7328
2.21465 9.27822 39.2974
2.63582 9.13869 39.0367
2.83815 9.84808 35.9806
2.56789 9.03457 37.2089
2.53263 9.56847 35.0403
2.45046 9.18732 37.7949
2.70741 9.63583 39.6228
2.71013 9.94391 35.5961
2.53496 9.21936 36.5681
2.52646 9.12212 39.146
2.78455 10.4894 39.1238
2.72741 9.99035 41.5854
2.89534 9.87016 38.5658
2.81481 9.99514 36.3751
2.48075 10.3367 39.2823
2.6541 9.19769 39.1381
2.70442 9.9437 35.894
2.41342 9.05112 38.2207
2.59904 9.27719 37.3166
2.59483 9.66568 38.6695
2.62284 9.75043 39.2918
2.60005 10.7457 43.1888
2.93712 9.67157 38.1554
2.57958 10.2462 40.751
2.7581 10.2 40.3741
2.88937 9.4212 34.5617
2.37791 8.65588 39.3833
2.76075 9.93623 37.4813
2.61339 9.32891 37.2224
2.57057 10.0752 39.7098
2.63847 9.76763 38.0893
2.61392 9.88989 37.5848
2.47328 9.27037 37.3546
2.56307 9.21131 38.0692
2.61106 9.70314 41.3287
2.72379 9.51739 36.9656
2.58754 8.66077 30.8384
2.13923 9.26975 39.3738
2.67789 10.8526 41.9905
2.9133 10.392 38.5313
2.664 8.46914 34.5262
2.33948 9.04483 40.111
2.71524 10.5318 37.1638
2.64672 9.29634 40.251
2.73919 9.72741 37.1929
2.6111 9.18429 33.7481
2.27217 9.44526 42.381
2.89431 10.4896 37.0716
2.47222 10.0316 38.7784
2.62867 8.40313 34.701
2.27192 8.95163 38.3391
2.68072 9.46912 38.1523
2.66565 9.82643 39.0225
2.66078 9.41877 36.3611
2.52987 10.2913 39.7583
2.70205 9.80798 39.2325
2.66153 9.73585 39.6253
2.67818 10.2281 40.7866
2.79694 9.95326 36.072
2.42037 9.34519 35.7492
2.42728 9.41554 37.8175
2.60041 9.38327 37.9984
2.60515 9.9762 38.4923
2.68843 9.69335 39.9253
2.76634 9.51969 38.729
2.70157 9.52633 35.6423
2.4544 9.49294 39.7539
2.75565 10.2188 40.6038
2.77324 9.78274 40.9452
2.74313 10.159 35.5923
2.48464 9.28102 39.6117
2.66673 10.7846 44.7769
3.02949 10.2856 42.3831
2.87583 11.2049 41.506
2.75616 8.97023 39.0896
2.6394 9.6872 37.2384
2.59197 8.86833 38.0761
2.50969 9.68998 37.5532
2.56797 9.98034 36.7194
2.53956 9.58112 42.359
2.81499 10.2275 41.3056
2.73235 10.8582 38.9103
2.79561 10.1562 41.245
2.74879 10.0854 39.7479
2.78496 0 0