# pn-170911/RbIIR-45-USN7-1280-1959.psd
# Power spectrum* (dif=0,1,2) (really just |FT|^2)
# NOTE: only the first half! (symmetric)
# weeks: 1280-1959
# 29 clock-days, 507 excluded
# PSD: 1441
745.434 0.194891 0.097529
20895 0.432555 0.299702
149978 3.27388 0.217247
14746 0.941626 0.276367
34178.5 2.81014 0.389489
5390.68 0.796973 0.211402
3156.51 0.701871 0.361659
3164.57 0.917797 0.201048
4415.33 1.57574 0.361731
3266.15 1.17384 0.262295
2815.25 1.54816 0.296743
1690.52 0.846499 0.329694
4401.69 2.81548 0.217941
1453.14 1.3431 0.271414
3099.35 2.71503 0.221089
1229.81 1.3379 0.2977
2611.86 3.55474 0.333277
1039.38 1.61784 0.310279
2459.37 3.83879 0.350115
1121.29 2.07802 0.242252
3195.26 6.31831 0.279319
890.19 2.05652 0.267989
1579.25 3.7202 0.271895
1042.15 2.68941 0.319128
2118.9 5.78159 0.236382
1199.72 3.34125 0.280328
2051.99 6.33731 0.218187
1560.86 4.99738 0.310148
1349.92 5.23067 0.304178
1031.76 4.37341 0.206375
1369.06 5.57244 0.349124
1245.75 6.10581 0.289843
1590.07 7.24561 0.318753
1202.09 6.63658 0.302192
1008.85 5.83823 0.294398
1057.58 6.55038 0.297824
1168.61 7.19049 0.271485
828.585 5.46321 0.390804
944.233 6.49364 0.317496
908.962 6.63841 0.376407
1718.63 13.5675 0.426509
810.881 6.87446 0.321135
1325.85 11.7953 0.256922
922.435 7.7499 0.272317
965.44 9.33468 0.384909
799.796 7.88469 0.331743
1065.95 10.7975 0.384678
782.389 7.95956 0.28031
1030.49 11.2575 0.395354
811.955 9.39208 0.414415
712.539 9.2541 0.387899
776.98 10.3292 0.382863
986.171 12.5857 0.331539
623.678 8.05946 0.377377
1056.35 14.8523 0.426244
1114.86 15.7147 0.616053
892.636 12.8349 0.401528
697.083 11.1785 0.542426
718.767 11.1983 0.442347
957.168 15.9216 0.478453
890.059 15.2117 0.420871
834.162 13.8728 0.624552
532.89 10.1757 0.412894
611.072 12.099 0.398142
718.357 13.3744 0.432828
646.765 13.0927 0.551197
794.086 16.6734 0.541243
579.407 11.9112 0.402708
776.058 17.0961 0.68559
630.68 14.0514 0.661613
579.603 13.3876 0.459678
747.755 17.4439 0.716404
610.159 15.1797 0.489114
901.436 22.5368 1.04752
576.561 15.1794 0.517106
450.365 11.6476 0.700078
801.988 23.1512 0.97441
701.681 19.753 0.931457
612.19 18.8908 0.829043
559.765 17.2752 0.546776
505.642 14.8741 0.600039
362.319 10.9195 0.461386
780.986 25.7516 1.30845
538.515 17.7596 0.657105
516.789 18.0848 0.961584
455.869 15.7467 0.757293
558.065 19.9123 0.840391
519.467 19.2391 0.920929
478.353 18.1606 0.714296
541.146 19.338 1.06175
485.363 19.0783 0.975061
447.966 17.5186 1.00887
498.332 21.0626 0.982463
375.878 15.2604 0.815138
449.24 18.082 1.065
421.131 17.6283 1.25752
436.077 19.3093 0.912712
457.578 21.038 1.04464
435.837 19.8058 1.25798
339.358 14.6651 1.08137
529.06 24.1327 1.71252
483.771 22.7688 1.27278
317.744 15.4599 0.90423
496.7 24.7462 1.5694
392.247 19.5132 1.2018
317.016 16.9106 1.00181
323.465 16.9666 1.26571
641.421 34.5359 1.95391
286.135 15.486 0.985189
454.157 25.3096 1.52797
346.01 22.0069 1.55764
485.692 29.2638 1.8701
313.398 19.0508 1.45367
401.824 22.5217 1.56139
272.027 15.229 1.23613
360.472 22.1703 1.38532
295.516 19.5254 1.51657
427.645 26.2464 1.63187
319.155 20.3808 1.53207
307.349 21.5835 1.64774
359.404 25.3536 1.97701
301.357 20.6878 1.55538
401.365 28.9126 1.93965
249.025 19.2138 1.59886
167.584 11.3858 1.11817
146.614 10.8641 1.07289
319.529 23.0329 1.83753
341.831 24.3227 2.22632
351.557 26.8018 2.08225
241.824 19.512 1.79709
351.531 27.5707 2.46104
372.518 29.9074 2.70163
207.525 17.3243 1.84647
243.256 20.4284 1.77389
245.633 20.1947 1.73722
305.701 25.8863 2.37696
292.376 25.1409 2.10377
267.262 23.211 2.37204
269.515 24.7486 2.66176
190.494 16.3368 1.5627
205.142 19.7255 1.8379
266.573 23.6218 2.54713
347.045 32.7787 3.55309
281.964 26.2785 2.68054
305.409 30.2296 3.61721
196.945 18.9053 2.25576
271.989 25.3723 2.58834
191.798 19.1123 2.49385
182.213 18.0848 1.95414
204.743 21.6997 2.55549
239.131 24.575 2.31981
148.161 16.105 1.95278
255.947 25.3107 2.74396
175.486 19.7891 2.32209
248.624 26.5233 2.69438
271.455 29.167 3.10883
163.663 18.2134 1.96618
226.101 25.8527 3.02935
285.693 32.8671 4.03301
203.036 23.4607 3.22128
178.707 22.4503 2.86944
123.258 15.4583 2.24357
170.357 20.6269 2.86968
237.989 30.4738 4.03619
161.569 20.4169 2.68341
174.991 20.7637 2.72143
213.914 26.6593 3.45192
160.449 21.5307 3.63175
155.716 21.7861 3.29638
123.999 16.7127 2.09455
154.401 21.7438 3.10477
151.96 22.8182 3.07976
211.818 28.548 3.63849
167.146 24.8261 3.865
187.965 28.3023 3.85472
143.982 19.9995 2.66685
182.997 26.8481 3.72587
195.239 26.9516 3.88162
147.266 23.0266 3.52909
160.277 22.7241 3.16126
174.571 27.5492 4.07636
185.612 25.33 3.95501
117.845 18.4691 2.54942
170.094 27.8119 3.97734
178.52 29.4163 4.40881
136.779 22.2732 3.85762
184.834 31.1242 5.23605
110.645 19.7247 3.64642
154.469 24.744 3.89261
183.274 34.0708 5.49555
123.291 20.2441 3.39915
152.871 28.7161 5.42264
163.97 28.0129 4.82091
134.068 22.8961 4.09477
133.976 23.2474 4.29481
138.577 25.9186 4.7439
113.007 21.9399 4.10541
159.884 28.667 5.54678
136.073 24.3248 4.82878
124.931 22.0445 3.84108
148.373 27.1999 5.08418
145.668 26.4197 4.35046
128.458 27.5103 5.33571
145.836 28.3621 5.39467
121.864 22.1391 4.25947
122.553 23.8119 4.86047
157.81 30.9102 6.35132
114.141 22.4522 4.19226
114.874 24.3777 4.7944
172.457 34.8968 7.2518
132.236 26.9443 5.52931
122.28 25.4755 5.47594
131.345 27.7644 6.17788
133.817 27.2752 5.28311
104.694 21.3512 4.75701
125.523 26.2954 5.62998
109.358 23.3478 5.27787
84.4857 19.2674 4.14065
81.9581 18.4644 4.40318
139.524 30.3281 7.35261
105.756 24.3191 5.94797
136.759 29.5108 6.46138
113.709 29.6018 6.84485
105.825 24.6058 5.60395
89.4421 23.0073 5.74458
122.31 31.184 7.48165
141.687 32.5186 7.19719
130.487 29.5484 6.25754
99.5599 23.5528 4.93235
98.1372 26.8897 6.62325
110.366 27.2935 7.04905
121.884 29.291 6.73623
130.531 33.3391 7.72607
95.353 23.7656 6.05728
110.13 26.8434 6.47154
110.313 27.6676 7.24051
128.04 33.1472 8.42238
115.374 29.6175 7.17456
98.1462 26.1815 6.5082
99.6734 27.715 7.74055
132.874 34.8698 9.56538
94.9791 24.6656 6.95414
111.898 30.5792 7.66935
106.723 30.9554 8.05204
97.2996 26.1677 6.73686
84.0294 24.1883 6.9103
97.8175 29.2076 8.25257
127.426 34.7023 9.37662
83.1438 25.8918 7.36847
115.908 35.1304 10.6155
88.3424 24.0759 7.21925
120.635 34.3367 9.94545
102.928 29.6627 7.85101
106.699 33.1855 9.86257
80.1334 23.7216 6.87868
71.5234 21.0901 5.83621
106.998 32.7823 10.1842
77.1099 24.5108 7.04968
97.8992 31.0912 9.86409
77.0469 24.5559 6.70367
80.3776 25.9976 8.4254
92.0328 27.4905 8.80073
81.615 23.9746 7.97916
72.7253 21.2801 7.02628
84.4675 26.7604 8.10652
88.6036 27.4193 8.86275
59.7141 18.1935 5.66039
77.3438 25.8307 8.23958
96.8931 30.7909 9.56187
105.953 37.6604 12.6722
70.1963 23.2174 8.35745
85.0203 28.8994 9.36154
85.6326 27.5388 9.54164
73.5126 26.5939 9.23362
70.0959 23.1364 8.48426
102.303 35.8128 12.361
68.8039 23.9517 8.34004
96.2107 34.137 11.131
81.8608 26.7096 8.88463
55.4877 20.8079 7.59467
59.604 21.1108 7.22647
102.04 41.2534 15.2698
91.1607 30.4717 11.1038
73.9853 29.3603 11.4338
77.0276 26.2197 9.78492
55.9989 20.6586 7.58662
84.4669 32.2169 12.0732
111.552 40.7511 14.3866
89.3817 36.7608 14.4942
97.1822 36.9363 14.4671
71.5416 26.3887 10.4777
63.494 25.8047 10.3708
72.6365 30.3018 12.4364
64.1644 23.9661 9.2832
103.352 36.4165 12.9994
73.2087 30.152 12.4837
73.6143 27.1252 10.0983
96.6615 39.1498 16.3561
80.2263 33.3102 14.1364
65.117 24.4073 10.3665
86.8371 32.0368 13.2484
73.8517 31.1274 12.6062
86.27 38.7355 16.7818
65.634 29.2289 12.6381
58.6701 23.6036 10.0883
78.8358 32.08 12.9516
79.4569 35.1877 16.8023
103.421 43.8416 19.7729
90.5398 36.6952 15.2615
87.1334 39.4236 18.1091
90.4173 36.9338 14.7083
59.603 23.4728 9.45854
82.6197 40.0523 18.474
81.2362 35.427 15.6941
68.7006 29.9844 14.0349
64.0742 26.7534 10.8377
59.5847 28.6991 13.3057
58.9298 28.1438 13.6207
67.4922 28.9124 12.4005
54.1967 25.132 11.4691
60.1388 28.3984 14.6916
47.2039 21.5384 10.1822
80.8928 35.0193 16.1568
74.146 33.6059 15.384
78.9012 39.0005 19.389
77.1782 38.7292 18.6581
43.7468 22.6243 12.5073
57.2133 25.7109 12.0971
55.8383 29.5528 13.3468
49.9176 28.6409 15.715
78.6526 37.6551 18.7203
59.1462 27.6988 13.5019
42.6804 18.4632 8.85527
54.1796 28.9314 14.4682
49.0989 23.0651 10.7576
50.7221 29.7992 16.2315
80.0094 38.3553 19.9446
70.5397 34.5969 17.0134
42.6688 22.1567 12.0348
67.0919 36.1171 17.7118
64.7613 36.7511 19.1947
62.9477 32.7392 16.4407
69.4244 38.4188 20.7837
52.4171 28.5656 15.2407
57.3842 29.1273 14.1967
53.1651 29.446 15.577
48.0481 27.201 15.9902
64.3965 31.6496 17.5926
37.9905 19.969 9.96216
53.2121 28.3959 16.4884
38.3392 20.4444 11.0179
63.6507 36.0644 21.5984
50.7848 28.1002 16.2014
64.1041 36.0095 20.3334
37.7539 22.7066 12.8006
46.406 27.8657 14.7174
48.8982 28.8496 17.2665
64.4165 35.4014 19.2833
61.7019 35.7354 20.6939
42.7814 25.7826 16.0353
67.4818 36.4868 19.9848
48.0077 27.5931 16.2125
48.2308 30.2854 17.7704
57.1342 38.0427 23.7366
38.921 22.214 14.2279
45.6679 29.1307 17.9723
57.5889 31.5177 16.7225
61.8284 41.4567 24.9274
33.0747 21.9756 14.8659
51.1195 32.8707 21.5686
65.1721 37.8185 23.1232
69.9112 39.0081 21.0314
39.0786 28.3791 19.1809
56.2791 35.9781 21.9776
53.2218 31.6055 19.0818
61.5499 40.7577 24.9042
50.3569 36.3975 25.6566
52.6637 30.2082 18.7438
50.339 27.1143 17.6193
50.4941 28.4636 16.9547
65.5341 44.3984 29.1119
48.8121 33.1645 22.9558
44.2753 28.5166 19.9883
59.5812 36.9404 21.2015
46.5172 32.5755 21.7499
47.488 32.6137 21.6581
56.9963 34.7719 19.7533
39.3727 25.6363 17.6935
54.4729 33.0625 19.5194
47.2907 33.2627 22.1773
54.1048 35.7389 24.6204
55.3964 38.3499 25.4776
55.9266 39.0068 27.0872
46.6987 32.3914 21.6943
50.0161 34.7811 23.4257
44.5019 33.7249 23.8359
50.925 34.8706 24.6776
50.4642 34.5082 24.8547
44.9128 28.8478 19.3997
51.3007 37.6244 24.5832
32.049 22.8452 17.8014
51.2254 38.9894 29.5768
63.8655 45.3749 31.5686
45.8085 27.0048 17.4852
62.5287 48.8551 37.3198
51.6932 35.9434 26.0453
66.1299 43.2688 28.8951
46.9817 38.9947 31.0918
35.5462 27.9666 23.0344
31.1466 22.0909 16.2161
40.1674 27.7725 18.475
40.9867 32.8566 25.0298
46.1239 34.8005 25.9866
36.4953 29.6526 24.4851
50.3228 32.0625 22.2895
46.085 33.2945 24.7274
55.2046 43.0574 34.2114
32.1069 24.9578 20.6526
48.6772 37.7866 30.456
52.8386 39.1109 29.6916
38.2834 30.4739 23.5983
39.7585 28.9977 22.0192
41.8518 34.6242 29.1896
42.4885 29.4666 20.7588
54.8729 44.2525 33.5235
38.1806 32.6575 29.1831
40.8517 28.682 22.1605
42.7138 34.6944 29.5063
55.6827 40.3149 29.9781
42.6313 32.581 24.8557
48.1049 41.4491 33.7671
29.044 23.7987 20.1151
28.8976 25.4731 21.5558
37.2542 31.3682 24.6177
36.0744 29.0209 23.4287
45.1108 39.2941 32.4318
28.291 23.2793 21.5293
50.7607 39.5828 29.8735
40.937 36.9283 29.7607
24.5233 22.0523 20.0188
40.177 36.0948 32.3807
29.4371 26.0216 22.307
35.8013 27.9257 23.4515
33.8147 31.4272 28.7956
29.4187 25.6428 25.427
32.2624 28.0623 25.5546
45.0096 33.78 27.294
39.3693 33.8586 25.6629
28.9683 28.0665 27.0276
37.1207 33.055 28.7932
38.4101 31.2993 27.3346
32.8391 32.043 28.7669
45.173 37.5937 31.9523
35.6153 29.9855 25.0405
31.3067 27.0269 25.8717
43.9298 43.401 37.4439
38.5582 33.5893 32.9078
49.2098 43.4889 35.9809
37.0789 34.0718 29.13
23.922 24.3822 26.6428
36.3773 37.2538 36
34.0528 26.5407 23.7542
30.8527 28.1139 26.747
33.7865 29.5223 25.1455
38.467 40.519 40.9161
35.1783 31.0063 28.9091
27.6374 26.4174 26.6097
33.7651 27.1147 22.6737
28.5591 26.8414 25.6845
32.4763 29.8895 31.1867
37.3669 35.3796 31.9966
31.613 29.7827 29.625
34.2394 33.3329 35.7628
41.0402 37.2629 32.1289
22.8597 23.1015 26.3464
36.6352 38.287 36.9119
32.3362 29.5326 28.321
36.7965 36.815 38.1726
30.835 25.1252 23.1222
33.2495 36.1295 39.0077
43.5488 33.575 28.1615
43.3146 45.032 45.1986
39.3611 38.4123 39.2866
33.5156 29.9093 27.2986
35.7992 38.226 38.7064
22.031 23.8744 25.1015
24.6504 24.4905 25.293
36.1082 36.1829 34.6555
22.0256 26.1946 30.7402
28.8807 26.182 29.802
37.9484 36.3084 38.3679
41.1819 35.3404 32.5483
33.1144 33.4636 29.631
27.3516 31.8172 33.5467
24.6833 30.2486 33.8017
26.0254 22.3675 23.7185
32.2022 36.4069 36.067
32.1139 35.1173 37.7709
24.8642 27.6958 33.3001
28.2452 25.873 25.2853
27.299 28.2473 32.0669
25.5277 24.5141 26.0844
20.2615 21.4965 22.5053
27.5703 31.4851 34.0222
25.2517 26.9641 29.4869
31.9976 38.765 42.7746
23.0575 25.0897 29.7026
29.26 29.3033 28.9544
25.5658 30.1932 31.2816
23.1184 25.8901 29.3442
22.6199 26.637 32.7086
26.3373 28.3099 34.3778
36.1736 36.4985 38.1161
30.3779 36.6467 43.5078
38.4254 42.9383 47.9894
27.8568 27.9125 31.0591
21.813 22.8944 30.8361
51.1511 53.7437 54.5312
29.9987 32.5065 34.6006
24.6965 26.9891 32.8977
26.6017 26.0975 28.5022
25.9964 30.5296 35.3161
31.4204 38.6002 42.4699
21.4456 24.4651 34.7336
37.3489 39.3999 42.3678
21.872 23.3807 29.5109
33.8239 37.2779 42.6283
31.4303 35.0569 34.5961
27.1312 33.6263 39.7912
25.0234 31.5075 35.5754
22.3992 31.1097 41.2251
24.1293 29.6467 42.4354
28.0875 27.7188 32.1893
31.1787 38.1622 44.0975
24.0287 28.3337 37.5269
27.4038 30.2055 31.7063
18.9629 25.2059 37.4576
25.2093 26.6846 29.4909
34.9859 40.6629 41.1202
23.0711 33.2388 46.9552
22.3632 22.7894 29.366
23.5907 25.6524 29.8869
15.7575 20.0241 26.6813
23.7115 33.4925 43.7624
28.0279 32.9159 35.6376
19.2982 24.0266 33.7435
28.332 33.0401 36.3315
18.6802 26.433 37.1621
29.9269 36.2232 45.8443
24.0771 27.7229 35.2951
24.8959 27.7814 33.6905
19.1529 24.5033 32.6723
17.7691 20.5128 27.5785
22.5121 26.2347 30.9419
19.3785 27.6352 38.9223
18.4621 22.1299 29.0843
35.0613 44.6616 52.5053
19.7326 27.0811 37.5922
20.6981 30.3047 46.1976
33.5815 43.3434 54.9509
28.3077 33.1599 49.0387
29.3836 33.4047 34.3586
21.5963 27.4108 39.2074
22.5732 28.2084 38.56
22.6847 29.2463 38.528
23.3744 30.9349 43.8169
26.3729 31.4599 38.5458
18.5704 22.0661 28.5859
21.9954 35.0535 52.3815
24.1185 27.9498 39.5185
27.9594 35.5461 44.0938
27.1382 36.5846 49.5042
22.7386 30.2583 38.021
19.3395 22.9479 31.4523
22.0461 35.2099 54.0388
29.4738 37.3398 52.418
27.8021 35.5403 41.7038
17.6164 22.9624 36.1252
23.5426 28.2715 34.4251
26.565 38.0104 51.022
24.5306 34.9436 43.7437
23.0853 35.9211 54.5308
22.3677 28.8316 39.6499
17.0079 20.9787 33.1308
23.0534 32.7141 45.9332
20.8357 29.4951 40.6331
20.2299 27.3426 37.4955
18.7172 29.9186 50.9264
29.8319 32.4809 40.157
26.1444 37.3032 49.7538
23.812 38.0272 58.6871
21.3212 26.9571 42.5968
24.6546 32.9251 46.0945
27.9874 34.1279 46.1211
14.925 20.6281 34.1005
23.3039 29.9306 36.1736
14.0911 24.5286 44.3233
23.1857 30.8543 45.8614
19.7471 24.9172 37.105
22.6828 28.5811 37.5199
21.9789 31.0948 44.9244
18.9987 27.2786 41.868
23.9424 30.3308 37.3746
21.4137 33.5299 53.508
22.1111 31.5387 48.0571
27.6329 39.587 58.6333
24.8839 36.8553 49.9968
15.2667 21.0326 34.062
14.8377 23.0929 42.9401
25.5137 33.66 47.2798
20.7583 31.0375 45.3521
13.189 19.9259 32.2421
21.4432 31.2154 41.5886
12.8509 18.4845 27.3538
11.0511 18.8391 33.3278
18.1331 32.4645 57.471
18.9324 23.8737 36.5238
21.5753 29.9007 40.0211
10.0419 18.6834 36.3425
15.5106 26.7367 48.9605
26.2179 36.3854 49.7283
10.8834 14.4721 27.2298
20.4846 27.0588 36.52
18.0683 28.3883 44.1162
23.124 30.4606 40.5748
14.6093 26.1636 44.2634
20.0862 31.5985 50.7252
18.9382 34.2943 58.4975
18.2056 19.7512 25.1669
14.0579 26.1543 46.352
16.4121 27.6981 48.1867
20.4887 24.4898 34.3268
15.5887 28.432 52.1762
24.3625 30.5154 41.6651
21.5253 38.3516 63.4458
21.4352 29.4355 43.8472
14.4842 25.9149 46.8378
14.9249 21.4805 31.5559
9.58439 17.2049 33.6152
13.6256 19.6798 32.5898
15.5707 24.3785 38.8381
19.631 33.1621 51.4052
15.5789 26.8598 49.9623
17.2161 23.8328 39.0018
16.7896 29.4351 56.6113
26.4963 36.1774 52.8821
15.0194 22.8262 37.6229
17.8487 35.586 61.4164
16.1083 21.1031 31.8195
12.0914 21.9206 42.8114
14.6194 23.9121 43.5119
21.7403 31.8054 54.9534
14.7888 19.3614 36.4089
20.4106 32.3507 57.9203
20.5931 25.6062 37.2397
16.0275 28.4905 46.6156
18.1291 27.3594 43.6056
16.2694 27.3171 47.474
16.2003 29.349 53.87
16.8279 29.3721 46.496
16.2161 25.7607 44.5751
11.0716 19.6652 40.935
17.7719 25.5176 43.8775
16.462 22.2802 35.8608
14.008 22.5604 38.9673
13.0765 22.3619 46.8555
20.6999 36.4312 60.8436
19.6707 31.7903 51.6229
18.5962 32.4361 54.3687
14.9734 26.2865 42.8503
10.5972 19.7692 38.2421
19.9299 40.9986 78.5531
21.0098 31.6429 49.4727
14.4131 29.6692 54.5036
13.8165 19.2108 42.4947
18.482 27.4349 48.0427
21.9833 40.6487 65.7453
16.8264 30.189 52.1317
19.1188 34.1047 58.0092
11.4916 24.6376 54.2006
19.3957 32.456 50.7461
18.3413 32.926 63.9599
19.2884 30.5851 53.1179
15.9227 29.0585 57.0914
15.9555 29.9967 54.2822
13.5201 22.2801 40.7286
11.0398 21.9955 49.9311
15.2567 23.3276 39.4227
15.8842 30.2129 54.8085
14.1196 30.9023 59.6059
13.562 25.8746 56.0377
18.8586 31.6306 61.4286
18.5465 26.5748 42.6865
14.5048 27.8728 49.9553
15.5257 35.2092 73.3736
19.322 25.968 35.6456
12.6359 28.5658 51.6012
13.2804 28.2633 58.4926
15.8757 26.6778 54.1032
16.937 29.0124 53.0537
13.2498 23.3887 46.0895
16.0992 29.7775 52.3746
12.0619 26.6525 62.7545
17.3473 31.5828 57.9944
17.8953 29.9544 46.3373
11.9926 27.804 59.7867
16.1642 33.0269 64.0292
11.5025 15.5288 34.2183
16.0953 32.0821 59.2396
12.9222 21.8672 39.8535
10.2597 22.992 59.024
16.3138 24.2875 43.6508
13.882 22.6566 41.722
17.3799 37.339 60.2094
9.75126 23.3146 57.2977
15.9204 30.4043 67.6559
16.9486 28.6931 52.081
18.3377 33.949 65.258
16.1212 29.1458 48.6923
13.6076 28.1428 63.1551
18.5338 35.3597 70.6534
16.0167 26.2592 49.1157
12.3061 23.7915 51.8787
12.6724 29.5128 63.2598
20.7645 34.2763 57.4046
9.90936 23.1347 56.7383
14.9669 24.8804 45.9865
12.4321 24.541 50.4144
12.902 22.1982 50.689
14.8352 24.1896 45.3
13.7516 26.4313 49.9281
14.419 26.9441 55.3435
13.5919 24.4829 55.9393
13.4261 23.2933 40.7218
11.1434 23.8286 56.1151
15.6611 31.0067 63.2682
13.0621 24.2004 55.9984
14.5375 25.3163 46.9387
15.2201 28.7417 51.8034
10.3076 22.0828 49.3672
11.3723 16.2193 35.7468
14.1093 26.1145 49.4493
15.5583 35.1863 70.6841
11.2454 24.2523 56.4333
15.6725 31.0067 63.8065
10.4951 13.8655 29.5026
9.81409 22.1543 45.4363
10.8674 28.8103 55.842
10.2003 24.6408 63.4464
14.058 22.9612 40.0901
11.1708 26.9747 65.6066
13.9938 22.1879 47.6394
10.731 20.5449 45.6251
13.0942 26.8113 56.0251
11.7014 23.6341 45.3823
11.9625 27.3427 62.263
11.2512 22.8299 65.1453
15.2035 26.8728 53.0313
12.4336 19.8741 47.2044
14.0311 25.3942 50.8872
15.84 36.6732 81.4681
15.8109 28.3251 57.8751
11.7227 23.7797 59.5339
12.5588 24.7649 54.6127
14.2 22.4939 42.128
11.6817 23.1865 56.7764
13.6326 18.864 39.8143
12.9842 28.7937 63.4927
14.6868 32.8571 71.952
12.6358 18.3813 32.1591
10.8858 20.6462 44.8555
9.78948 24.0413 56.8801
14.2976 33.1621 76.8315
12.7378 18.3049 39.6081
13.3167 32.9172 69.7954
15.4258 32.1536 66.4319
11.3249 21.861 57.3857
11.8263 23.2681 56.4259
12.6669 23.7812 45.4776
11.5233 24.8765 60.0361
13.1723 25.3369 55.8955
11.5585 21.605 53.2176
13.9591 29.6721 56.4905
11.3016 27.2877 69.0906
13.2019 27.6862 67.0482
13.4604 26.272 53.5932
13.3447 30.8636 71.0449
11.4628 21.9701 56.1139
13.6758 28.6646 58.5976
11.3412 23.8105 52.7158
10.1328 22.4557 61.1127
14.4808 27.1027 65.3644
12.4164 26.3389 60.3381
11.7458 21.3568 47.263
10.8106 21.8055 55.6191
11.63 20.4233 43.0865
10.3208 21.633 53.8028
12.1871 24.0229 48.2282
10.9004 25.912 59.1461
11.1483 22.6949 49.2606
8.49708 23.4463 68.2799
13.2427 29.288 67.7615
11.3093 18.9071 42.0365
9.87453 21.3098 58.0872
11.6771 22.8819 45.3121
12.4419 30.639 58.0914
8.49362 27.4644 73.0313
9.95148 20.6498 48.4934
9.84925 24.8923 61.9317
11.0425 28.0719 68.5008
11.1583 20.8068 44.6001
8.36885 20.0912 59.4215
11.486 23.6846 51.2972
10.1468 22.0447 57.8355
10.9772 27.2798 70.741
13.4952 27.3175 68.8238
12.4927 23.0904 52.3545
12.0717 29.4942 61.6319
7.78514 18.9885 48.3661
12.3998 25.1265 62.6803
13.538 31.2422 68.6681
8.27801 21.7621 51.6672
12.4338 26.0893 57.9291
9.71803 23.6971 58.8335
10.9544 25.0733 61.0338
10.1922 24.7263 70.5718
9.78447 18.6475 46.8233
8.5989 17.0956 34.0374
6.36405 16.9352 43.8254
8.96586 22.206 49.4618
7.03461 17.5899 50.142
8.96024 20.5141 54.1116
11.1061 26.4431 59.0406
9.53418 20.8121 44.0377
10.3148 22.7908 51.4858
7.8259 22.3182 60.6029
10.984 25.7793 70.1178
9.97914 20.237 47.2579
9.44516 23.451 55.9141
9.78377 25.2121 64.2567
8.63627 19.2651 53.5688
11.3473 24.2042 61.6872
10.4841 24.0495 46.3916
6.88841 23.4347 68.1662
8.36856 20.1067 55.6748
11.1635 21.4867 57.8027
13.4271 30.6691 64.7654
8.65648 14.5396 39.6939
10.4873 28.5228 63.7015
9.02704 25.2952 65.38
10.7243 21.4526 57.8605
10.5789 24.2772 58.1902
9.12018 18.29 52.4994
10.7037 31.9023 78.6566
9.48807 20.7993 53.8859
8.21174 22.5752 69.5081
12.1642 24.4746 52.4498
8.74383 24.0855 57.6828
8.98914 24.3935 68.9928
10.9346 23.6668 73.6864
12.9965 26.778 56.5178
10.7711 30.4149 69.9829
9.27235 24.1553 72.4562
9.94454 22.5623 62.8984
10.2993 25.0596 55.7619
9.6563 28.907 80.5193
10.7035 23.5353 69.4475
8.31753 19.2843 52.4646
10.3888 21.6304 44.3092
5.96382 17.0609 54.2218
7.02295 16.9388 39.2609
7.61405 18.1004 55.3872
10.7641 23.3945 53.0211
7.29733 23.0718 73.6144
9.09445 18.2846 49.154
9.01232 20.9119 58.0995
9.50119 24.2833 58.7659
8.08941 22.1156 59.1316
8.83784 19.5169 58.2827
6.96895 14.4905 50.5144
11.9996 33.0016 75.7413
9.80766 23.0578 44.7773
6.30216 24.3393 74.824
9.96062 16.4835 37.1104
7.94741 21.7695 54.4521
8.18253 22.5882 55.331
7.09225 18.353 59.6454
8.20665 16.5756 40.2926
6.98894 18.7522 56.8241
8.49408 22.5825 59.2709
9.56077 27.3823 72.3482
9.65016 28.3481 86.3653
10.5148 20.1855 61.0125
11.9943 20.6996 33.4409
4.73216 18.9683 53.3169
6.74897 16.2783 47.6788
8.41452 20.2792 55.2447
8.22175 19.9455 54.174
9.18782 19.5708 58.5146
8.89288 23.2853 54.8385
8.14502 19.3179 51.9511
8.85735 25.2411 57.028
7.43407 20.7493 66.1245
7.78561 18.4476 60.6059
9.06577 19.8099 54.2441
8.81336 21.8265 54.2852
7.12752 20.2251 55.4809
8.15419 21.6682 57.5332
7.41219 24.13 62.4842
4.63606 13.9031 47.5627
7.98637 19.8839 60.669
10.1244 24.6035 70.1316
9.60411 20.0676 57.6307
8.96717 24.3116 70.1424
10.1875 20.2504 40.9592
5.87247 20.6036 57.3018
8.21638 21.4158 68.7653
9.39547 24.3187 67.3265
8.59664 17.013 47.0597
7.66895 19.547 52.836
6.75598 18.8992 67.8773
9.82526 22.7586 62.6563
10.4886 30.4281 70.7674
8.64101 20.8884 63.4075
9.02105 26.0294 71.1727
8.16441 25.1861 72.0946
7.3898 12.2506 43.2427
7.84254 21.9355 51.4507
5.2054 12.7802 43.1639
6.78315 23.3211 72.3786
10.0241 21.9072 52.1673
4.99173 12.2144 43.5564
6.79779 18.0436 44.3732
6.08606 18.6329 53.396
7.52005 20.2617 69.1295
7.86355 13.3447 46.7311
8.01637 19.432 49.1178
7.03694 14.9993 57.0292
9.794 23.9181 50.1746
6.28182 15.4319 45.5064
7.13455 20.6316 61.2156
8.95708 24.3328 67.7355
9.91186 25.0715 67.9253
7.50345 19.4099 60.9403
7.46168 16.3297 51.5715
6.90283 18.0945 59.3738
8.7987 20.6914 52.4026
7.36402 15.9308 45.4969
8.22136 26.7166 72.2245
6.16771 17.69 60.7051
6.9796 18.2415 58.0351
7.50934 19.7025 61.1783
7.76887 20.0669 52.5173
6.47874 17.0249 56.6139
7.95009 24.6244 57.7833
4.99392 17.9813 56.617
7.59734 14.4366 49.4221
5.98226 18.1682 65.8521
8.57289 15.9229 39.681
6.55959 22.4989 64.3529
9.46461 24.6746 73.8578
8.90402 20.0431 55.1095
8.25073 18.235 45.7621
5.22476 11.1404 40.5535
6.35013 19.9663 57.8679
6.91404 15.6029 57.8048
7.27683 17.4622 45.0485
4.94535 19.3986 61.0256
7.35228 16.4613 44.042
3.9945 14.345 51.9622
6.27384 19.0942 72.6602
8.12421 20.1921 56.4156
8.7979 20.4356 57.1348
7.74956 25.5236 66.6157
7.60249 21.9394 69.7789
6.21126 16.7247 57.222
7.39967 19.294 43.2881
5.79508 19.224 58.0637
5.42529 14.1687 58.1243
8.1418 24.5795 68.1779
7.37381 21.0327 61.0298
7.68731 19.3297 59.2812
7.38144 22.1969 75.0592
8.74712 19.0934 58.564
8.02603 20.0298 49.3478
7.07715 21.3973 66.6954
8.25281 25.5927 71.4457
6.49712 14.4488 50.4886
6.98361 19.6047 59.3696
6.68799 18.3697 44.3989
5.55187 17.2004 66.5638
6.92844 19.6014 61.7013
6.46365 16.0168 50.3329
7.08831 21.6706 60.3482
5.97552 19.2462 58.2545
6.16494 15.0247 49.8722
6.8553 22.8695 62.5069
5.86363 22.097 73.5113
7.13176 18.343 57.716
6.46873 13.9772 45.9953
5.83047 21.6021 70.6071
6.84501 17.2642 71.9004
8.59234 25.84 72.9396
8.15103 16.888 53.748
6.115 17.9873 70.7073
8.48004 15.9277 46.563
8.00344 22.552 67.8225
6.15161 15.7101 56.1689
6.5892 19.1242 57.9306
6.96241 19.2114 62.5904
9.35211 26.2023 75.9674
7.97054 16.5851 51.7502
5.94405 18.1463 57.8376
5.47973 13.3593 64.8071
10.0818 28.6769 66.6809
7.03947 18.9925 70.2511
10.3998 25.2266 66.6396
6.96012 19.929 68.5591
8.21465 19.2137 47.5936
5.60224 18.7224 64.1876
7.84157 21.937 66.7839
6.24889 16.2526 61.012
8.31742 18.452 61.0755
7.02092 19.8967 70.2257
6.68345 14.3596 44.0184
5.6092 19.194 70.8334
7.87832 21.6471 66.3245
6.55056 16.9938 58.2308
8.45965 16.8228 36.5168
4.35787 13.6894 50.7903
5.93682 15.1306 55.4326
7.52996 19.9832 58.2482
7.38771 20.2773 66.1415
6.48078 17.4523 64.7015
7.08735 17.7138 52.8955
6.37031 17.6869 44.63
5.27512 20.0754 70.1157
6.02222 10.9478 42.196
5.34607 14.9057 44.0321
6.00908 17.887 59.9974
6.86049 17.4474 46.4379
5.46792 19.2511 63.6419
6.02989 18.3432 75.9863
8.3552 15.4084 48.9451
6.07934 20.1389 70.0579
8.78365 26.516 65.8176
5.37974 15.3407 38.1307
4.54857 18.6969 75.7277
9.0613 23.5228 66.9439
5.70196 17.296 68.2473
8.03041 14.2588 49.0322
5.84838 15.3845 36.8637
4.22947 14.9173 48.5918
5.44022 16.0921 58.9932
4.87079 18.5148 69.254
7.00801 11.2166 35.7645
6.30691 19.3835 62.5073
5.55823 8.98056 40.6957
6.00465 21.7987 72.0219
7.51968 25.4507 71.8977
6.62982 24.1578 64.7402
5.86517 14.9293 60.9639
7.20422 15.912 50.3025
6.41886 17.4423 63.8449
6.03861 14.1622 35.5076
3.84077 19.2952 74.0176
6.46949 20.0634 62.0628
6.46922 14.8165 54.7677
5.58284 16.3785 55.3456
4.68159 16.203 59.5182
6.77714 16.033 50.3778
6.26121 15.6627 51.8362
5.10084 17.4178 56.809
6.27092 21.3572 65.7143
6.00395 18.5893 81.2717
8.00296 18.1151 53.2398
5.04847 15.13 58.0682
5.28751 17.7269 63.5657
7.05961 21.326 69.3243
7.21474 21.8047 71.5377
6.05462 13.0484 48.2214
6.77047 20.4657 66.4511
7.21731 24.7325 86.5368
7.46766 12.6826 40.9254
4.78 15.669 52.541
5.11632 15.739 67.2099
5.91653 12.229 40.9601
5.45193 16.9985 53.4919
5.35897 14.3226 54.0513
6.41124 18.6639 60.0809
5.5743 16.4112 52.0761
5.52913 15.3209 63.8389
7.82519 17.647 49.3921
4.50757 11.143 40.8867
4.59107 14.6205 52.4382
6.48951 12.6959 41.4435
4.05318 15.7703 49.2612
4.29632 12.2419 59.139
6.10741 20.0508 37.7666
2.94044 16.9044 94.203
9.97898 18.5795 51.3466
4.88853 14.1121 66.0239
7.59999 22.1423 45.1194
3.91186 11.313 45.1717
4.6894 12.4806 58.3358
6.55251 14.6401 49.0968
5.78654 15.1399 52.9998
5.72525 14.1094 47.2759
5.39859 17.9753 45.059
3.62007 14.2585 37.6492
3.30439 11.8552 53.3988
4.19024 12.0414 43.5121
4.52147 18.5329 74.8336
6.30433 16.5935 58.0208
6.45153 15.496 51.9301
5.10013 13.4378 41.2678
4.57333 13.4732 49.8286
4.2564 12.695 46.5614
4.88078 14.812 54.003
4.88015 17.4241 48.5541
3.79496 13.6613 60.6336
4.17226 11.9401 55.1862
6.34829 21.9263 74.8651
5.53273 14.7982 45.9796
5.02598 15.1065 58.1375
6.30985 20.7273 61.1826
5.9265 17.5187 53.1567
5.01969 12.0345 57.2338
6.18494 17.9213 55.5247
4.91864 12.951 47.8488
5.49128 19.1597 55.3235
4.3675 12.5443 59.2655
7.15823 16.3727 50.4935
4.72948 14.2624 73.1412
7.41729 19.2755 51.3151
5.48955 15.9271 51.9962
4.92698 13.7588 49.2479
5.36835 17.4341 52.0462
4.57153 16.5803 68.3378
5.92804 19.2418 49.5495
3.8631 15.7819 76.3268
6.37148 17.1621 43.1484
4.62073 16.4194 70.2133
5.55291 11.9349 42.3512
4.81052 14.0638 41.0573
3.3542 12.5544 55.6331
4.91522 10.95 39.4037
3.65113 14.459 62.7948
5.95869 21.3335 71.0999
6.2024 15.3182 45.6334
4.26532 14.9806 51.8029
3.58831 18.7523 81.9548
6.40315 16.0391 48.8692
4.45772 12.3168 41.0415
5.15567 18.9455 57.0445
4.65799 18.1258 85.0407
6.82716 22.1009 71.9301
6.31462 21.381 73.0078
4.76053 11.3176 49.8865
5.0889 12.5944 47.3792
5.53356 17.9806 50.0809
4.6494 17.5846 69.028
6.29868 17.0493 58.1947
5.6696 18.0439 73.6123
5.55949 19.6834 76.7458
6.77382 16.3048 53.5776
5.51017 14.8776 50.8259
5.65059 16.8065 46.237
3.97764 16.2393 61.8513
4.677 16.2266 59.1717
5.16506 13.3605 59.8424
4.4004 12.9071 45.3246
5.3754 20.0045 66.2541
5.43889 17.8916 60.2556
4.77399 12.6597 41.6012
3.72098 9.86948 42.9344
4.49585 17.7393 53.0256
4.4937 12.1027 68.4826
6.76368 21.5646 54.1554
4.42735 14.2444 61.2202
5.84537 17.3213 53.5509
3.69154 13.3687 54.997
5.21174 18.6061 72.4053
5.40019 9.63531 41.8976
4.94271 18.6257 67.2729
5.72687 16.6005 64.7617
5.16772 15.1107 63.2773
5.19763 16.8532 62.4109
5.99864 13.6404 41.3115
4.07353 12.3357 49.8401
4.14915 18.7336 64.7237
6.41669 19.0265 52.2829
5.51418 16.4422 75.1392
5.75428 18.915 71.7034
5.44284 12.3463 43.1984
3.53796 14.8104 56.7535
4.15903 13.0265 48.9986
4.28667 13.8641 53.0894
4.4516 17.2045 71.6739
5.95624 15.1355 64.5967
5.27647 19.392 78.6768
5.99705 13.9412 43.6734
4.85015 15.8501 49.1621
4.08922 10.6749 40.5804
3.87701 16.954 57.2768
4.98908 11.2892 58.8254
5.70163 15.0702 62.8864
5.09455 13.0639 48.8947
4.81691 15.5373 53.3459
4.75094 15.5351 48.1345
4.49416 13.89 58.0636
5.91243 21.3695 55.2572
4.27342 14.2787 69.5209
6.05716 24.0496 85.9855
6.64704 14.7364 58.0356
5.40987 19.2723 55.2789
5.44431 20.6097 77.7607
5.77078 19.7128 69.8015
4.57814 15.8148 58.2851
4.25966 11.786 63.8758
6.24043 18.0377 62.7398
5.84814 16.8443 60.4503
5.04986 9.76958 48.7924
4.57759 15.7817 52.8489
4.62821 13.1607 58.3929
4.62695 17.9549 64.6755
4.19077 12.5532 56.2098
4.37475 15.9167 66.5058
5.15307 14.6225 50.0169
4.37651 14.8912 53.0554
4.90812 13.3601 42.8973
3.65452 12.623 42.8641
3.20093 12.5385 66.0073
4.98385 16.96 46.951
4.08481 14.2208 57.3867
4.92415 13.149 52.9502
5.09333 16.6489 62.3463
5.84921 16.988 78.9768
5.55084 18.436 76.2505
6.58586 22.8831 59.2277
3.82839 16.147 64.2576
4.98411 15.9089 59.785
4.05953 10.0312 35.6172
3.50315 12.7554 54.4464
5.29498 14.3355 51.1
3.99823 14.1606 66.3275
5.58782 13.6874 50.8945
4.30455 18.6365 70.9139
4.94343 20.5881 78.7816
5.74329 13.4795 45.1792
4.44875 19.194 60.5458
4.51018 12.6996 50.4236
4.48615 13.115 49.3787
4.19979 15.9292 56.2819
4.97701 14.1773 55.7874
4.95935 18.8561 70.0016
5.55673 17.0782 67.0462
4.82702 15.4471 55.2718
4.53352 15.0091 57.0817
4.21209 11.3969 43.4339
3.96918 18.1084 67.8469
4.56357 12.8639 48.5763
3.47478 12.7791 54.891
3.93553 14.8682 62.4068
5.5194 18.5639 52.6555
3.91753 12.3468 50.7482
4.73676 12.5471 49.5817
3.71859 20.2557 101.559
7.6628 18.0475 43.199
3.86128 16.2247 86.3467
6.14299 15.9419 53.6153
4.16554 15.6676 45.5617
3.35687 16.7108 72.7027
4.91674 14.235 45.034
3.52385 9.66118 55.5306
4.96851 16.2302 61.0072
4.49953 17.9617 60.1886
4.43441 13.8707 53.0502
4.57294 11.4706 37.8305
2.81705 12.7935 48.069
3.13394 11.4089 51.0591
4.40293 10.9059 38.6362
3.63382 14.4653 53.5705
4.05653 14.4126 56.1303
4.21117 14.1396 45.9161
3.97428 19.7937 64.0956
4.07629 15.801 60.6563
3.92608 11.9029 66.7744
4.79308 12.9831 54.7717
4.14941 10.7077 46.6845
3.82461 16.0442 51.4909
4.41731 12.4952 54.0076
3.75743 12.1527 36.7511
2.96652 10.8029 44.6921
4.33013 16.5152 59.0811
4.08967 15.44 57.6787
3.98014 11.4767 49.1905
3.84632 15.9261 55.6908
3.6317 15.179 64.4735
4.44648 6.88823 40.7687
3.72817 17.8044 61.2945
4.30164 14.2324 46.3048
2.99017 8.7947 45.6341
3.85532 16.3164 49.8074
3.7347 16.4522 67.1512
4.17644 9.232 43.6407
3.67195 14.921 67.1113
4.36751 19.6702 70.9484
5.5294 13.7556 45.1797
3.57836 15.334 81.7161
5.25973 14.0993 55.3055
3.92417 17.1878 62.2964
4.26085 15.7604 87.2723
5.72859 18.8806 56.694
4.87031 16.7424 52.0346
3.38733 11.8968 50.4722
3.86058 14.4681 79.3102
5.52722 15.1701 50.3736
4.2385 15.2303 58.9903
4.41045 18.1829 47.3793
3.53843 11.1478 66.012
5.09711 17.2346 56.5169
5.1955 12.6514 57.3617
4.65063 17.3452 64.2161
4.44341 10.7378 52.3657
4.1708 15.8229 38.7519
2.29475 11.6331 58.8091
4.83784 14.154 52.8349
4.02455 12.074 45.4054
3.56482 9.80188 47.8735
3.60496 11.2852 40.373
3.22131 13.6377 60.982
4.7003 15.6807 59.2341
4.0674 15.867 59.2993
4.65117 18.4104 76.4634
5.31123 17.7735 50.8784
3.3061 8.30525 43.1158
4.53113 14.6799 60.2864
4.23124 13.7799 59.1728
4.44251 17.0501 56.9995
4.30659 12.1455 57.7112
4.62468 15.1449 47.6653
3.88865 13.1947 49.7321
3.51297 13.5536 63.9637
4.8068 16.0093 53.3807
3.93751 14.4975 58.9797
4.30625 12.6811 56.7237
5.118 12.4221 58.055
4.19452 20.1588 62.7587
4.61949 14.2109 55.1793
3.85696 15.8897 60.333
4.32931 10.4047 53.5246
3.40109 15.0109 55.2619
3.79768 13.7755 48.8998
4.44821 16.5088 67.6586
5.65894 16.8956 50.9259
3.50033 13.1947 50.7155
3.97795 13.3878 69.7511
5.10902 16.596 51.3068
4.30137 15.7117 53.2475
3.4197 11.3532 52.2971
3.64178 14.3216 56.7528
4.25387 13.6205 48.5527
3.93804 11.7752 43.6075
3.72957 13.4782 58.5902
4.9742 18.0604 85.6503
6.15813 20.2139 65.4425
4.65299 12.8943 48.7702
3.97248 12.5757 47.7219
2.8571 14.2101 60.2794
5.03161 10.4883 63.8354
4.56698 19.5885 57.8098
4.82253 15.1979 65.2143
4.45213 17.8269 63.363
5.06549 14.6805 52.2737
3.84279 12.0966 43.4408
3.53729 15.0403 57.9098
3.71225 11.9592 61.395
5.47269 11.8945 65.1051
5.31612 17.3994 72.6591
5.23968 16.7977 52.8493
4.0389 12.9119 51.7687
3.3552 10.9944 58.5698
4.52671 14.8509 41.51
2.5471 8.75554 63.5653
5.09191 22.0497 50.9333
3.84334 12.952 55.9748
4.36233 20.3972 62.3706
4.33344 14.2479 56.8475
4.00916 13.3949 62.3203
4.07384 14.7156 44.4876
3.19583 10.7756 51.3019
3.50787 17.4346 59.5138
4.91559 12.9484 49.0547
3.65808 13.9023 66.511
5.08945 18.747 67.8332
5.01492 14.3099 65.6736
4.46284 16.6394 67.7251
4.61587 15.8346 52.2677
3.80852 12.5782 62.4999
5.12144 18.0759 76.3444
5.87229 20.5055 53.5653
4.20191 11.3857 51.008
3.42933 14.1041 54.9567
4.1476 14.6163 70.2208
4.369 15.0162 48.8147
3.81888 16.1124 68.855
4.73018 12.8788 58.2312
3.92719 16.9946 61.6297
4.38328 15.7407 63.0951
4.67689 12.3999 49.4023
3.73857 16.1854 47.4758
2.86552 10.8624 44.4149
3.46386 10.4547 50.9296
4.00359 12.9031 62.5144
4.65288 12.4417 42.7559
2.99524 12.9022 48.2618
4.37339 14.9061 54.2533
2.75191 12.4852 58.1914
5.08133 18.709 68.9676
5.0068 11.6844 48.8618
3.5438 14.5867 66.8935
4.8634 16.022 62.9751
5.03862 13.2768 56.2486
3.6461 15.5846 66.5289
4.16065 12.8687 47.939
3.11208 12.0472 42.4603
2.96547 9.04209 38.9258
2.96294 17.4984 51.4007
3.09994 12.1635 63.6688
4.62954 17.8612 68.618
4.53374 16.384 59.2472
4.12935 15.0921 69.9967
5.62513 13.7002 55.4882
4.94463 13.1821 51.9965
4.37273 15.0807 71.6946
5.26687 13.4187 52.0375
3.83341 13.0618 63.2074
4.39647 17.7026 57.8788
4.32594 16.8038 73.6672
5.61665 0 0