# pn-170911/RbIIR-43-RbIIA-1280-1959.psd
# Power spectrum* (dif=0,1,2) (really just |FT|^2)
# NOTE: only the first half! (symmetric)
# weeks: 1280-1959
# 3902 clock-days, 315 excluded
# PSD: 1441
7493.07 0.298078 0.0384521
536359 11.1031 0.0389302
1.71104e+06 32.2081 0.040685
327681 10.518 0.0396653
214164 12.5824 0.0409654
99307 7.38131 0.039268
68393.1 7.93041 0.0392125
44809.8 6.76747 0.0389108
40274.1 8.14484 0.0419925
27018.8 6.57639 0.0415871
27365.6 8.69899 0.0418327
18155.1 6.31219 0.0417006
18380.5 8.74405 0.0428767
12979.1 6.36644 0.044288
15452.8 10.5708 0.0487561
10020.7 6.64436 0.0463816
13218.9 12.0402 0.0520502
8150.61 7.11476 0.0484468
10482.4 12.0752 0.0573597
6512.35 7.14987 0.0513038
9631.08 14.0767 0.0646756
5632.75 7.71871 0.0569503
8234.88 15.0375 0.0722892
4816.6 8.03339 0.0614558
7074.35 15.286 0.0801988
4206.49 8.47301 0.063924
6099.72 15.5629 0.0884688
3699.91 8.63142 0.0677034
5593.11 16.9201 0.0981003
3203.7 8.8123 0.073072
4588.13 15.4498 0.102462
2941.31 9.2732 0.0824725
4273.12 16.8836 0.122254
2693.52 9.97366 0.0897586
3817.57 16.96 0.129657
2418.62 9.84393 0.0957858
3255.47 16.2434 0.137081
2204.76 10.1493 0.107221
3104.22 17.0817 0.14993
1966.92 10.3338 0.11335
2679.51 16.2126 0.157225
1848.05 10.7321 0.127015
2440.37 16.534 0.173721
1722.46 10.9523 0.137107
2202.17 16.0022 0.187305
1528.13 10.7708 0.14216
1974.13 15.4305 0.193308
1498.89 11.6328 0.162741
1802.09 15.393 0.204641
1375.79 11.3926 0.171658
1584.92 14.794 0.215009
1247.2 11.1108 0.176777
1435.22 14.2507 0.221296
1217.94 11.8388 0.198403
1351.46 14.3057 0.235822
1119.13 11.9802 0.213499
1235.53 14.4549 0.250937
1040.64 12.1496 0.227598
1128.87 14.2759 0.270195
989.052 12.0254 0.234052
1050.94 13.8513 0.274284
944.265 12.5237 0.255562
992.756 13.9927 0.291249
874.17 12.185 0.270387
901.912 13.209 0.295501
814.678 12.1116 0.277809
843.996 13.1778 0.311152
794.725 12.6996 0.309856
804.205 13.4705 0.336799
762.203 13.1545 0.340602
770.793 13.6161 0.358403
727.537 13.283 0.360174
717.057 13.4997 0.368563
670.644 12.9891 0.368669
687.381 13.6565 0.392318
648.232 12.9739 0.384849
668.3 13.6347 0.411069
620.525 13.3801 0.41212
601.228 13.3673 0.425147
603.015 13.5032 0.438979
590.935 13.8238 0.457807
576.504 13.3954 0.45619
566.854 13.9955 0.484305
555.657 14.1702 0.494177
548.197 14.339 0.511833
525.761 13.6437 0.502575
513.524 14.0111 0.533945
492.57 13.4874 0.525263
489.534 13.8977 0.548637
483.439 14.2657 0.577131
487.001 14.6446 0.59964
475.142 14.2447 0.592805
459.023 14.4638 0.619538
446.733 14.5384 0.63613
444.196 14.4833 0.643936
452.61 15.1584 0.690857
524.654 18.327 0.832627
429.461 14.7484 0.694488
427.415 15.1329 0.728766
411.361 14.7697 0.731675
392.67 14.6778 0.726641
402.404 15.1803 0.771187
396.367 15.3768 0.792011
391.458 15.3414 0.802953
374.803 15.3323 0.822701
371.475 15.3407 0.845422
362.848 15.1621 0.837162
360.053 15.485 0.880098
361.376 16.0961 0.922424
354.638 15.5948 0.9136
334.523 15.3684 0.923422
344.729 15.8622 0.97768
335.567 15.8432 0.96919
323.184 15.5088 0.977386
325.564 16.0628 1.02724
314.624 15.6498 1.01436
311.264 15.8939 1.04723
303.07 15.6062 1.04731
310.999 16.38 1.1116
306.132 16.2517 1.13257
304.067 16.3885 1.14902
302.475 16.7685 1.20259
288.277 16.1083 1.18383
283.758 16.0012 1.18778
284.749 16.4917 1.23043
279.335 16.6677 1.27334
281.02 16.5413 1.27909
267.737 16.0704 1.27045
257.265 15.7473 1.2525
260.256 16.588 1.35086
265.286 17.2105 1.40451
261.173 16.9211 1.41872
252.658 16.6367 1.40003
249.76 16.781 1.4446
243.22 16.8176 1.47001
247.93 17.1127 1.51289
239.232 17.0036 1.51927
239.107 16.6416 1.51222
238.54 16.9969 1.56949
230.677 16.8613 1.57991
226.232 16.8048 1.59278
226.801 17.1563 1.63117
219.949 17.1201 1.67517
218.387 17.0516 1.6879
211.911 16.909 1.69939
213.202 17.1765 1.74764
214.88 17.5566 1.80501
212.903 17.4452 1.81717
201.354 16.702 1.74144
208.773 17.4617 1.86313
209.264 17.8144 1.91821
203.963 17.3824 1.90182
202.342 18.0162 1.9963
198.044 17.7139 2.00938
199.051 17.8755 2.02807
193.395 17.5858 2.03625
190.601 17.6693 2.04634
194.285 18.2721 2.15789
191.039 18.0533 2.16529
184.476 17.9528 2.17372
190.536 18.3842 2.25551
185.339 18.2905 2.28774
183.574 18.7425 2.36938
181.899 18.4258 2.35011
178.457 18.3284 2.34674
174.1 18.1329 2.34674
173.982 18.6094 2.45553
171.231 18.5512 2.48522
171.296 18.9115 2.54574
169.684 18.6899 2.5485
167.261 18.5583 2.55928
172.232 19.4779 2.72488
164.024 18.4623 2.60637
163.143 18.9548 2.72594
159.723 18.7292 2.7111
160.523 18.7842 2.74749
158.888 19.1231 2.82326
156.796 18.8143 2.79863
150.933 17.9708 2.71611
155.775 19.2167 2.94168
154.393 19.7548 3.05529
152.468 19.0695 2.95286
154.955 19.6484 3.09575
152.03 19.4844 3.09818
147.999 19.4383 3.13584
144.701 19.3023 3.14837
146.536 19.6353 3.21149
146.175 19.8912 3.32855
146.936 19.6788 3.30782
143.84 19.6726 3.33577
142.747 20.0539 3.42859
141.654 20.0597 3.52014
215.368 33.363 5.75011
135.949 19.6396 3.48933
136.471 19.9298 3.57082
135.631 19.9091 3.59701
133.648 19.994 3.63188
131.178 20.0804 3.71946
133.601 19.8693 3.67827
132.074 20.2618 3.803
130.769 20.4253 3.87164
131.661 20.6098 3.92213
131.634 20.6763 3.98509
128.91 20.5325 4.00204
129.056 20.9471 4.116
127.225 20.87 4.14859
123.22 20.5681 4.13365
122.904 20.3691 4.12389
127.242 21.2972 4.34027
123.659 20.8823 4.32225
122.574 20.8392 4.34485
116.211 20.1902 4.25804
118.947 20.4559 4.35391
117.995 20.581 4.41367
115.993 20.574 4.47267
117.26 21.4021 4.6801
118.343 21.2922 4.68104
113.988 20.9823 4.67978
118.059 21.828 4.86619
115.316 21.4864 4.83803
113.72 22.0731 5.04239
113.407 21.3957 4.92728
115.617 22.1928 5.13603
108.949 21.3764 5.01271
112.413 21.7233 5.12923
108.865 21.9573 5.2345
107.395 21.5185 5.1807
106.726 21.3953 5.17476
105.42 21.4747 5.30018
108.032 21.9547 5.36893
105.978 21.7967 5.41277
106.633 22.3826 5.59919
106.315 22.9372 5.82321
104.626 22.1666 5.64498
102.555 21.7573 5.56439
103.164 22.3304 5.78001
104.336 22.5783 5.85422
101.522 22.4591 5.9278
103.401 22.8143 6.04673
103.658 23.1792 6.22382
99.3055 22.4445 6.07644
100.543 23.119 6.25034
99.0709 22.5616 6.2159
99.9674 22.9881 6.34431
98.5058 23.0829 6.44656
98.5941 23.0883 6.47847
97.9571 23.0906 6.54553
96.7093 23.2604 6.58457
94.0971 22.6774 6.53006
93.1629 22.3262 6.51388
95.8457 23.5192 6.85342
94.5968 23.3837 6.89895
91.4606 22.8049 6.71752
91.8742 23.058 6.83423
92.8969 23.3584 7.03598
90.8263 23.191 7.0584
90.0202 23.4003 7.13665
89.8814 23.3594 7.19147
91.15 23.8808 7.43569
91.4302 24.2122 7.55783
90.769 24.1412 7.58394
86.8873 23.4113 7.40267
85.8822 23.5022 7.4924
87.3665 24.0036 7.76933
86.5989 23.2952 7.54236
84.957 23.4402 7.66018
86.5084 24.0969 7.93913
83.9714 23.4118 7.79343
84.1559 23.8131 7.91254
84.8342 23.9103 8.02185
83.4054 24.3183 8.30735
83.5512 24.1311 8.23773
85.3586 25.2238 8.68341
83.3224 24.264 8.45222
83.2909 24.3831 8.50017
83.1089 24.6382 8.65648
79.5031 23.4293 8.26893
80.3091 24.3236 8.685
80.0646 24.3508 8.72124
81.1397 24.3675 8.77684
78.8381 24.0063 8.70967
79.2414 24.7414 9.11292
77.0222 24.1669 8.95515
78.3773 24.2728 8.93441
76.4545 24.1514 9.09896
76.9035 24.612 9.26531
77.5596 25.1717 9.59812
77.2058 25.0569 9.78271
131.33 45.0808 16.6251
77.2329 25.556 9.96975
76.3694 25.3851 9.93855
75.2385 25.2632 9.94726
75.8636 24.9037 9.79103
76.6742 25.9253 10.291
73.3832 24.9687 9.99425
73.5703 25.2919 10.1867
71.2567 24.8747 10.1045
75.0626 25.4836 10.3241
72.7901 25.3981 10.4902
73.0918 25.4068 10.4292
72.0217 25.1193 10.4003
71.3898 25.7891 10.7275
71.5714 25.3393 10.613
70.8611 25.5824 10.7748
69.8812 25.8078 10.9991
70.2699 25.6492 11.0344
69.6188 25.6137 11.04
69.0652 25.4211 11.0232
69.1441 26.2199 11.4378
68.1053 25.7327 11.4616
67.1842 25.4334 11.2671
67.3534 25.6801 11.3578
66.5217 25.3622 11.3351
67.2799 25.7714 11.5541
66.8677 25.582 11.6074
67.58 26.1675 11.8121
63.2715 25.1252 11.5872
65.2786 25.3691 11.6819
67.0584 26.4598 12.2355
63.5471 25.5624 12.0532
65.0428 26.4059 12.3695
63.7635 25.4678 12.0184
62.8051 25.4015 11.9436
62.2836 25.6506 12.3768
64.8801 26.5994 12.7067
62.4156 26.0467 12.634
64.77 26.8119 12.9805
63.4651 26.8143 13.1968
63.6894 26.8795 13.1623
63.0327 26.7887 13.269
62.858 26.9811 13.478
62.1792 26.3807 13.1855
61.4434 26.7288 13.435
60.535 26.2275 13.3466
63.382 27.2378 13.7019
58.6519 26.0329 13.4123
58.2249 26.0373 13.4653
59.8388 26.359 13.6257
59.6554 27.0272 14.0801
58.1948 26.6309 13.9412
57.993 26.1941 13.794
59.9713 27.0883 14.3683
59.1913 27.681 14.746
57.411 26.1555 13.999
56.2647 26.3271 14.3513
57.9159 26.5355 14.1555
58.0235 27.4175 14.9395
56.3535 26.1357 14.3753
55.0822 26.0303 14.2927
55.7867 27.0256 15.123
54.9734 26.1868 14.6111
55.5447 26.3572 14.5395
55.7545 27.4869 15.5029
54.9615 26.8799 15.3575
56.1687 27.4534 15.4312
54.0573 26.3672 15.1068
54.4888 27.1163 15.6154
54.5373 27.2886 15.7957
54.0487 26.8298 15.6093
54.5772 27.3886 15.9794
54.4385 27.176 15.8367
53.872 27.8601 16.5642
51.9032 26.9189 16.0958
52.737 26.8022 15.9415
51.9552 26.8181 16.105
52.4034 27.1198 16.3387
51.9544 26.9298 16.4028
51.7103 26.8704 16.2887
51.6466 26.7825 16.4206
50.6801 26.8809 16.6633
51.3132 27.1152 16.7083
50.648 26.9723 16.7822
50.4445 27.4242 17.1082
49.1039 26.8571 16.9491
49.5003 27.11 17.1983
50.7304 27.6057 17.5002
50.2942 27.5551 17.4505
51.038 28.1387 18.2083
48.8931 26.7465 17.1784
49.8339 27.4526 17.655
49.3656 27.8845 18.4077
48.8272 27.1808 17.8658
48.0802 27.1138 18.0538
48.9768 28.2162 20.0823
88.1863 52.7363 32.085
48.3726 27.8997 18.8987
46.9132 27.4122 18.5536
46.0206 26.9139 18.1815
46.8078 27.5255 18.6241
46.1432 27.3508 18.7076
47.2137 27.6496 18.56
46.4301 27.555 19.0636
46.5805 27.6502 19.0715
46.0868 27.6592 19.1625
45.9242 27.1912 19.0122
46.3362 28.194 19.6783
45.2596 27.0707 18.7728
45.3398 27.7176 19.8268
45.9381 28.0878 19.8243
45.3197 27.8127 19.814
45.6147 28.2819 20.2063
43.667 27.376 19.7129
45.0225 28.2841 20.5659
43.9834 27.1427 19.7421
44.3011 28.299 20.5329
44.1495 28.3684 20.9025
44.5296 27.8509 20.4395
42.0352 26.9696 19.8141
43.4011 27.7464 20.6944
42.3776 27.0135 20.1379
42.4212 27.7785 20.963
43.6875 28.2929 21.268
42.7694 28.1177 21.3076
42.557 27.8573 21.0702
42.4418 28.5828 21.8938
42.3883 28.104 21.4613
42.5112 28.3381 21.783
40.9065 27.4655 21.3078
40.9361 27.4722 21.5267
41.2537 27.7212 21.6119
41.4338 27.7855 21.5748
41.0622 27.8914 21.9212
40.7082 28.1732 22.6042
41.0026 27.957 22.2089
40.3508 27.7115 21.9517
40.4285 27.8506 22.3162
40.757 28.3655 22.8015
40.4465 28.3882 23.0137
38.5369 26.8203 21.9548
40.9157 28.2229 22.7682
38.9349 27.8221 22.7182
39.3567 27.9436 22.8737
38.8495 27.9715 23.2256
39.5387 28.2276 23.2952
38.3717 27.8686 23.48
39.7237 28.692 23.9979
39.2991 27.8272 23.3042
38.8939 28.1864 23.7551
39.1211 28.5863 24.1428
38.421 27.9545 23.8821
37.7618 27.8865 23.8696
37.7059 27.8815 23.9638
38.1962 28.5494 24.3713
38.5351 28.6825 24.7561
37.5026 28.544 25.0096
38.0017 28.3767 24.8504
38.1792 29.009 25.3504
37.1919 27.7927 24.28
37.365 28.395 24.8162
36.6673 28.356 25.2802
37.1863 28.444 24.9946
35.6804 27.6755 24.778
35.9854 27.9806 25.6311
36.2554 27.9609 25.037
36.2824 28.5267 25.9837
36.9481 28.9458 25.9502
34.8585 27.1423 24.8721
36.3567 28.9647 26.4419
35.2654 28.3081 26.3232
35.739 28.7076 26.1709
35.4288 28.5934 26.7679
35.6816 28.7924 26.6868
35.2829 28.7759 26.9576
34.8046 28.138 26.2992
34.66 28.4395 26.8264
35.4321 28.7411 27.0786
34.129 28.5871 27.3591
34.5262 28.379 27.0912
34.1802 28.211 27.1085
35.3781 29.2662 27.8961
33.9492 28.2338 27.1779
34.5365 28.82 27.6136
34.1064 28.8659 28.2221
33.5677 28.2552 27.7634
33.5587 28.1924 27.5892
32.6328 28.0191 27.6928
33.4599 28.3707 27.9406
33.4256 28.7832 28.6943
33.2613 28.815 29.133
33.2381 29.186 32.6218
59.7187 52.8615 46.7113
32.0071 28.6436 29.7776
33.0274 28.601 28.8836
33.2787 28.9705 29.3443
32.4129 28.6174 29.0103
32.7941 29.0528 29.9068
31.6167 27.8555 28.5522
31.2278 28.1515 29.1457
31.2595 27.747 28.4696
31.9519 28.8879 29.8875
32.2524 28.8969 29.6096
30.8825 28.2463 29.7448
31.969 29.7676 31.3706
31.0888 28.4931 30.1145
31.5678 28.5039 30.0804
31.3936 28.9426 30.4137
31.6114 29.1631 30.7624
30.7319 28.0589 30.0902
30.1203 28.1907 30.4075
31.7027 28.8747 30.7639
30.484 28.1773 30.1166
30.0793 28.2742 30.7565
30.3169 28.6342 30.9876
30.0044 28.4775 30.9969
29.5512 28.2893 30.7963
29.7873 28.2127 31.1669
30.2137 28.7921 31.596
29.979 28.7161 32.0647
30.5519 29.1713 31.9081
29.3556 28.9084 32.5048
30.6973 29.4586 32.5036
29.6418 29.1049 32.8131
30.3695 29.4038 33.3404
29.3119 28.3751 31.9419
29.8194 28.7944 32.3704
28.2461 28.1879 32.3311
29.4904 28.6108 32.3197
28.3437 28.2456 32.6986
28.9907 28.4974 32.7345
28.8227 28.7551 33.0359
28.6549 28.5663 33.052
29.0535 29.215 33.719
28.8607 28.7842 33.2439
28.1763 28.2722 33.0564
29.0045 29.2652 34.0864
28.63 28.7168 33.8869
28.6019 29.0777 34.2095
27.5652 28.475 33.8877
27.8663 28.8883 33.9945
27.4535 28.7798 34.7441
27.3346 27.6225 32.965
27.4976 28.7186 34.3991
27.8761 29.5501 35.5669
27.1278 28.039 34.0348
26.9335 28.119 34.2841
27.8576 29.2187 35.1073
26.6812 28.166 34.9282
27.6635 28.848 34.7743
26.5788 28.6152 35.2498
27.0852 29.0561 35.8239
27.474 29.1933 36.0553
27.2544 28.8792 36.0571
27.4268 28.855 35.7381
26.1092 28.1725 35.4227
25.8882 28.4306 35.4036
26.0885 28.9171 36.3038
26.3398 28.7221 36.4879
27.0983 29.6103 37.2362
26.7827 29.3762 37.027
25.9666 28.4567 35.6568
26.0789 28.8288 36.9002
25.442 28.3431 36.6765
25.6045 28.9267 37.2061
25.9543 29.1999 37.8283
25.9888 29.2572 37.9653
25.6585 28.5622 37.299
26.1648 28.9953 37.6585
24.7818 28.2232 36.8242
25.9441 29.2688 38.2237
26.4247 29.5412 38.647
25.1157 28.7601 38.2083
25.4549 28.7007 37.4643
25.1219 28.6448 37.8225
24.5329 28.0494 37.1123
24.4519 28.5602 38.7017
24.9129 28.7845 38.1921
24.5746 28.5442 38.7252
24.9449 29.2813 39.5305
24.4507 28.2359 37.8572
24.2422 28.8983 39.6754
24.8852 29.2511 39.764
24.79 29.4315 39.8005
24.8694 28.8323 39.2157
23.8989 28.1405 38.4049
24.2617 29.7923 42.0307
24.3866 31.3605 51.2443
44.4901 52.627 61.0759
23.7643 29.1827 40.693
23.764 29.0214 41.4588
23.3412 28.027 39.15
23.368 28.7539 40.5255
23.4564 27.792 38.5368
23.5995 29.183 41.1227
23.6602 28.8526 40.9683
22.7235 27.9737 40.3728
23.6611 28.3436 40.4822
23.3852 28.2316 39.9082
22.7628 27.5955 38.8433
22.585 28.3419 40.7833
23.0086 28.2569 40.5462
22.9108 28.3711 41.0007
22.5738 28.3022 40.4879
22.6051 28.4707 41.532
22.9959 28.6932 42.054
22.5527 28.0002 40.3121
22.7764 28.4664 41.8617
22.4925 28.9924 42.2666
22.2324 28.3659 41.5107
21.8421 27.5888 40.6541
22.0675 28.6226 42.8641
22.3031 28.4774 42.1978
21.9217 28.1828 41.8823
21.8198 27.4208 40.9329
22.1856 28.5775 42.3958
21.9804 28.3441 42.4723
22.7254 29.267 43.5585
20.9943 27.3912 41.3973
21.8158 28.3162 42.9262
21.3681 27.9497 42.0647
20.6243 27.3776 41.9071
21.1897 27.7232 42.5415
21.3834 27.8796 42.4482
21.1336 27.4542 42.0357
21.0842 27.9905 42.9555
20.6752 27.6758 43.0985
20.86 27.9509 43.3118
21.0547 27.7132 43.0021
21.1661 27.8286 43.0882
20.938 28.3533 44.2299
20.928 28.0733 44.4691
20.9064 27.9781 43.5975
20.3466 27.4255 43.0664
20.4196 27.476 43.7561
20.5997 27.4091 42.7419
20.0212 27.1767 43.2313
19.6794 27.3209 43.7476
20.3649 27.9617 43.9032
19.5791 27.1217 43.9769
20.1731 27.4712 43.1256
19.7584 27.2169 43.7402
19.7367 27.275 43.8064
19.2748 27.2664 45.1952
20.2602 27.6161 44.0444
19.241 26.677 43.6638
19.7894 27.7816 45.1409
19.7674 27.5799 44.5761
18.9486 26.4784 43.6149
19.455 27.2246 44.2517
19.0017 26.6306 43.9399
18.9678 26.6041 43.8732
19.3336 27.5307 45.4164
19.0643 26.7064 44.4521
18.9916 27.3394 45.8558
19.3658 26.8442 44.3951
18.6487 26.7725 44.742
18.7319 26.855 44.7319
18.734 27.0709 45.3894
18.8735 27.072 45.1566
18.7512 27.5908 47.094
18.5711 26.1791 43.9539
18.0744 26.7512 45.7615
18.9577 27.3053 45.6531
18.5495 26.9803 46.2029
18.4321 26.8789 46.1756
18.5472 27.075 46.6102
18.0928 26.4567 45.1568
17.8627 26.1486 45.3716
18.1826 27.2473 46.8115
17.9519 26.8063 46.7322
18.3482 26.6311 45.8816
18.0059 27.2298 47.6272
17.8145 26.4596 45.8856
17.7389 26.9521 47.2535
18.0004 27.3305 47.7306
17.9252 27.0199 47.7997
17.9035 26.3315 46.0955
17.7686 26.935 47.0462
17.0441 26.0205 46.8116
17.6003 26.2515 46.568
17.3887 26.8402 48.4683
17.9545 27.1038 49.1578
17.3047 27.5969 62.242
31.714 48.7822 70.3218
17.6966 27.6998 50.1907
16.8934 26.1094 47.274
17.4041 26.9369 48.165
16.95 26.1632 47.1871
17.1444 26.1772 47.3975
17.0353 26.6634 48.4971
16.7801 26.2297 48.5293
17.0865 26.2485 47.6278
16.9415 26.1096 47.6442
16.4665 25.3967 47.1497
16.7934 27.013 50.5247
17.1705 26.5711 48.8508
16.6945 26.1604 48.6908
17.0036 26.1637 47.6925
16.2704 25.7942 48.5649
17.1363 26.58 48.673
16.9624 27.1798 50.3727
16.6398 26.8708 50.171
16.6297 26.6321 49.841
16.4826 26.2694 48.9851
15.8445 25.4975 49.0283
16.3912 26.3351 49.902
16.5453 26.7963 50.1689
16.0441 26.0548 49.7222
15.7774 25.3441 48.9579
16.3335 26.3391 50.1898
16.2118 26.2807 50.5795
16.3163 26.1345 50.3747
16.2182 26.2708 50.005
16.0668 25.8367 49.5155
15.9136 25.648 49.4012
15.7316 25.8652 50.2991
16.1635 26.6786 51.8042
16.3397 26.5312 50.7844
15.7331 26.1663 50.6436
15.7042 26.4042 52.2361
15.8377 26.0566 50.5702
15.6252 25.994 52.0932
16.0281 26.4256 51.2416
15.727 26.1938 51.3332
15.7582 26.1719 51.2059
15.8829 26.4108 51.6632
15.7448 26.4015 51.6101
15.0598 25.9127 50.6966
15.2045 25.2825 50.7316
15.3237 26.2161 52.8497
15.6101 26.3138 51.849
15.1034 25.4865 51.1491
15.6146 26.6554 53.1464
15.509 26.4694 53.3938
15.2418 26.42 53.5773
15.2297 25.788 52.1792
15.2501 26.7486 53.6528
15.0337 26.1336 53.9875
15.4919 26.4254 52.7816
14.9936 25.9997 54.2156
15.2038 26.1144 53.9009
15.4539 26.5404 53.6276
15.2085 26.3529 53.2028
15.2415 26.4375 53.8767
14.936 26.2695 54.3258
14.9021 26.6543 54.6461
14.7462 25.606 52.5788
14.7338 26.7575 54.926
15.1401 26.9636 57.0683
15.2956 26.9533 55.6568
14.684 25.7327 53.6089
14.4672 25.5415 53.7591
15.0133 26.7639 54.088
14.4857 26.0555 55.0533
14.5825 26.0839 54.6406
14.735 26.0904 54.5804
14.3673 25.8932 55.4596
14.4414 25.6549 54.1865
14.6948 26.515 55.5379
14.5353 25.999 55.1264
14.38 26.1504 56.7337
14.7608 26.646 56.1595
14.2423 25.7024 54.7184
13.7897 25.6915 55.8784
14.294 25.7488 54.4286
13.7947 25.2693 55.338
14.1291 25.4978 55.2822
14.039 24.9532 53.7191
14.1167 26.0769 55.6159
13.9137 25.8098 56.5428
13.8934 25.254 54.2052
13.5068 25.4611 55.4969
13.9608 26.0291 56.745
14.0005 25.9454 57.3032
14.1135 26.2205 57.3013
14.11 25.8824 57.5258
13.6458 24.5201 53.9121
13.5698 25.4372 57.4098
13.5755 28.2975 83.0035
25.9405 46.4318 76.6459
13.8913 26.6552 58.2041
13.5658 25.7536 56.6715
13.0462 24.1521 55.3069
13.2715 24.492 54.7164
13.17 24.7744 55.5296
13.2924 25.7098 56.8117
13.5614 25.5143 55.9977
12.9307 24.5138 55.4399
13.2875 25.6243 57.0813
13.0367 24.9453 56.3493
13.245 25.9833 57.6903
12.99 24.9631 56.5241
12.7643 24.666 56.6353
13.109 25.3397 57.9205
13.3155 25.2636 57.0867
13.0198 25.3777 58.4567
13.1148 24.6623 56.8231
13.1531 25.3687 57.1838
12.2699 23.7643 55.1256
13.1982 25.6965 58.2334
12.6652 24.5844 57.1102
12.7199 24.1035 54.9263
12.3517 24.443 56.3517
12.681 24.9138 58.0766
12.8305 24.1114 55.987
12.6084 23.9922 55.8796
12.5503 24.6785 56.6511
12.472 23.8613 54.9458
12.1604 23.9758 56.879
12.5811 24.7011 56.8779
12.0723 24.1931 56.5687
12.1973 24.7599 58.4148
12.4082 24.651 57.1475
11.8326 24.546 59.8773
12.4488 24.0613 56.8154
12.3188 24.5601 56.7741
12.1502 24.1012 57.5051
12.1061 24.6832 58.6568
12.1094 23.8864 57.3544
12.2938 24.5829 58.2203
12.0901 24.2201 57.028
11.5846 23.6247 57.7853
11.992 24.2019 58.1239
12.2532 24.406 59.097
12.2448 24.4661 57.9709
12.2299 24.8426 60.018
12.0963 23.687 56.7672
12.0174 24.0975 58.7371
12.1556 24.4845 56.8482
11.7164 23.7419 57.2574
11.7783 23.8787 58.9982
11.6055 23.944 58.3543
11.8113 24.1823 58.4496
11.5751 23.5674 59.0089
11.9802 24.6074 59.8433
11.921 24.3262 59.9392
12.0395 24.8669 60.2123
11.723 24.1118 60.073
12.2906 24.6913 59.3595
11.5619 24.3605 60.8145
11.7336 24.1257 59.6323
11.698 23.9375 58.6366
11.3661 23.7531 57.5684
11.0886 23.4082 59.8588
11.7694 24.0857 59.2102
11.3947 24.0308 59.9881
11.7217 24.7851 61.0952
11.4716 23.8271 57.8391
10.8675 23.4164 59.316
11.2239 24.0205 60.0416
11.2981 24.009 61.7675
11.5848 23.8208 60.4034
11.3579 23.9981 60.4197
11.1929 23.6003 59.8235
11.3842 24.5529 61.1073
10.8753 23.1688 61.1705
11.4873 23.7628 60.5765
11.38 23.4192 60.1331
11.223 23.4109 58.2521
11.0794 23.8255 60.5824
11.0065 23.4141 60.7922
11.4028 23.8743 59.969
11.078 24.0063 61.813
11.024 23.7991 59.7835
10.7764 23.661 61.5055
10.9359 23.5211 61.6669
11.2413 23.4913 59.7828
10.959 23.574 59.2422
10.71 23.4364 61.2532
11.0884 24.0188 61.4871
10.7825 23.5137 61.9986
10.876 23.4529 61.0329
10.8916 24.1462 63.0711
11.0144 25.0017 66.2124
11.0437 27.3541 101.49
20.543 41.9762 77.2461
10.5455 24.24 63.7405
10.8482 24.2373 63.5758
10.9954 24.1622 62.9613
10.5117 23.5078 63.3957
10.9488 23.7153 61.932
10.6234 22.7802 60.5096
10.6554 23.494 61.6877
10.7457 23.6913 63.3561
11.0321 23.6271 61.2976
10.5835 23.764 62.7548
10.6992 23.6533 63.2742
10.5132 23.5167 62.4776
10.3969 22.9614 60.7813
10.1757 23.1068 63.6442
10.5346 22.6708 60.7456
10.5706 23.3381 60.4304
10.1507 22.7507 60.781
10.1866 23.4239 63.3415
10.3113 22.7842 61.3462
10.2909 22.8977 61.7144
10.1228 22.5549 61.5066
10.1658 22.8001 62.8116
10.1384 22.1769 60.6848
10.1233 22.5683 62.2813
10.3733 22.632 60.9318
10.1076 22.8148 61.0049
9.88444 22.8065 62.5457
10.2408 23.1323 63.2152
10.0614 22.481 62.0312
9.89392 22.1456 59.592
9.6758 22.1002 61.7328
10.0033 22.4415 61.6314
10.1811 22.9657 61.2371
9.79997 22.1534 61.742
9.73564 22.392 62.3458
9.89512 22.3453 60.9777
9.65073 21.9134 61.2272
9.69103 22.6736 62.2631
9.88678 22.5599 62.838
9.70881 22.3824 62.4316
9.58068 21.6071 60.9127
9.57081 22.3069 62.0648
9.64109 22.044 62.4335
9.69294 21.599 60.0929
9.54122 21.9978 61.3249
9.51201 22.4849 62.3376
9.61006 22.7895 63.5882
9.61901 22.2674 62.4114
9.52404 21.7885 61.2102
9.32498 22.0392 62.2377
9.84814 22.7028 64.054
9.72949 22.3377 61.9858
9.54874 22.9852 65.2269
9.39474 21.5188 62.7826
9.43421 21.8187 62.1363
9.54327 22.0917 62.6285
9.49667 22.4296 63.4114
9.26813 21.7587 62.521
9.43218 22.6635 65.3331
9.65641 21.9208 62.6952
9.38814 22.1251 63.2181
9.35824 21.785 61.5699
9.23228 22.1484 64.2132
9.20822 21.9079 62.3525
9.09519 21.1543 61.7195
9.13688 21.4257 62.7343
9.52604 22.3182 62.0346
8.726 20.8545 61.3496
9.03307 21.5367 63.7067
9.31052 21.9372 62.2728
9.24996 22.2128 64.9315
9.21474 21.9628 63.272
9.22812 22.3679 65.2526
9.32767 21.9241 63.1675
8.96865 21.5992 63.867
9.114 21.7504 63.9552
9.28323 22.0327 63.8034
9.0088 21.8886 64.7359
9.11953 21.8603 64.6715
9.12354 21.1949 62.2685
9.16468 21.6251 61.5307
8.61534 21.0477 62.2089
8.82011 21.4568 63.396
8.86428 21.267 64.1858
9.01711 21.6928 63.2353
8.9183 21.6079 63.7351
9.02226 22.3653 65.0044
8.73331 21.4844 63.9096
8.81877 21.8212 64.9919
8.92079 21.2255 64.6622
8.8499 21.5622 64.8406
8.86739 21.2177 62.7937
8.7229 21.4953 62.1176
8.20986 21.7191 68.1752
8.87609 26.0556 115.853
16.8282 36.9379 74.2578
8.77631 22.8758 67.2682
8.58368 21.7565 65.332
8.72222 21.06 64.2297
8.71117 21.7398 64.6189
8.71886 21.2298 63.4497
8.64466 21.5633 65.7817
8.67776 21.0641 63.8131
8.46976 20.9425 63.0249
8.5934 21.7753 64.5015
8.47945 21.2904 63.8824
8.34253 20.8315 64.4299
8.40575 20.8701 63.5084
8.5045 21.4002 64.5637
8.3271 21.1974 64.5816
8.40352 20.8191 64.4276
8.38016 20.9941 65.5062
8.60198 21.0215 64.3338
8.28831 21.2528 64.0938
8.38081 20.8865 63
8.17969 20.6652 63.0064
8.13416 20.6674 64.6069
8.2508 21.0752 66.7483
8.57268 21.5305 64.9118
8.22614 20.4097 63.2937
8.32314 21.048 64.6516
8.26329 20.6094 63.66
8.14829 20.4715 64.2732
8.36506 21.6153 66.9849
8.47218 21.5154 65.4327
8.17982 20.244 62.7166
7.95102 20.5379 65.0829
8.43306 21.6241 65.5628
8.16524 20.6563 66.5959
8.436 21.6048 66.3066
8.25698 20.7018 64.8595
8.2824 21.2181 64.8754
8.0676 20.4468 65.058
8.17589 20.7366 65.6276
8.38211 20.876 65.8173
8.19492 21.2519 65.9377
8.25739 20.8088 65.5964
8.23026 21.2949 65.3322
7.89567 19.8933 62.5572
7.82934 20.6298 66.7984
8.25813 20.9528 65.2317
7.97683 20.38 64.2147
7.85948 20.2205 65.8825
8.07563 20.4537 63.9055
7.86924 20.2775 65.403
8.01341 20.8025 64.6876
7.93384 20.4592 65.6248
8.01908 20.3938 62.9622
7.71208 19.7991 65.3223
8.00918 21.0343 65.5129
7.85148 21.0278 66.4867
7.82849 20.0449 65.4804
7.94907 20.2388 65.0096
7.82649 20.3998 65.0485
7.71604 20.3193 65.9253
7.90162 20.0468 64.362
7.75543 20.3112 65.4651
7.88528 20.4714 65.0681
7.79186 20.1477 64.6383
7.60309 20.3278 65.144
7.62518 19.959 65.5398
7.80076 20.3254 64.8217
7.5513 19.6343 64.8583
7.71426 20.512 66.2693
7.70172 20.1108 65.563
7.65609 19.7823 64.024
7.72723 20.8993 66.836
7.73581 19.9864 65.709
7.73363 20.2361 67.5254
7.89016 20.8848 65.324
7.45151 20.021 66.7204
7.6052 19.9976 64.797
7.61464 20.2009 65.2808
7.52573 19.9249 64.3971
7.45914 20.0668 66.1314
7.48719 20.1859 65.7553
7.50739 19.5552 65.3687
7.46015 20.0354 66.3183
7.69217 20.0364 65.117
7.42401 19.8464 65.7626
7.61768 20.4669 67.9591
7.53569 19.6463 66.0225
7.55315 20.2901 67.0155
7.54345 19.8884 65.1374
7.40311 19.9376 66.8005
7.5861 20.5068 68.7383
7.67187 19.8633 65.8572
7.54211 20.5839 66.2838
7.26184 19.4608 65.2492
7.28292 20.4452 69.2428
7.78385 26.158 133.053
14.7934 35.1155 74.6711
7.41972 21.0338 66.3801
7.35543 19.9627 65.851
7.32107 20.5204 67.0953
7.22671 20.1297 66.8751
7.2335 20.3194 67.8199
7.47808 20.3218 67.7476
7.28941 19.2407 65.8005
7.37794 19.8669 65.389
7.16031 19.5115 67.4953
7.39856 20.0284 66.6577
7.15773 19.7313 66.8484
7.38478 19.8774 65.7927
7.13463 19.6954 67.2996
7.32802 20.0777 68.2562
7.26251 19.5753 67.4269
7.26229 19.8094 65.7632
7.15478 19.7184 67.9919
7.29344 19.5016 64.9823
7.08994 19.6849 67.7414
7.28907 19.756 66.5452
7.17129 19.827 68.1152
7.10092 19.3293 66.8536
7.22553 19.693 66.2864
7.08699 19.447 65.4953
7.05808 19.7267 67.7662
7.10378 19.3592 65.8275
7.06199 19.6208 67.7506
7.14782 19.6209 67.0169
7.18701 19.5134 65.1663
7.00272 20.127 68.6747
7.14448 19.6556 66.8997
6.92982 19.257 67.4782
7.10661 19.305 67.2731
7.22576 19.3379 66.089
6.89374 18.8578 66.7012
6.91953 19.4053 66.8238
7.08638 19.4035 66.6286
7.02267 19.4505 67.3031
7.09504 19.3747 66.6397
7.00407 19.4184 65.464
6.81945 18.9095 66.6673
6.89894 18.9259 67.0562
7.06313 19.1865 65.3642
6.8304 19.044 66.6186
6.88636 18.6408 65.0832
6.81561 18.9822 65.4732
6.79351 19.162 66.1379
6.78042 18.9753 66.0227
6.86125 19.2519 68.11
6.99318 19.1059 66.3322
6.87549 19.6888 68.5462
6.97042 19.782 67.9784
6.92279 19.042 67.5396
6.98957 19.557 67.8958
6.88568 19.3096 66.9434
6.88501 19.5441 68.0646
6.86795 19.1631 66.731
6.913 19.6939 67.9182
6.65708 19.3383 68.3753
6.98784 19.2645 68.4456
6.9321 19.1352 67.3478
6.87945 19.4542 68.1972
6.79929 19.1026 69.0969
6.91069 19.5642 67.5636
6.78221 19.0349 66.3991
6.6984 18.5941 67.1876
6.75468 18.6775 66.0869
6.66667 19.2193 66.6716
6.52851 18.6255 67.2508
6.70094 18.5693 67.0386
6.78739 19.6381 68.1878
6.65612 18.821 68.2374
6.72862 19.1722 67.1173
6.64136 18.9861 66.9058
6.64502 19.1868 69.3443
6.92598 19.0358 66.8855
6.71585 19.1256 67.1634
6.71511 18.7708 67.356
6.56069 18.9903 66.7563
6.57034 19.1894 67.6137
6.71039 18.9418 69.2724
6.66629 19.1016 66.5805
6.52035 18.8778 66.5385
6.55225 19.0094 68.6346
6.59767 18.0667 67.8575
6.80169 19.2826 67.9888
6.56002 18.8902 68.8331
6.7218 19.9809 70.6486
6.69135 19.0867 68.7679
6.68689 18.8342 68.3154
6.67227 19.5412 69.5758
6.63921 19.5351 70.367
6.75995 20.1958 72.1372
6.88894 20.5222 75.1301
7.03374 25.6173 145.073
13.2888 32.9012 75.9849
6.74801 20.1094 71.2534
6.803 19.5981 68.9339
6.64354 19.1979 68.5516
6.60176 19.5416 70.5956
6.71953 18.8567 67.2601
6.4557 18.4033 67.042
6.42644 18.6668 67.3632
6.39276 18.8268 68.6712
6.58708 18.9811 67.8908
6.55724 19.267 68.1516
6.38775 18.7674 70.2645
6.59567 18.9278 66.8183
6.37132 18.6149 68.5759
6.49151 18.3082 66.2851
6.35524 18.4758 66.0948
6.39391 18.2591 67.8279
6.41249 18.5493 68.5423
6.48864 18.9316 67.5565
6.21238 18.5305 68.932
6.46744 18.1476 66.5902
6.35436 18.5848 66.5655
6.27112 18.4867 68.062
6.41518 18.6257 66.7091
6.27759 18.0576 66.3551
6.16597 18.142 66.4845
6.19987 18.3049 66.7572
6.21949 18.3171 70.0102
6.56524 18.3852 65.044
6.22552 18.5888 69.0328
6.35544 18.2565 66.4743
6.25692 18.6596 69.6258
6.37363 18.8162 68.4124
6.30554 18.3444 68.7677
6.22854 17.8574 65.4521
6.09658 18.2496 68.9799
6.48275 18.2992 66.8296
6.26088 18.4408 69.9269
6.4125 18.8524 67.8951
6.25962 18.1357 68.5839
6.37962 18.464 66.537
6.14899 18.6088 70.9556
6.48587 18.722 68.2895
6.22182 17.7557 66.6908
6.12527 17.7337 65.8604
6.09059 18.0061 68.2958
6.46657 18.3643 67.4676
6.03998 17.7134 65.2241
6.08677 18.0253 66.9796
6.15019 17.5942 67.0369
6.06069 18.3441 67.4664
6.17307 18.5864 68.3084
6.22079 17.7051 65.9336
6.02911 17.5907 67.8854
6.20213 18.303 68.3977
6.04585 17.3895 65.6522
5.94019 18.2708 67.1903
6.07318 18.4335 68.2082
6.13829 17.9444 67.4595
6.06906 17.9938 68.306
6.0941 18.1907 67.1257
5.96652 18.0215 68.5668
6.00764 18.3765 66.8819
6.01775 18.0752 67.1517
6.09895 18.1246 67.6889
5.96776 17.5348 68.4103
6.10358 17.9361 69.3677
6.29525 18.6286 68.0029
6.06561 17.5244 66.343
5.97633 18.0047 67.7205
6.13151 18.2465 68.9044
6.13381 18.0043 68.7984
6.07487 18.0406 68.1533
6.20669 18.2018 69.5784
6.14179 18.1075 66.7053
5.95269 17.8151 67.6529
6.01256 17.7675 67.6071
5.89287 17.9535 69.0702
6.02734 18.0917 68.3575
5.97749 18.085 69.7858
6.13031 17.7923 65.862
5.94053 17.9699 68.2881
5.99328 17.9191 67.0308
5.91743 17.839 68.6693
6.02398 17.7504 67.8664
5.96919 18.6528 71.4697
6.03762 17.9845 65.8043
5.78849 16.8974 66.449
6.00648 17.6832 68.1512
5.98004 17.85 67.5629
5.96157 18.2125 69.0284
5.95084 17.8931 67.951
5.89808 17.6795 68.9661
6.09358 18.7295 69.076
5.93812 18.9374 68.2243
5.8159 24.2097 150.566
11.9108 29.5963 68.2503
5.82935 18.7119 68.0353
5.92305 18.2757 67.8485
5.95503 18.0599 68.7297
5.92845 18.0651 67.7615
5.87763 17.336 68.631
6.06654 18.1296 68.1925
5.82896 17.3753 66.4717
5.72818 17.4355 66.897
5.72903 16.8274 66.4813
5.80606 17.5602 66.6556
5.8935 17.9454 69.7907
6.05839 17.9084 67.3989
5.8123 17.418 67.7285
5.84547 17.5862 65.5911
5.69182 17.5955 68.0553
5.85236 17.8053 68.1305
5.75234 17.3325 67.0297
5.85616 17.1072 65.7421
5.65335 17.6588 68.752
5.8882 17.3481 66.7348
5.76849 17.792 68.3508
5.76926 17.8252 66.8463
5.73279 17.1894 67.1101
5.74561 16.8259 69.2901
5.97795 18.0375 67.4705
5.78704 17.752 67.2303
5.79302 17.3214 67.0753
5.83983 18.2672 71.9348
6.03875 17.6765 67.0469
5.72418 17.5016 68.671
5.80627 17.6271 67.9417
5.72202 17.3719 68.849
5.91916 18.1843 66.9074
5.69653 17.363 69.0611
5.78845 17.809 67.5244
5.67644 16.9729 67.9091
5.68219 17.5215 67.6664
5.73894 17.755 67.9528
5.65002 17.4896 70.4924
5.99359 17.5145 67.6414
5.72495 17.4431 66.5225
5.64465 17.7299 68.3479
5.78313 16.9538 65.9528
5.60847 16.9718 65.8536
5.49737 16.9182 67.5111
5.79164 17.856 69.0379
5.80949 17.3083 66.2118
5.58681 17.141 67.1881
5.54574 17.2706 67.2852
5.60292 17.4537 69.7733
5.67966 17.3222 65.579
5.58698 17.2425 68.878
5.77752 17.432 66.0589
5.53089 17.3269 66.0512
5.55462 17.1276 67.1568
5.6303 17.4069 67.8357
5.706 17.4651 68.2074
5.77899 16.8558 66.5561
5.68298 17.4539 68.7388
5.7489 17.7435 69.7501
5.86271 17.6569 67.9143
5.65418 17.1047 67.2457
5.62197 17.2237 67.4487
5.67041 17.1872 68.1952
5.70065 18.0875 67.2067
5.61184 16.8655 68.3826
5.72987 16.925 65.5953
5.61685 17.23 66.6181
5.65877 17.1624 66.9603
5.59408 16.9036 67.1421
5.6546 17.0359 66.378
5.55395 17.3694 66.7953
5.49215 16.8487 67.8028
5.68315 16.958 66.9523
5.61496 17.2051 68.1112
5.64974 17.8324 68.2583
5.73179 17.0972 68.24
5.69215 17.0994 66.9044
5.54622 17.3682 68.0185
5.59437 16.8813 66.1276
5.5431 16.8554 66.3682
5.64629 17.3092 66.7692
5.51896 17.2814 69.3424
5.84144 17.2915 68.5856
5.68803 17.3453 67.7843
5.64388 17.2416 66.1997
5.46753 16.9363 68.3987
5.60934 17.0409 67.309
5.5695 16.8672 66.175
5.49515 17.3959 67.4771
5.56469 17.1577 68.5634
5.70717 17.4592 68.2148
5.60186 17.8957 69.1046
5.62413 17.7229 67.3184
5.49542 24.8975 158.215
11.2819 27.4565 66.7816
5.53365 17.888 68.4673
5.67417 17.7895 67.0851
5.41018 17.7568 67.536
5.45727 17.0008 66.9044
5.50689 16.84 67.6778
5.55213 17.0727 65.5412
5.43505 16.8934 67.7136
5.55086 16.7931 65.2753
5.39345 16.4615 66.2798
5.43007 16.7957 66.3898
5.44466 17.2774 68.8822
5.66764 16.9983 67.0467
5.50112 17.4804 67.0975
5.45112 16.6825 65.1715
5.39177 16.8867 67.3479
5.45224 16.7474 66.1875
5.45735 16.8973 67.5387
5.49203 16.752 65.0052
5.3281 16.8449 66.7247
5.33935 16.6858 67.352
5.52486 16.6882 65.766
5.45094 16.4695 65.7242
5.31358 16.7718 66.0464
5.45968 16.6832 65.1938
5.32586 16.905 67.0214
5.35659 16.9255 67.898
5.47275 16.9573 68.4599
5.62473 17.1514 69.0483
5.55916 17.1225 67.5551
5.42502 17.1384 66.466
5.46239 16.8962 68.8043
5.50682 17.356 68.505
5.47337 17.3932 67.9087
5.34901 17.1069 66.5454
5.33707 16.639 67.2587
5.50636 17.2602 68.158
5.48002 17.2294 68.749
5.51518 17.1685 67.8625
5.50648 17.0752 69.0803
5.53886 17.5172 68.2897
5.51666 17.0247 68.6802
5.59074 17.2079 67.8254
5.52472 17.1335 69.0903
5.52968 17.2556 67.0885
5.43188 17.2679 70.4817
5.65462 17.3983 68.4422
5.4983 16.9722 67.0584
5.43991 17.2907 69.3371
5.65235 17.4639 68.8521
5.48618 16.906 67.483
5.40417 17.0245 69.4556
5.58143 17.4891 67.7012
5.43737 16.7541 65.3743
5.34984 17.5863 69.6354
5.50729 17.2985 70.9829
5.59225 17.4195 67.0988
5.41062 16.8757 66.8852
5.45109 16.6944 66.6601
5.3977 17.2425 68.7398
5.54467 17.1902 69.2179
5.5063 17.1527 68.8617
5.49247 17.2689 69.5657
5.65399 16.6509 66.3944
5.40966 17.5595 68.1436
5.44104 16.8006 67.5549
5.37382 17.2793 70.1266
5.60651 17.567 68.501
5.50053 17.2509 68.7533
5.54097 16.3288 66.3553
5.34007 17.2435 68.7085
5.51513 17.3115 70.149
5.64603 17.2758 69.1073
5.48088 16.7308 68.0577
5.46194 17.176 68.3798
5.46556 17.4804 67.7704
5.4416 16.5203 68.4449
5.49733 17.1226 67.0228
5.44723 17.2457 68.6843
5.5129 17.1741 69.3694
5.43899 17.5863 68.9315
5.47212 16.8314 67.8798
5.44652 17.6208 69.1922
5.50661 16.8775 68.0298
5.49856 17.5412 69.0549
5.4794 17.2632 67.6485
5.45595 16.6427 67.9483
5.41751 17.4834 69.5534
5.60269 17.5957 69.3274
5.55444 16.9069 68.5468
5.47974 17.3063 68.7338
5.55647 18.1182 72.6142
5.69519 18.0182 71.4935
5.7222 18.6882 73.1664
5.83037 19.7833 73.0452
5.86201 30.7723 195.968
13.8603 0 0