# pn-170911/RbIIR-57-NIST-1280-1959.psd
# Power spectrum* (dif=0,1,2) (really just |FT|^2)
# NOTE: only the first half! (symmetric)
# weeks: 1280-1959
# 1 clock-days, 5 excluded
# PSD: 1441
0.72078 0.0141291 0.190229
48739 1.09278 0.217631
200443 1.98036 0.223923
5289.92 0.624487 0.317944
112390 11.2184 0.18432
4698.51 0.296599 0.241684
610.868 0.0866144 0.30944
1105.9 0.0186661 0.200671
13864.4 2.26888 0.226887
3246.27 0.359906 0.319819
960.567 0.168452 0.189197
2294.8 0.547594 0.248798
711.463 0.021475 0.304187
14.0771 0.437212 0.188872
3031.61 1.89355 0.238135
1083.2 0.796626 0.307906
416.334 0.445351 0.172728
388.491 0.452655 0.312139
175.516 0.0910003 0.270717
1156.89 0.730369 0.186609
796.782 0.51241 0.268667
850.909 0.743266 0.30151
402.36 0.387532 0.168812
1211.24 1.7502 0.350365
1857.63 4.7086 0.26877
421.789 1.87804 0.194113
136.147 0.0342295 0.301103
510.584 1.13701 0.24761
115.423 0.525698 0.205552
1551.82 4.11166 0.443718
430.816 0.79137 0.285841
555.621 1.24713 0.147945
134.549 1.35472 0.246968
361.052 1.34778 0.192155
233.697 0.71146 0.200231
523.186 4.3859 0.166457
689.59 6.10756 0.0725679
167.934 0.437735 0.217055
16.1272 0.829532 0.255032
216.003 2.01444 0.105036
546.743 2.94458 0.143724
232.834 1.76277 0.229799
175.308 0.735347 0.268266
222.96 3.66244 0.416094
291.019 0.982301 0.417219
65.7903 0.0730599 0.195652
180.294 3.34385 0.3436
114.073 0.842061 0.267363
199.074 2.95178 0.12093
714.464 5.21693 0.196196
1118.25 9.34228 0.743001
35.2882 1.17084 0.202198
592.853 4.9989 0.3397
349.732 3.72645 0.395408
13.0274 0.484866 0.180155
23.7529 0.997431 0.382981
159.779 1.0511 0.345795
495.903 5.9251 0.0228133
269.076 5.94966 0.557145
363.439 7.69811 0.222307
234.278 6.16325 0.593627
751.611 9.69953 0.414984
218.121 3.98846 0.394755
199.824 4.63033 0.434736
137.435 3.90685 0.0874466
272.942 6.00833 0.544196
686.603 18.3397 1.10048
1082.29 19.585 1.37286
456.168 14.092 0.471986
462.561 8.24607 0.409559
21.16 0.160853 0.271741
122.545 4.30676 0.0208952
336.395 6.53843 0.0163477
452.576 9.74902 1.0066
193.421 3.81807 0.505518
374.252 11.0989 0.209032
423.631 9.62334 0.731997
59.0335 1.22367 0.0615099
310.747 10.0643 1.10517
158.773 6.98918 0.0821706
154.104 4.76283 0.639299
149.631 2.43732 0.527315
359.18 7.46938 1.02301
53.2688 2.21865 0.153356
39.7072 1.07292 0.137069
148.632 2.98616 0.603979
29.9898 0.952338 0.293244
14.2241 1.17034 0.159395
63.6453 3.05191 0.321905
275.194 13.6895 1.33387
168.635 3.14718 0.72024
10.7681 1.40064 0.15455
652.496 22.2947 0.333301
270.154 9.08113 0.850999
124.311 6.93309 0.491217
59.8166 1.89652 0.179419
336.274 18.9893 0.127613
2.2472 0.437966 0.178459
196.846 9.85774 1.22452
36.9857 4.03861 0.223807
26.6242 0.790461 0.0638653
26.3639 0.381949 0.213252
185.709 5.18293 1.15332
244.507 10.0493 1.14574
271.855 16.9675 1.33969
120.112 3.06074 0.916426
92.8424 5.65638 1.01738
664.323 34.6103 3.31274
115.268 4.11256 0.918076
138.867 10.2319 0.73103
97.138 8.61137 0.91643
68.968 8.00089 0.105582
84.3584 5.54104 0.200866
50.4501 1.53277 0.716279
35.105 2.52327 0.13973
295.912 19.1951 2.10461
314.617 14.0108 0.993622
197.247 8.75384 1.63038
82.471 6.1136 0.892333
71.4785 6.68184 0.0482652
20.6188 0.214392 0.40428
5.10877 0.02966 0.146024
177.551 9.8706 1.15504
63.8009 5.39444 0.0327988
98.6419 9.02622 1.50562
10.131 1.10485 0.401318
14.6908 1.35317 0.0174903
566.191 46.3958 3.1073
281.871 12.6435 2.16572
215.159 17.7293 0.669479
101.181 6.26035 0.0341051
121.188 5.76956 1.25
297.693 20.7793 2.67275
37.8628 3.87565 0.0323675
84.5465 4.9644 1.50266
11.0278 0.652406 0.209132
234.578 26.8743 1.37596
385.022 27.082 4.49673
137.125 11.5901 0.62202
36.8905 3.74601 0.477435
52.3134 6.59867 0.180913
123.94 12.5599 1.98205
70.0271 10.3705 0.867023
206.411 21.587 1.09394
90.6162 8.43856 0.385536
99.0377 12.218 1.72517
17.8905 5.32952 0.0882368
61.7543 5.10562 0.540832
29.0564 1.0464 0.664296
184.78 16.642 2.38955
223.442 25.7302 3.853
30.5399 1.55116 1.1874
75.7932 8.05811 1.00948
30.1489 4.55292 1.24664
323.34 39.5106 2.48108
57.6097 10.9007 1.11627
2.93982 0.907281 0.634259
11.9938 4.10979 0.0306032
352.322 35.8865 6.1485
67.3664 13.9808 1.78433
268.726 34.828 3.04985
53.7733 3.79269 0.0218995
163.377 14.1003 1.80469
110.801 8.53502 2.5522
87.9526 10.8702 0.518517
74.5341 9.21197 1.1341
435.981 55.5289 6.30792
226.326 39.3345 4.7874
18.3995 2.612 1.73907
47.4397 3.21172 1.6152
0.318029 0.739182 0.116662
28.0389 6.1813 1.6816
210.184 24.2186 3.61655
37.194 5.24782 0.389353
44.3014 6.29853 3.1487
309.465 35.4837 5.07257
46.2782 5.80845 1.1768
432.604 67.7795 7.59768
54.4536 10.1873 2.90417
110.85 19.2701 3.91966
36.0287 4.63167 0.523564
73.6769 13.8465 0.956803
164.816 27.7724 5.46477
34.0623 12.6343 1.34112
2.65406 0.242697 0.0762348
56.1916 11.6014 2.23145
45.9181 16.8623 1.65448
166.638 17.7511 3.65097
28.4588 7.41954 0.867784
111.832 14.6863 2.81072
86.4576 10.2938 2.78551
152.195 21.7661 3.08855
37.0675 3.377 2.00796
8.20609 1.58783 0.16621
85.1539 14.2066 3.98642
207.052 32.3364 10.2128
241.94 36.8953 6.60081
38.3751 11.3133 1.08062
43.9695 15.1271 1.24894
121.291 32.8086 9.7485
186.434 19.3447 3.5984
47.977 5.76776 1.40209
38.4574 7.097 1.36028
90.4046 14.5551 3.86567
35.7929 3.26996 1.11881
56.5793 13.0767 2.39994
28.5627 9.09075 0.617125
50.8514 7.34697 1.77696
5.61042 1.22566 0.289705
98.2915 20.0742 2.69283
8.6842 0.810787 0.762085
58.6562 14.3503 2.59585
4.33705 3.82792 0.413021
78.8056 26.4463 5.68128
228.759 43.9723 6.91607
54.0712 14.2021 7.02102
487.688 115.386 20.5333
171.841 39.5871 6.63032
161.595 27.2907 10.0574
78.1081 17.0298 2.88744
8.85192 0.357478 0.166331
315.364 71.8468 18.3204
66.878 10.8875 2.13565
50.612 15.3097 2.37745
50.5096 21.2682 2.828
76.0829 24.8186 9.4797
153.166 24.5303 7.05643
8.1423 7.20875 1.12446
154.97 36.7314 7.05281
17.8098 8.07443 2.60583
87.3403 11.2651 3.58036
120.836 35.4061 8.72031
142.196 34.817 4.1804
58.6247 16.3514 5.59924
11.2452 2.76209 1.23133
41.5319 4.33909 1.72043
94.7347 17.008 6.21604
181.845 54.2326 13.9649
63.7405 20.0284 3.14528
127.346 44.3482 9.94349
78.5577 19.419 3.55568
29.5596 3.54482 2.46758
28.9205 8.46105 3.58492
73.2061 19.8137 4.57937
0.955419 1.61201 0.580997
52.4086 15.2121 5.94307
20.2623 12.1633 3.98405
130.465 27.9611 5.97838
51.3715 12.6001 1.82351
153.16 48.8141 13.8355
157.834 47.1078 12.6587
15.0246 1.81299 0.57766
31.0386 11.3769 3.22008
67.3224 17.4189 6.30505
105.362 37.061 11.3741
23.6831 14.4595 4.33362
31.0433 14.0095 4.62435
65.3575 10.9708 1.81156
15.4089 4.40932 0.451533
24.0252 4.0268 2.33068
64.2143 22.6106 8.85344
34.4915 14.0169 4.91817
2.32289 10.3055 4.79311
486.814 141.349 36.3412
9.95524 3.34465 3.30696
42.5096 16.9713 8.34803
156.008 50.3479 17.0274
94.7817 35.4921 6.97049
18.4744 3.17876 2.41616
7.32568 5.19113 2.19237
44.8062 14.3128 6.41604
67.9534 19.5506 7.04082
0.422346 2.59596 1.47721
23.9939 2.21585 1.30129
178.009 69.5111 18.3853
12.256 4.73449 0.714542
5.1377 0.241325 1.41299
90.2436 38.2789 13.666
18.2444 1.36204 0.503717
146.476 54.1654 18.4806
27.1115 3.44423 0.769492
118.584 35.8431 14.8153
14.6502 3.60747 3.31434
3.27395 1.48621 0.442609
65.4912 26.3047 12.213
26.3296 12.7316 3.55835
129.061 59.889 23.6255
63.4706 29.2051 9.65747
47.5543 15.7454 0.938484
101.263 38.4293 13.7042
2.81335 0.482269 1.00209
70.7947 47.7317 16.6158
128.138 62.1944 29.2199
192.631 63.431 9.93223
197.283 87.9795 33.3919
22.7932 20.7752 13.8771
166.892 50.4322 24.2794
44.0236 19.6845 4.81274
4.71391 3.2137 2.50218
50.1937 19.6875 8.99228
8.8008 5.62279 7.13393
25.3489 4.38613 1.70036
6.21341 1.54633 1.8776
553.141 263.884 103.214
152.124 51.6796 20.2758
113.931 68.6467 22.7086
17.5904 2.83267 0.626092
29.1896 17.2612 9.14211
177.802 68.4176 26.8346
23.502 26.8011 15.4001
15.0412 6.13749 1.8867
36.4537 5.05692 2.80202
1.92058 1.29692 0.570743
4.13383 6.36245 4.63779
111.582 29.796 14.35
25.2179 18.4059 9.53149
15.9706 8.2324 1.88535
81.3831 30.7416 16.8955
20.4469 8.90395 3.12151
4.79993 2.44871 1.62606
2.53303 3.45378 2.53516
8.03646 0.756447 0.217894
54.3448 28.1627 5.69238
134.824 71.4826 45.1345
88.4566 27.7931 9.27659
17.3161 17.1191 4.79002
16.3125 16.9673 6.61898
2.14263 1.25986 0.330996
14.3039 10.026 2.71863
88.5524 67.1182 34.8761
16.6473 16.8601 12.6112
25.4038 9.56281 5.76945
6.81386 8.51966 8.35783
60.5202 15.2646 1.33587
57.761 9.2952 2.28112
115.675 45.0954 16.5243
87.4104 58.9879 31.1352
4.7708 1.76191 0.49509
68.3895 44.2914 26.7846
7.36715 0.311839 3.19371
247.618 95.5053 49.4772
63.5457 22.7662 9.15215
68.6247 48.0048 25.2437
79.0592 29.6922 11.8038
106.873 76.7881 47.1334
182.849 110.946 48.4698
64.3188 31.6561 21.5578
79.7933 37.6198 16.9449
86.3816 84.4281 51.2792
33.3203 10.4534 0.521057
7.94056 3.72289 2.17984
35.8278 53.2218 38.2069
202.527 82.5035 30.9952
27.6049 19.6401 9.51812
30.6436 19.5499 19.4475
13.8012 8.85726 9.85307
10.4263 2.44591 2.00725
19.5088 20.1832 7.65956
17.5193 9.46999 12.3719
52.7415 25.188 15.7131
41.8549 23.9858 6.27013
27.5089 14.6099 4.52381
43.2235 24.278 17.5331
16.6936 3.70704 1.99128
11.4309 4.72926 3.13254
20.4322 25.5707 18.2315
62.8673 32.2629 33.0866
61.4356 24.5462 8.81352
37.2759 10.5254 3.64336
18.1799 6.45291 2.51683
25.6983 17.5875 6.8749
12.0797 3.63098 2.62153
51.3122 43.5668 26.6778
19.4914 13.9207 10.3008
26.3243 15.2694 11.6441
1.19105 7.05211 8.84745
47.6196 21.4368 9.11296
0.0627923 0.112625 2.36823
47.8813 20.4274 12.5907
82.5225 64.1924 44.2782
7.13173 1.08759 1.44265
3.86896 1.56209 0.0196975
16.7418 22.7574 21.9057
35.0579 12.1056 11.3931
43.6091 20.4144 8.16925
84.6628 46.2297 22.6696
3.11827 7.78792 3.6142
36.4586 33.5064 16.0694
3.48562 2.42805 2.88219
4.55025 3.37799 3.8518
36.3601 36.8222 27.7435
14.7302 1.22777 1.20469
86.8631 40.6795 25.4557
0.760688 3.70978 3.41688
37.7306 41.6583 29.9707
35.3922 21.7955 9.50549
50.4418 33.0861 26.0239
63.0112 24.0429 15.1788
52.7219 32.2702 17.2957
86.3806 60.6836 30.0185
73.0108 74.7934 71.4402
57.8617 13.8474 6.20926
4.11566 3.14025 2.8312
15.5465 9.14794 7.27785
97.0731 71.4358 73.6192
123.283 67.8518 39.1266
67.2926 31.6585 23.6607
15.122 14.0502 3.09682
47.9924 41.0494 31.6813
1.8101 1.33698 1.59518
18.0096 15.388 7.4218
11.1768 10.8309 9.64168
0.402759 0.844348 0.36304
14.5515 13.5931 7.40798
48.7467 54.7122 54.8113
18.5419 10.2434 5.02244
84.7652 89.3932 67.9137
39.5478 19.4615 12.0753
22.0541 8.74387 10.6887
7.23498 1.11944 0.662767
15.4412 19.7727 25.0151
9.99669 5.30516 3.08646
34.8156 32.2394 25.2097
73.0679 61.8466 32.7558
11.8948 23.5961 27.5876
3.59495 1.72411 5.31532
63.9922 40.9678 38.3144
21.5416 17.403 3.37964
43.8874 40.5179 25.8121
19.419 16.1611 20.8403
3.58733 1.36048 0.233104
15.2214 19.2203 24.2285
56.2141 38.0877 24.0578
1.47811 4.78987 8.86084
35.4794 25.7085 14.4392
58.762 48.2872 55.6701
63.5774 43.3709 49.1562
27.9272 11.9769 8.18924
45.2412 34.1166 35.1228
73.7168 48.6296 36.0247
28.0383 20.946 17.4772
26.2934 7.57887 5.57509
23.2815 36.542 29.9538
1.29723 0.94332 7.99813
61.4 56.5104 36.5968
18.0078 26.2366 36.9966
42.8106 19.7788 12.0218
0.0291413 1.28053 2.12478
0.0274634 0.980865 8.39351
42.4587 16.5355 5.17945
49.8533 71.7984 52.3522
47.0717 41.9396 24.605
11.9202 16.8967 30.7732
54.4891 59.9829 30.1987
28.2244 50.7303 56.8153
26.2506 11.2932 6.44576
13.289 8.63501 13.4082
45.2008 58.4287 58.9157
27.5717 23.4085 9.54795
7.83817 16.8406 9.73445
7.85034 11.2039 11.0292
15.2227 15.6921 26.7526
50.7166 61.5581 46.3319
49.4144 55.111 54.6048
17.5222 17.8931 7.19901
1.53834 1.30546 3.92735
57.4162 81.5318 101.626
90.6382 87.1714 50.3501
10.3944 18.7251 15.6656
28.714 27.6748 25.0653
34.2191 27.7656 33.2822
81.3556 100.886 81.3556
7.67185 4.43208 2.01221
14.0783 19.2955 13.9265
1.18409 10.3467 12.4447
4.15074 6.64694 13.2984
4.41725 5.75841 3.81909
93.832 151.214 167.86
40.3204 16.412 10.7872
50.8926 45.9474 20.7309
15.6989 16.308 17.4819
11.8162 6.61468 11.6349
25.7077 38.6119 21.7647
9.01752 8.76907 7.78048
3.63468 10.6856 9.39029
4.59336 12.9944 12.1604
4.30139 2.02435 2.04143
9.45259 7.05376 2.56683
25.1677 59.696 55.6124
2.58726 24.9025 61.5457
60.1336 48.7629 20.1728
48.4896 51.9472 58.0267
2.33269 0.914048 6.26042
43.4023 28.3791 33.6686
18.6954 15.3336 10.7808
38.1632 58.3695 77.5641
36.2976 20.9058 32.6019
41.5509 8.0909 0.391247
105.901 117.355 89.7563
47.6067 85.5373 161.564
55.155 25.584 1.60537
63.2661 66.9984 62.7135
6.4264 1.17926 6.41399
5.41168 0.927697 4.88358
20.0453 18.8972 6.96474
5.1509 5.25717 2.41733
16.875 15.2109 17.8823
3.19672 1.47138 1.4279
46.2293 65.5122 124.375
47.2023 14.4959 0.097965
67.7326 70.8055 46.8708
11.922 11.1103 16.8236
89.7665 101.981 91.1936
17.337 26.4035 13.2985
27.1454 66.7195 80.9302
7.99379 6.30868 10.1687
35.6356 63.6809 72.2189
12.4911 6.52542 8.32099
2.09696 1.16892 5.43003
17.5515 7.73989 7.71385
0.216029 0.840289 0.112831
0.862838 1.03577 1.85083
4.56266 8.19735 2.92764
9.05626 35.3255 48.8672
30.3605 39.1291 45.9463
22.9362 29.7327 29.1693
26.5114 28.9395 24.6167
0.737993 0.068279 2.93768
20.3076 52.4015 65.1408
30.6625 46.2319 43.7583
30.6203 38.6132 52.1386
7.35847 7.17371 2.05831
9.86363 10.2955 18.6081
20.1438 19.4934 29.0062
24.3231 41.288 31.1845
23.4543 35.4869 47.2608
18.3569 14.2248 18.8928
12.4239 43.5746 50.3075
4.52785 2.49157 10.1593
4.11229 0.953724 1.94964
0.560181 10.4352 12.2023
54.0347 120.103 226.963
121.039 76.4639 35.6395
12.8064 6.82732 8.57246
7.91034 4.829 2.76856
3.04258 5.0088 5.51127
0.30322 1.32247 0.958893
4.73422 4.44538 8.54332
48.8778 117.026 148.074
24.2862 7.27699 27.5434
28.6428 24.1998 17.3862
7.18674 4.40009 1.74877
10.3762 4.60913 8.42349
7.47615 6.94238 3.33401
14.1245 40.1632 73.4282
80.5864 87.3996 80.6827
10.1065 25.5497 43.6682
4.6799 2.98161 0.816247
5.26335 8.19862 3.04989
22.2594 48.6775 75.1076
9.09698 6.00409 38.6662
81.5073 69.7951 46.1613
6.91567 19.9607 24.4486
1.55654 10.6646 21.1835
8.37667 15.7503 49.2001
72.9343 73.4515 83.2181
2.50756 2.61962 9.11542
17.6077 20.0829 17.5453
13.1409 7.93072 8.01484
1.65914 6.68702 4.50582
1.21781 0.391783 1.04119
21.0081 32.5387 36.496
1.25612 30.8179 91.8051
74.5784 71.8998 42.149
12.2566 13.362 19.1882
30.1447 36.4422 55.5832
19.3499 25.0839 31.5825
7.21207 3.77584 2.30059
38.1978 99.0068 200.49
60.3064 32.4518 11.4418
7.18375 14.3165 15.1236
6.34072 4.38771 0.545428
13.2694 14.3915 11.3373
22.8624 40.9509 70.4585
27.3644 47.2605 49.4827
13.4929 27.7362 35.8469
43.213 55.9051 96.2921
9.09358 21.3799 86.2665
69.9758 62.4222 46.037
6.08728 9.11454 11.322
4.95563 5.85879 1.66856
18.1902 28.5082 61.401
34.6571 50.6672 47.9723
6.75257 17.3755 42.8883
10.6892 0.30162 21.0586
59.2938 74.6955 39.6449
30.4309 93.0747 163.802
47.1641 60.834 40.8914
46.1966 137.687 169.494
4.52635 48.7725 131.93
6.66039 7.42862 64.6977
57.1371 21.2027 16.5986
19.1951 22.8961 15.2844
5.1234 10.1288 30.7099
73.7883 82.3684 112.126
9.93205 3.56508 8.3793
14.469 33.1322 36.4038
0.483884 9.07409 37.1412
9.13334 2.66 0.952262
13.1414 7.41103 13.3882
34.4688 35.2244 34.9437
0.593049 17.2421 73.2174
60.6064 107.415 126.148
32.7138 46.3962 37.496
1.76993 5.32629 13.6364
12.9519 4.53986 3.43884
3.80738 3.29989 17.1874
41.7581 56.914 65.2876
14.5499 31.0299 66.4159
14.9321 12.0641 31.828
30.9551 44.2213 45.9084
25.0939 27.8346 24.683
6.23901 24.6393 50.3142
5.38629 6.89155 4.3496
4.18146 0.990857 0.744403
1.89406 16.2431 45.5418
12.3168 8.91422 3.84547
21.5246 19.2309 27.01
8.14196 11.225 35.6521
50.4358 62.0025 72.142
7.16613 10.6355 33.9868
16.1006 25.4419 47.4839
28.0845 36.0075 45.8272
3.99413 3.35771 1.30669
3.1794 11.6039 19.351
7.01057 13.6732 22.1105
7.65944 16.8248 50.2096
3.22735 4.41268 45.3279
48.48 40.2849 26.4762
3.70383 13.9677 14.439
17.4054 25.9838 23.4385
16.9884 27.0961 59.597
9.11324 20.5515 25.0864
1.74974 7.14093 24.6145
53.6966 81.8387 114.492
7.00045 2.99749 15.7087
22.6044 41.2174 57.1466
21.9035 49.7219 139.649
20.144 11.0055 13.0451
3.71722 11.7131 38.7077
7.496 13.2658 11.2439
5.51261 9.3541 6.8688
4.71291 6.09935 17.1472
4.60741 23.4024 59.6047
29.2797 44.8901 88.3189
21.1756 25.7569 5.29018
18.5778 41.1329 58.0067
1.57949 4.92137 12.7771
1.61606 8.78861 33.4341
8.54219 2.76787 23.2536
32.5583 60.3174 69.7194
1.30575 3.67668 22.5188
6.77942 16.3683 10.2342
8.8607 29.3577 64.6167
23.0683 73.1312 120.849
16.4327 0.376241 6.45428
12.6112 17.2532 13.4861
0.010423 12.0305 29.7446
5.6742 0.231631 9.18408
7.0372 8.47836 4.49751
6.88129 7.41305 11.6617
9.36308 20.4278 67.3259
46.6202 65.3262 81.5406
11.3047 54.2783 93.7969
8.3394 20.5327 68.5377
3.10707 0.228968 26.2456
13.9485 4.36442 30.0714
47.0627 51.6986 74.3647
37.7368 80.7504 106.39
13.2176 10.6169 15.1708
4.24257 0.293557 19.0272
46.9694 143.427 247.533
25.7539 6.78729 0.957323
8.6679 25.6586 43.5068
18.7975 45.213 88.0535
19.1624 7.90429 31.5729
28.4373 33.7509 35.969
5.61825 17.2356 28.4518
8.66939 14.8854 60.2013
30.382 30.3508 15.2719
17.1726 41.135 72.0719
36.711 63.4621 81.1779
11.0023 37.3308 76.9919
2.82168 16.7712 57.1836
25.0745 32.1195 56.3023
5.01775 26.7299 94.3994
7.0534 26.1414 91.0649
9.86951 7.57319 44.6789
60.6446 82.7813 73.3195
1.13348 12.4563 19.2821
0.147797 5.12038 18.4319
11.1149 16.876 35.8685
23.8573 48.1252 121.265
7.27286 1.7225 17.9801
48.7741 78.5094 100.867
7.57256 10.386 8.85023
5.53022 17.042 47.9915
27.3417 33.0391 34.5526
0.0893238 8.52292 24.9637
26.8967 46.1928 60.8213
8.07478 21.2312 49.0756
11.6558 16.451 39.3586
0.600989 4.40373 24.486
11.1393 5.58271 6.44591
10.0559 11.6676 34.403
8.30879 16.9109 45.4227
34.9062 50.4287 91.47
13.0302 10.4746 12.8634
2.51519 8.1042 20.2952
16.8706 27.3855 74.6159
14.2165 14.2279 2.58175
14.0179 47.7247 126.495
43.5312 45.5657 49.025
0.820513 9.8927 29.6942
1.90556 0.178657 12.0224
6.0606 4.49777 2.54079
27.9246 46.5827 59.2016
7.50628 33.4169 79.8247
8.84766 0.073791 7.37409
0.50424 1.61357 14.9998
4.02782 9.65758 18.7776
5.21822 2.86045 14.1697
8.42548 18.6342 39.8564
1.70338 5.62374 32.389
4.4784 0.748375 30.2372
16.4668 44.7976 97.4639
12.7347 3.68863 27.8668
27.0334 30.3644 16.4446
3.63891 24.6962 53.1148
2.88071 9.53596 28.2172
5.22974 21.73 19.5199
0.465043 0.787304 10.4958
11.9659 53.6013 90.3496
1.63646 19.3196 139.782
22.6189 18.9281 41.4816
37.1392 28.4056 6.05619
9.65178 24.9411 6.0173
18.2278 45.3822 39.2226
9.04533 34.0005 78.4747
11.4047 23.8562 23.5661
4.31299 15.381 24.7946
3.30449 34.2188 51.1027
2.35551 24.5601 96.9044
6.66522 3.30269 26.8207
19.2985 5.22461 4.58121
13.2714 41.3274 53.8315
15.6007 38.3261 60.9496
5.92675 10.5957 35.9782
5.73423 1.00692 8.32355
16.1831 31.362 40.5357
4.70508 36.8084 82.0765
13.9146 16.0998 21.6154
6.05969 4.62796 3.45745
24.4628 120.985 242.275
12.8761 6.71842 36.0105
7.06249 28.3629 61.485
11.0398 22.2419 70.0068
5.61169 4.37028 37.0996
2.26685 9.17054 51.5312
32.929 23.7967 11.3379
4.04701 37.7906 135.902
15.0424 23.0265 12.7211
3.32792 9.53852 26.152
3.06448 16.9219 61.4089
3.64224 3.11048 20.7337
27.1446 76.4143 101.846
7.62144 41.824 121.132
11.104 27.3221 53.1245
0.598266 32.7119 188.017
22.2213 11.8832 5.61279
16.9539 12.4119 13.3993
8.13599 16.9136 37.4439
3.38753 2.05889 4.36933
20.1229 21.9135 22.5685
2.9073 11.8133 52.3833
16.1347 33.9924 64.8172
20.0692 50.669 98.9554
6.17388 5.29556 38.5367
1.58287 16.3601 145
72.0973 73.7113 51.2108
5.30298 12.4662 26.2882
3.63716 2.70901 14.5036
15.6075 9.55487 2.92899
16.14 68.8218 130.74
0.859618 4.43033 66.2732
11.7931 49.7437 64.4835
1.80932 2.26029 7.11311
10.7058 39.9485 91.5265
4.60642 59.4511 256.529
40.3895 32.511 16.8964
0.623294 13.1129 109.974
43.2626 66.4575 143.317
28.6488 33.2224 5.84185
16.3881 53.343 124.734
2.88371 5.3213 8.5325
0.913736 6.12284 32.2494
2.25287 7.83454 12.7491
11.0621 23.0778 93.7493
24.5011 34.1577 17.3522
0.345845 15.4209 29.4065
9.07825 10.8082 31.9706
4.45055 13.2206 29.8135
0.811289 17.3252 48.5592
9.4562 10.8436 46.7684
15.4945 24.0571 27.8355
3.79187 1.91781 3.56924
0.937762 0.0675142 4.10996
5.55888 36.4604 144.447
17.2732 38.017 22.9303
0.495024 7.95505 18.3348
2.49712 8.62241 55.5264
41.0118 91.9296 188.467
8.96033 11.6938 156.424
43.0416 120.398 209.281
18.4669 18.6325 10.195
0.131451 20.5836 118.619
17.1876 41.4549 72.0434
16.8517 16.7375 38.1107
21.2908 62.7387 114.183
2.72028 13.0469 29.7436
0.42128 0.564381 2.29188
1.10877 14.6858 67.8962
11.7229 43.1095 76.6671
10.0152 1.16127 23.1954
8.7881 33.9824 75.876
4.23472 5.28677 48.9969
21.8407 22.567 11.0503
3.43985 15.8348 35.5149
6.04515 8.96376 57.8142
29.4628 39.2068 72.6503
7.17609 17.0586 42.5015
23.7958 42.4921 71.4587
2.6223 2.34661 11.2479
0.727024 2.36313 5.97114
4.33595 5.19751 57.0977
32.5185 39.3989 15.0312
5.52938 58.6317 145.649
3.10213 0.816636 22.2626
0.897465 3.58177 6.19061
4.80525 22.7466 51.5543
0.498732 3.49211 19.1768
1.48409 4.82232 32.6938
6.52332 3.31992 8.66643
5.2637 2.74921 0.263181
0.367529 0.531833 0.683205
0.108349 14.1163 107.053
43.9221 62.7534 53.4399
1.87752 35.295 92.7839
0.304143 7.28084 76.3808
2.27804 4.21393 0.144375
0.207402 6.83931 54.2792
9.21049 3.96451 9.04303
2.6258 20.7808 60.1914
16.8197 30.2811 43.8442
1.96062 18.5544 44.1167
2.03586 13.019 47.8438
4.81628 10.8019 9.33069
4.20319 14.5821 69.29
4.17528 7.74706 25.7954
14.011 31.6581 43.3276
4.84359 4.04599 18.0209
3.8033 12.0067 54.8554
8.82599 26.6682 47.8439
3.22067 23.2972 98.7038
13.3636 32.3386 34.1067
13.6422 55.7053 160.565
2.27019 6.33655 10.9706
1.40529 5.087 55.3408
9.90677 21.0688 24.7083
3.66801 3.98236 18.4128
2.77006 3.26845 0.497612
4.91847 20.7741 98.9912
13.6127 12.7906 1.76287
6.29359 22.3964 62.8202
8.4272 4.34968 19.1032
0.289732 6.70193 24.46
1.69535 6.14824 22.0935
15.221 32.6496 81.9274
1.45405 6.92534 33.1612
22.6708 80.3108 182.151
7.01086 1.52679 3.15624
1.95282 7.65759 63.4226
6.53033 8.76088 1.04375
6.6775 11.8618 35.6109
4.30947 2.3377 13.6928
1.51599 3.45099 30.3666
22.8416 39.1141 67.4436
1.64425 4.2537 42.4128
14.6568 77.1991 185.223
3.20703 7.92623 86.2037
15.7739 34.9247 77.1605
7.02658 27.5602 108.461
7.75227 21.2289 18.6744
3.08905 8.63463 27.1103
2.69964 0.392702 10.0582
1.95186 13.6906 54.7812
9.23121 3.32286 38.8579
7.47125 22.0229 22.8471
0.591114 0.221471 11.3189
9.5866 28.9322 71.2219
4.85036 3.53597 26.9481
23.5349 94.533 274.24
15.6076 37.5002 62.5431
1.96293 0.958189 24.5991
0.342747 3.89608 11.3443
4.69899 31.3069 161.292
13.6194 41.2738 83.4077
3.58547 24.4554 68.5787
10.2699 26.1467 52.0173
6.39204 56.82 150.228
2.15411 17.2225 101.973
10.8584 13.7302 11.4893
5.4689 8.10121 30.9945
4.37671 8.49782 34.2209
4.50648 13.0585 13.5298
1.68548 3.61285 11.413
7.32836 18.0544 107.887
16.0468 21.2838 5.05822
10.7295 22.0975 35.58
1.10921 11.3671 114.091
29.4388 67.8024 114.195
4.05338 0.707256 3.70369
6.0491 21.3556 79.0675
9.5109 7.00307 1.38673
7.9527 25.6856 37.3947
1.23532 5.90079 29.4805
0.0584247 3.20495 39.4012
4.14666 3.05933 1.25729
3.1773 7.7325 39.0218
4.88211 3.23121 2.0457
9.97258 16.0973 34.4012
5.3402 8.231 22.6785
6.49903 13.8335 95.4111
14.7959 87.0608 237.842
23.8 38.7257 122.507
10.6976 8.85695 1.62839
13.0196 21.3847 23.3545
0.1698 18.0186 87.9349
11.9752 17.0834 41.1847
0.28905 7.61794 74.6855
10.6953 3.06285 16.6827
2.51893 14.0797 10.7692
6.39852 12.8643 12.4092
0.605995 3.80902 11.6477
4.6629 12.5515 62.3977
1.64146 9.06877 8.41509
1.10445 2.39558 6.03713
0.148067 4.59105 15.8046
1.53153 14.5805 50.4816
2.43099 10.2813 28.6319
6.39101 26.0346 128.807
18.0914 14.4668 0.556307
2.02143 10.0613 12.6512
1.50917 34.7483 101.013
12.9314 14.0576 10.8465
0.28103 8.54559 28.7999
8.2625 16.6322 82.187
1.17045 1.34506 101.363
33.9187 73.4679 115.941
12.1571 12.8753 46.7564
9.80062 17.4457 29.1305
3.75117 5.02466 28.1455
0.501339 4.45702 71.7351
7.47529 1.94146 57.2608
20.4561 48.3044 53.2488
7.61789 36.539 39.5943
1.27664 17.0233 59.1873
5.18626 6.14378 66.9477
18.8468 17.5554 33.116
4.35507 7.68868 8.63201
20.3552 101.981 292.135
30.7893 41.7481 126.664
9.03088 9.51181 46.0365
2.02359 5.32987 13.3061
6.53913 25.4199 73.2616
3.41481 2.07561 7.08751
13.5197 39.0579 154.336
14.7083 88.2102 268.746
11.129 12.7733 17.7096
0.406761 3.59399 44.5043
8.54267 14.8597 99.3486
11.0902 44.5867 71.3868
1.1134 14.8972 63.397
3.45676 14.898 39.0974
1.43711 4.93967 43.0641
10.4412 16.6018 14.3296
0.902412 11.3151 93.4061
11.3934 41.6316 92.8597
6.64511 9.08168 29.1558
1.91204 9.48933 6.86294
1.97331 3.63478 2.86212
4.44474 22.5319 111.141
13.1476 18.983 66.3757
7.55655 23.4818 28.634
4.63557 3.1683 36.8143
3.45506 16.7047 60.7311
15.4199 40.8568 80.4598
7.59939 7.12649 43.7783
4.2345 0.117531 26.9994
0.720195 7.6444 41.5572
1.75465 13.3024 6.11399
3.03103 25.0086 90.1553
6.10268 3.75181 18.747
2.12546 14.3357 57.9359
3.03821 18.5927 94.4934
1.879 5.30825 16.3347
8.8824 10.9224 9.28696
0.658616 2.20085 56.9913
10.61 67.5096 216.188
20.47 3.99554 48.5602
16.0354 82.7753 167.566
16.6643 11.3506 18.9329
0.0381845 6.06462 27.6197
0.305498 4.32196 79.6709
15.1348 12.6154 14.429
7.99181 24.7384 54.4624
5.61597 23.3227 24.7528
1.03255 27.5882 221.176
20.4154 22.7708 9.66782
4.97266 43.2808 87.9805
0.0844993 2.69088 18.0379
0.558359 0.287267 3.33519
3.62536 18.4105 70.7245
11.5401 0.319215 32.5185
8.01679 22.2059 16.6722
2.52783 6.14827 40.2436
8.9187 5.13703 16.3776
4.02823 33.1554 73.6573
0.369155 4.20341 8.14899
10.4049 23.1926 18.6127
5.03233 96.3125 436.144
25.719 14.2915 23.5703
1.84207 13.9075 11.571
0.753986 1.13033 7.58491
1.8716 2.72927 4.85917
1.11 2.72074 18.5487
2.71188 15.1295 90.1343
9.9405 23.1701 24.2564
1.76474 3.71634 51.6016
3.79959 21.5279 40.9807
0.109283 2.09697 2.489
2.36475 9.28602 27.2214
2.39247 1.52681 43.6039
0.715796 11.4716 13.9864
0.228902 5.27891 27.3943
2.73196 24.6413 179.207
10.7779 21.083 65.4695
6.4616 34.207 41.4214
0.298155 7.68501 77.787
2.83097 14.4963 17.8177
5.27373 32.7049 130.93
15.2725 2.6991 21.2846
12.0451 36.6227 125.244
11.9372 15.8338 9.31125
6.29756 17.7294 69.588
5.55544 7.15836 7.40073
3.21764 17.2462 49.729
6.47243 2.32409 104.349
26.8723 75.5511 139.533
8.06713 6.68944 35.9283
5.44657 31.3929 67.1442
8.58642 27.8441 175.067
13.3185 2.94419 58.0294
4.42746 36.7752 29.0511
6.58992 23.7234 74.0674
3.23763 34.463 133.278
16.0017 7.33532 53.6704
4.57962 40.3498 148.19
14.8095 36.1468 93.3897
17.4077 42.3071 181.311
10.1795 9.125 12.7288
9.89018 42.9274 62.9676
5.7373 6.99798 90.8101
15.3407 35.903 84.74
8.65281 5.72334 3.52008
1.16283 24.4712 85.9445
5.55644 1.19801 10.2059
2.10969 6.02839 4.80554
4.11045 22.5654 159.062
20.3138 40.0232 71.0205
7.92474 17.7628 42.5072
3.50597 26.5472 142.976
12.1464 17.9316 19.3576
3.94754 1.09877 40.4885
3.53401 16.9411 28.0292
2.07856 4.26892 13.8564
6.65363 21.0803 169.886
8.97997 30.4744 59.2527
7.96562 23.9167 32.6404
7.41054 13.0713 40.2683
6.46806 5.8687 2.74798
3.03762 22.8657 100.247
10.5913 14.0593 19.5269
1.90549 2.69568 16.6414
2.9415 4.67602 45.5055
0.797878 7.21647 40.7895
1.75798 13.3837 19.0203
0.404889 0.803144 3.3368
2.5684 10.2439 97.6536
11.7704 18.8176 10.3989
0.690235 4.55212 109.291
5.50729 53.581 93.4309
1.82222 3.55557 13.3808
2.93121 20.1812 46.5516
7.56462 2.35301 3.01464
0.940595 0.383701 22.0496
6.4216 17.0285 5.83203
0.959355 11.6283 57.4879
1.84334 4.05549 12.5971
3.4855 3.27563 42.2872
5.49223 36.1492 26.3788
0.903332 41.7574 152.122
2.15384 0.365986 9.99049
1.27073 3.86311 7.17317
1.79289 6.55514 26.8522
0.177926 14.8428 31.661
4.54648 0.567729 20.1997
0.900324 6.89824 25.4598
1.82069 4.87519 32.847
1.8018 21.2328 52.2031
5.46886 13.7473 0.659788
0.69322 22.4269 28.7556
3.37448 23.8505 90.2121
1.46981 15.8161 118.035
18.8176 34.1574 78.2022
8.74988 16.895 26.8597
1.57627 30.0084 199.401
23.8245 5.59992 25.3539
5.06976 4.53933 4.10528
3.08075 14.4669 84.7138
15.6391 12.658 17.8024
2.51909 0.15808 1.41084
1.54232 24.495 231.631
32.0659 37.1203 67.0748
11.4616 35.0637 65.3913
6.92634 5.76166 24.964
7.35794 8.36748 23.399
3.9047 8.03594 8.63958
1.07195 14.1883 132.474
20.5696 18.3116 17.954
1.58272 7.37828 56.7526
13.4848 41.2642 111.964
7.37961 1.60145 3.80739
1.11141 3.11031 12.3534
5.97285 13.7219 61.609
10.6634 10.4888 29.4215
4.78078 11.2668 17.8492
7.2819 57.5093 367.668
38.8801 27.5438 20.5687
3.48851 46.6152 115.043
1.35261 6.0703 47.6773
1.15052 14.9515 33.5884
2.06308 11.6747 28.5504
7.11131 26.8931 143.837
15.092 6.03498 4.33536
1.91536 18.2681 178.627
16.3895 17.282 13.7181
6.1242 19.937 10.6274
1.3269 4.40876 20.1459
0.520475 1.70915 8.21879
0.725449 0.56625 1.06057
1.97856 3.26009 3.97779
0.137685 31.463 181.468
11.3453 3.75456 56.2837
10.1684 23.0626 89.0081
12.4936 9.0491 12.5361
3.80753 16.518 5.64737
4.54963 17.3576 29.5135
2.98032 2.55947 8.38927
2.32508 24.8737 28.2443
0.268323 20.6913 92.8438
4.10108 25.6272 170.25
12.9914 1.6946 100.867
7.06271 40.4743 70.03
11.7221 18.4553 21.0544
1.99459 2.23877 29.8589
4.64589 39.2239 203.581
7.63895 26.6877 10.2772
0.218659 5.48077 4.12988
2.53393 6.45267 61.007
2.72584 31.0454 78.0096
3.07149 1.30587 9.78818
0.57725 11.3929 16.2723
2.63933 17.9933 137.307
9.23044 3.9765 13.2618
8.81853 11.3281 14.0098
2.99574 0.346891 42.031
4.34189 49.3342 146.027
1.42766 4.79611 31.3163
0.938249 1.08282 10.5128
4.85079 10.4648 33.2616
2.8501 10.481 34.874
1.00214 0.634591 6.80299
2.80611 15.1599 79.7351
0.711316 6.88885 9.3409
0.10086 4.92249 12.1229
0.51499 12.8355 221.514
10.2559 38.6776 88.3376
13.2852 71.3296 85.1533
5.97474 12.3261 61.6156
2.44172 5.79835 76.1174
2.98872 2.49326 82.3838
16.57 16.7011 2.55439
3.97078 39.745 143.14
8.37846 1.43506 35.8478
0.737323 12.0639 0.633368
3.11656 23.722 102.507
7.29917 3.94506 13.1677
7.11991 9.50558 19.1586
5.46703 24.4448 181.335
16.4995 30.8623 22.9911
3.13778 17.0699 50.8701
3.25588 4.51518 10.4654
1.89267 7.06304 18.5125
1.31834 9.99811 50.9286
7.74507 22.6226 78.0209
7.12777 3.53531 13.9018
4.15852 6.49414 46.3125
3.2505 24.3809 87.341
7.74826 4.87182 2.98945
1.6225 6.81052 98.2472
14.1129 55.4444 71.1109
8.73951 45.5883 191.336
19.5224 8.88396 69.5538
2.73898 1.11948 20.8251
2.95185 1.01718 14.9795
7.70253 10.0765 5.82992
1.17607 2.88063 11.6536
3.6222 9.49857 53.1898
0.80804 9.04048 0.251919
2.39001 41.8817 142.495
10.3342 12.0269 255.894
29.6621 33.9197 4.52713
0.832633 35.6314 64.8589
6.40913 1.78573 11.1472
0.602183 7.53602 61.4053
3.95238 1.9299 146.972
24.7245 39.4283 15.3629
0.94122 1.51805 1.43261
0.0409868 6.66687 18.8873
2.39827 0.575652 15.8268
0.36618 1.59978 30.6555
4.67181 7.93326 66.2734
7.14161 17.3142 3.90637
0.0809832 24.3655 167.224
6.75218 12.9123 45.0044
0.770472 52.1446 163.259
5.95825 9.4684 98.5148
13.6294 17.3292 89.0446
17.7082 42.514 87.028
8.19145 11.7288 5.04012
1.07046 20.9304 174.878
15.0516 22.2465 83.7245
5.51651 0.482672 65.4011
10.2914 30.2791 287.568
33.0484 123.527 246.203
17.0669 11.7095 40.2669
9.29868 35.2795 100.023
14.0241 26.8883 14.5352
0.537293 16.0814 104.767
2.81081 1.71619 31.0313
0.228831 8.05352 14.5283
2.62423 4.21774 50.5594
7.03946 43.8594 72.2606
7.96686 3.38393 55.7242
8.85676 34.7665 43.9837
7.96856 6.79492 20.9845
2.57248 8.23307 6.33678
4.36981 45.0674 86.1041
0.798222 88.4883 605.029
45.4868 71.0512 74.8801
2.24644 8.25381 104.543
13.0612 79.1369 65.5297
3.01984 107.214 1152.5
59.9274 102.157 27.4362
7.80412 4.37128 93.2557
16.0013 109.845 252.875
19.8489 12.8027 220.184
20.399 57.9992 7.88001
0.409645 31.283 85.4611
0.649873 4.94403 86.9009
1.12877 38.6153 194.5
14.4013 9.9361 144.495
9.04211 26.2875 3.24645
2.03747 5.7938 22.7824
3.15072 4.0286 62.2691
3.97962 7.22615 28.2696
7.4949 25.1466 56.5274
6.78176 28.6952 21.2602
4.60522 16.9498 92.4807
1.02917 8.70747 79.1224
6.4923 19.2076 53.5708
4.54852 6.85983 44.2186
4.75721 11.3608 23.1467
3.32729 14.3892 83.5748
0.928168 16.5077 103.131
14.8674 50.3727 132.772
11.3111 3.4349 3.57276
2.94686 2.07216 10.3574
1.8793 5.00201 2.46292
0.557192 3.31972 34.8481
0.16261 2.47072 6.81594
0.10154 0.564374 9.15152
3.15593 6.20525 5.97705
4.03402 6.70247 45.957
5.01705 8.12264 5.07776
2.44569 6.51772 17.8529
2.43328 1.85144 33.5298
4.84277 9.50285 4.65614
2.49553 33.53 284.006
32.9989 56.7323 137.586
7.33404 33.728 211.09
14.1362 49.0496 55.3767
1.40173 6.11214 7.97665
0.202893 10.4338 72.4588
4.00523 4.79426 26.6661
4.86452 26.5377 131.816
7.86158 13.3645 3.8804
1.17082 2.82818 12.2848
3.23896 3.36729 25.4009
3.08546 15.5328 81.3208
0.832341 5.18061 4.80536
0.488886 8.3207 126.096
8.7547 31.9942 24.069
4.59785 5.67902 12.4024
3.62529 5.73065 7.41189
0.152492 5.65632 22.9721
6.62571 0.513367 12.2479
0.353673 6.9801 96.6425
2.93514 25.2414 69.8368
11.4582 12.6689 7.10799
2.30825 15.7242 90.9432
9.85533 11.7905 29.3552
3.24801 13.3841 54.3067
1.667 17.6633 56.9539
1.59514 6.4138 15.7386
5.5842 5.82534 34.7757
1.26988 10.2115 52.9869
3.33305 8.37249 28.5235
4.28352 2.55144 105.082
4.0268 7.8192 10.8052
4.67097 16.0572 155.215
21.1377 26.0885 42.7271
1.88828 43.3147 62.8235
0.838712 8.08803 61.2825
1.19486 4.22875 34.4959
4.32387 7.22459 9.65804
3.88704 3.00871 14.441
0.0781019 3.34016 5.38469
0.211792 7.1152 27.3319
1.16325 0.391446 10.7343
4.15808 15.2023 65.8197
7.50755 21.5688 96.1106
6.87466 17.8598 22.2748
0.0661302 1.00236 25.5331
3.55881 30.1525 88.789
0.521552 1.12924 45.7622
3.40535 6.24917 91.1128
3.15548 15.5139 15.8136
0.307243 6.04672 1.4439
1.40049 18.4419 69.2314
8.55837 7.88874 45.176
7.43181 1.44159 77.5322
2.48296 8.90022 107.019
13.1965 83.2781 183.223
15.139 12.5979 76.5959
3.03884 25.4998 123.126
3.7161 11.7016 10.2971
0.267204 28.72 79.9945
2.24258 3.00793 131.846
15.1235 21.4154 7.20355
0.886741 4.73878 31.9188
3.24079 7.2009 16.9091
1.98664 6.30136 74.3485
2.45582 12.822 32.1445
0.662646 3.20978 71.8171
12.2724 48.4039 42.671
4.4148 5.18403 32.0156
2.23775 5.33332 60.4647
3.32621 1.05114 44.8823
8.26987 14.0101 2.8443
0.50236 8.10333 64.8454
9.54774 13.9412 124.704
11.2952 12.1625 130.863
6.00425 68.4854 78.4743
1.98073 39.6413 87.8648
3.63891 6.22883 65.2235
8.41028 4.95156 8.32616
1.86955 14.877 41.1931
5.40596 0.774972 18.8893
0.101135 27.4409 86.7054
0.888382 4.96417 181.091
14.178 42.2439 123.047
14.1539 25.2769 135.988
2.20156 13.4858 40.7385
5.27088 14.6748 19.7446
5.2095 7.15173 1.92766
1.5756 7.95831 76.4976
7.24912 13.9535 26.1195
5.37905 9.90006 61.5382
1.62985 13.2929 46.0995
1.19625 6.5645 2.72548
1.00516 15.0142 97.4641
2.17767 1.5279 38.9433
4.03544 15.819 41.2043
5.21743 0.0959788 45.8696
0.336949 4.37537 44.2122
5.20543 26.8226 28.3045
4.10547 6.11853 3.75409
0.914774 6.61554 81.8915
8.71776 23.8038 73.5304
4.3095 14.9573 10.5626
0.150422 17.4707 82.5275
8.1116 0.369966 34.897
3.34624 0.853997 115.832
3.26597 21.4238 31.1619
3.66451 37.5922 12.5553
5.00156 9.36807 20.637
0.165867 46.7571 249.329
15.951 7.63335 161.75
20.6575 27.8459 24.4103
0.252315 8.94652 197.655
21.4711 64.2003 15.6919
2.3522 15.0271 68.6851
5.29531 9.40364 6.30046
0.331927 10.1508 55.7056
0.617179 12.1673 134.863
11.3782 31.9497 65.7127
10.2492 8.05396 0.121989
1.58079 13.5346 108.941
10.2882 0 0