# pn-170911/RbIIR-59-USNO-1280-1959.psd
# Power spectrum* (dif=0,1,2) (really just |FT|^2)
# NOTE: only the first half! (symmetric)
# weeks: 1280-1959
# 11 clock-days, 0 excluded
# PSD: 1441
291.465 0.0875497 0.0185003
6682.81 0.111485 0.0252444
40295.6 0.767764 0.019759
16274.1 0.803443 0.0191375
23321.2 1.76477 0.0224847
6139.51 0.81574 0.0146086
3285.24 0.667491 0.0233245
2628.33 0.58817 0.021808
2127.09 0.925476 0.0190692
1563.17 0.522258 0.0224155
1109.75 0.441645 0.018981
783.189 0.510808 0.0241858
1151.85 0.676867 0.02175
706.28 0.73409 0.0119461
724.788 0.662124 0.0264867
614.966 0.698317 0.0192557
564.032 0.627133 0.025165
269.734 0.511049 0.0239657
475.13 0.673573 0.019565
437.206 0.73375 0.0295089
504.416 0.939992 0.0177241
617.625 1.28548 0.0251138
407.124 0.915037 0.022103
313.526 0.835168 0.0214192
407.625 1.15926 0.0334362
153.851 0.567829 0.0239673
248.292 0.924511 0.020954
305.177 0.88657 0.0299769
276.971 1.06631 0.016067
317.618 1.1851 0.027544
133.453 0.717229 0.0209704
217.206 0.993587 0.0167683
266.619 1.33786 0.0268531
351.177 1.59012 0.0186424
181.382 1.09085 0.0268457
250.517 1.34901 0.028308
152.857 1.0416 0.0171879
253.073 1.72604 0.0413934
168.195 1.40496 0.0267201
177.384 1.19284 0.0353238
133.468 1.06065 0.0302461
192.457 1.40485 0.0307985
283.288 2.13046 0.0459564
232.152 1.89549 0.0386979
336.639 3.04752 0.0557625
145.607 1.71413 0.038139
163.38 1.85976 0.0387602
126.748 1.49098 0.0436646
178.74 2.03381 0.0308187
175.122 1.7728 0.0518774
156.254 1.63991 0.0517842
167.909 2.24813 0.0371443
240.317 3.38577 0.0696179
165.292 2.52209 0.0565029
94.9136 1.24636 0.0357101
173.288 2.2846 0.0562156
228.344 3.40907 0.0698008
179.471 2.8196 0.0601584
107.377 1.81382 0.0480328
105.325 1.87694 0.0455081
151.814 2.42916 0.0801994
179.956 3.25812 0.0742829
207.114 3.39527 0.0690821
241.613 4.63856 0.0739505
178.25 3.49446 0.066834
292.26 5.99916 0.130717
110.042 2.67792 0.0701369
239.449 5.23905 0.147564
177.241 4.11226 0.113696
175.406 4.12079 0.097181
123.367 2.95322 0.102803
306.049 6.93974 0.138593
244.494 5.32314 0.139529
123.275 3.19363 0.115873
180.855 5.02391 0.164393
161.437 4.22647 0.151579
176.413 4.43018 0.149443
231.694 6.65783 0.190954
150.396 4.33957 0.15537
168.48 4.92078 0.168258
105.773 2.95943 0.155378
126.806 3.64264 0.102714
261.603 8.50123 0.30207
130.411 4.19128 0.161142
229.344 7.6748 0.292256
134.571 4.75886 0.221756
175.493 6.14594 0.230992
134.187 5.07691 0.207339
125.252 4.65573 0.234738
113.273 4.728 0.241599
99.5046 4.2359 0.213634
195.321 7.92656 0.368016
194.499 7.23501 0.305475
95.7419 3.53915 0.200666
169.064 7.05305 0.301767
241.367 10.141 0.512937
182.776 7.87312 0.399368
195.12 9.23156 0.492195
135.354 6.24807 0.278531
174.227 8.03358 0.358754
218.28 10.701 0.504907
179.664 8.75103 0.46832
83.2717 3.9212 0.145999
271.868 13.392 0.654008
200.994 10.1998 0.634199
68.2519 3.35926 0.187407
188.557 10.0416 0.552549
67.5649 3.55077 0.230268
201.701 11.1219 0.640923
113.351 5.68866 0.371465
171.38 9.65224 0.552732
104.962 5.72919 0.356367
146.11 9.23595 0.630175
119.975 7.13582 0.434002
117.815 7.27497 0.516704
99.4328 5.65587 0.343976
212.346 13.471 0.819737
198.435 13.1358 0.841405
275.465 18.1615 1.23486
103.766 6.69652 0.518227
178.063 11.4803 0.799822
120.481 9.04203 0.667342
239.416 16.8095 1.16541
184.374 12.7804 0.857964
203.483 13.8649 1.01557
159.584 11.6367 0.954158
126.269 9.58159 0.780707
196.134 14.6502 1.06552
122.607 10.284 0.780595
130.194 10.2763 0.915782
128.527 9.4762 0.797065
116.464 9.16932 0.779052
120.23 9.49914 0.824252
91.0603 7.43186 0.721545
124.46 10.6359 0.895912
130.733 11.3021 0.989444
93.9031 7.66037 0.5589
71.0617 6.36446 0.620477
95.4036 8.58035 0.822662
161.647 14.0959 1.28085
113.433 10.5645 1.03312
87.7483 8.13653 0.749596
98.6035 9.52661 0.887649
103.583 10.8301 1.10007
215.518 21.5152 2.02689
138.691 14.2928 1.55186
128.433 11.9061 1.21701
151.709 16.3354 1.63026
99.1442 10.4047 1.05422
143.159 15.9559 1.67074
77.5384 10.3565 1.27431
143.411 14.938 1.48821
158.625 16.7157 1.88028
145.765 15.6929 1.72485
94.6399 11.9439 1.50141
111.172 12.31 1.39104
133.072 14.9111 1.74361
100.345 11.3837 1.29372
54.6245 6.83922 0.898042
108.305 13.7257 1.79038
105.482 12.169 1.4057
164.998 20.8679 2.84374
102.074 12.4107 1.53659
88.0916 9.7959 1.183
89.6692 10.6302 1.32928
120.596 14.9573 1.87214
107.236 13.7435 1.63277
64.6299 9.4409 1.4651
87.2035 11.8993 1.53022
100.515 13.415 1.97656
136.546 17.997 2.45017
95.1898 13.1069 1.8461
80.7459 11.3853 1.56942
133.775 19.4262 2.85499
99.0862 14.9273 2.40081
83.7941 10.589 1.55993
155.095 22.5113 3.16105
89.6638 12.4521 1.84798
69.4165 9.81542 1.59126
179.376 24.5603 3.23916
119.467 18.2779 3.04658
144.733 22.3351 3.23733
132.024 20.719 3.06723
107.863 16.6386 2.70248
102.332 17.1616 2.73612
104.988 16.8558 2.79123
128.506 18.0451 2.56091
130.626 21.9994 3.45832
105.777 19.3993 3.44915
92.85 15.0748 2.34483
76.5431 12.6657 2.27163
61.7831 12.0223 2.28547
136.571 22.6975 3.75302
128.968 22.3501 3.95702
64.8682 10.6719 1.78508
79.2772 14.5425 2.55123
68.4252 11.9196 2.20093
90.8578 15.8658 2.72472
76.5502 14.6843 2.79333
78.583 14.5775 2.5989
104.381 19.9704 3.6986
103.818 20.9708 4.13918
86.4825 14.9249 2.7204
117.372 23.0376 4.6009
71.3702 14.9149 3.21058
76.2774 14.9106 3.05247
48.5516 8.12085 1.27749
72.023 13.5052 2.61339
83.1581 17.7887 3.65109
115.428 25.544 5.44633
86.1781 15.9662 2.96049
64.8139 14.2648 2.90672
95.2349 21.0236 4.56679
121.345 25.2518 5.31442
38.3917 8.6558 2.06618
72.3541 15.1194 2.91869
85.428 19.8569 4.55391
91.6966 18.822 3.89945
79.8637 19.7507 5.00322
105.243 22.6635 4.8497
66.9236 15.56 3.75254
110.93 24.2858 5.27034
74.1466 17.3241 3.73466
124.391 29.8649 7.21318
85.8527 20.5079 4.68463
50.8326 12.1772 3.20795
118.504 28.7268 7.0975
74.9198 16.4166 3.76938
56.2513 14.7969 3.8756
63.0722 14.5651 3.4791
73.0499 17.8858 4.48905
73.4953 18.1189 4.30942
62.9506 16.0838 4.11135
81.1696 20.4292 5.3607
62.0169 16.7954 4.53575
82.2383 19.9482 4.97424
66.1967 18.1965 4.60476
96.1902 25.094 6.38076
67.3556 18.3123 5.18564
55.4091 13.8518 3.78997
103.509 28.4201 7.8688
64.0679 15.4237 4.04362
73.9781 20.4585 5.20081
47.4925 13.6679 4.11626
56.6724 15.6038 4.19781
93.835 24.4633 6.07429
60.4245 18.9008 5.52636
82.5561 23.3249 6.38884
109.928 30.1205 8.07983
63.3555 20.2372 6.55405
92.2229 25.8061 7.16773
59.7398 17.6275 5.44593
137.788 39.9615 11.8474
86.6231 25.1692 7.37781
82.2017 27.0466 8.96947
55.576 16.3237 5.01497
92.7445 26.9434 8.14649
88.3028 23.0987 6.18338
60.7156 17.4263 5.01867
62.3083 20.9546 7.15519
93.5224 30.2233 9.46917
65.5326 20.1547 6.36779
87.0555 27.0186 7.81854
40.475 12.5329 4.10114
70.7134 25.6406 8.84643
87.9775 27.5313 8.33498
49.9908 15.6423 5.11068
43.0184 14.8376 5.66726
53.3467 16.9302 5.13285
68.2261 21.9342 7.04062
61.3196 21.3222 6.89415
68.5682 24.8283 8.85781
71.8311 26.675 9.76806
63.3634 20.0958 6.45347
40.1264 14.4472 5.34318
50.6622 19.0689 7.10497
38.7121 14.3244 5.29282
88.6651 33.9021 12.2786
70.0174 22.1159 7.42115
34.1051 10.4276 3.43354
82.8552 31.1437 11.6976
100.179 35.7477 12.7122
84.445 31.5336 11.5311
68.9288 23.4971 7.9082
54.4931 20.7746 8.08468
36.3228 13.4902 5.26644
31.2828 14.7938 7.76715
78.943 26.3234 9.64627
121.436 45.7093 15.6802
37.9814 14.669 6.11951
85.9526 31.3261 10.6487
54.9496 20.5237 7.96981
64.3879 25.3824 9.73201
74.2434 34.3585 14.9266
32.7252 11.109 4.50289
53.9288 22.9784 9.95427
71.8278 27.7603 10.1357
30.1845 12.4841 5.39215
53.1968 18.9986 7.38473
80.5472 32.0227 12.7603
42.2055 19.7839 9.06973
38.888 15.0826 6.41946
40.6301 16.7398 7.30087
40.7784 16.67 7.4343
49.7304 20.0954 8.00836
48.4423 18.7811 7.65908
60.0767 27.7799 12.9614
32.9024 15.2568 7.68278
47.8293 18.0398 6.89944
32.9489 14.5469 5.99653
67.7788 31.0582 14.0955
46.7409 23.1228 11.4211
27.3229 10.0267 3.94083
23.7666 14.0398 8.61378
67.2485 25.3074 10.0879
82.9431 36.7094 14.5543
30.7599 17.6189 9.92932
65.4206 25.343 10.2317
60.1311 26.424 12.1435
47.1616 20.8594 9.497
59.7526 27.3905 12.0771
56.7238 26.7135 11.5636
45.7852 23.3983 11.2908
29.3403 13.7591 6.33561
25.2736 13.512 7.26439
54.3214 28.588 14.7094
57.3027 29.561 14.9752
45.2847 20.3088 9.35832
62.7151 32.9132 17.187
50.7225 22.7665 10.4295
54.1897 26.6901 12.3377
60.7049 31.3143 15.2688
44.0773 20.5279 9.50472
39.4591 19.9364 10.3253
47.2772 26.7835 14.261
31.7356 15.9796 7.89263
29.1671 17.9386 10.4627
27.5184 12.22 6.11192
31.5612 15.5144 7.87609
42.5694 22.888 12.0526
28.0779 14.7625 8.31463
49.8367 25.2308 11.7461
28.9592 16.1395 8.6757
38.1538 22.1589 12.2887
32.0882 18.0908 10.4136
36.3891 17.8016 9.0153
41.8713 26.1273 16.1571
42.7559 20.668 9.9002
21.6505 12.4911 8.12837
68.813 37.2801 19.5023
43.4621 26.8609 17.2249
49.1611 23.6359 12.5548
34.2782 16.6686 8.71964
53.3163 27.7395 13.4189
28.5793 20.0617 13.5953
47.8373 25.9816 12.7901
31.5169 25.9249 18.9649
35.5213 14.898 7.53423
40.8058 19.4907 8.9868
38.7581 21.1916 10.5693
38.9742 26.8327 17.4845
27.3035 15.8451 9.45449
29.2321 18.4745 12.194
40.8667 21.7734 12.301
48.1575 30.0748 18.3901
42.3097 24.0534 14.4177
41.8012 21.859 12.0152
36.141 23.2844 14.9917
48.1433 28.1365 16.5633
18.8411 11.5688 7.81568
24.5889 16.7409 11.503
27.2787 16.4412 10.8043
42.6389 23.1322 12.8705
39.5903 23.2359 13.4528
41.9295 28.0479 17.7282
33.9833 23.4711 16.5127
41.2967 23.7328 14.2996
43.4791 28.1938 18.0581
29.2816 18.3238 12.6576
41.6097 23.0911 12.2755
37.7555 23.8298 14.4003
35.1924 23.8301 15.8941
29.5678 18.5441 11.8436
37.9087 25.7378 17.8544
37.0346 25.4015 17.5163
54.9556 34.5998 20.7751
39.4208 28.026 18.768
13.1121 10.7405 9.77699
44.5397 28.1144 17.37
17.6353 10.6419 7.50536
23.0024 15.1321 9.49175
15.7444 10.9704 8.25177
33.8926 23.3087 14.6844
21.2574 15.8688 11.6698
35.8109 27.5958 21.1897
40.2519 26.8653 18.6936
31.4617 17.9493 10.8429
16.4388 11.5432 8.45336
22.1541 13.2961 7.80872
29.3187 20.9674 13.4403
44.1729 34.7257 25.6325
40.5495 30.0634 21.0101
21.8759 17.6413 13.7745
41.1573 30.7704 22.4764
22.9786 22.797 20.5709
27.4259 18.296 15.3818
40.1167 23.693 12.9893
28.0659 24.5938 20.1221
36.1747 26.2662 18.7751
21.5886 16.5813 13.8495
36.4912 27.2763 21.9737
44.9544 32.0761 22.3402
41.4135 36.0542 29.6386
41.6225 25.6719 15.9101
32.7003 24.2725 17.2416
29.0114 22.8313 18.4188
29.1594 22.58 16.1225
14.4341 13.3616 12.3907
29.4816 20.6571 14.1372
20.9337 17.6785 12.9323
6.81024 6.96023 7.55123
21.1899 16.7075 14.5304
32.0654 25.2503 19.9092
36.3835 25.9113 18.7999
46.3116 37.3237 28.0668
32.377 28.9365 24.6642
40.7342 30.3038 21.3106
20.0853 18.6553 17.1668
36.0285 32.0743 28.1341
22.7823 16.0562 12.107
9.18052 7.63934 7.99749
16.3363 13.755 12.1143
28.5457 25.1149 21.9153
29.2454 21.3257 16.1402
23.423 18.8295 15.4043
13.5322 11.5574 11.6746
26.2496 18.0482 11.0321
25.4063 24.5649 21.1363
36.482 30.5731 24.2455
18.5779 16.4294 13.8928
13.1694 14.2073 15.079
18.4335 16.2392 14.9629
17.1118 16.6292 17.7769
28.3436 22.3163 19.3999
28.3373 22.7337 19.4942
34.9137 28.0626 20.9909
18.8877 18.6035 18.8515
27.1268 24.069 20.9201
26.8596 20.9421 16.6902
25.9776 23.2624 19.4586
28.0821 27.8935 25.8405
22.5001 20.181 18.801
18.4267 15.589 14.3594
23.4989 20.883 18.6131
22.0153 19.5045 18.407
17.7565 14.9771 13.9271
22.1864 19.8726 20.153
29.4315 25.3516 22.7498
25.2379 20.6493 16.8405
20.5233 18.4777 17.4011
29.5647 28.4726 25.3786
25.4962 26.0519 26.1616
20.4624 14.5715 11.5578
23.9902 24.4496 24.9056
41.698 35.9529 28.4299
26.7757 26.0568 23.1651
24.6376 28.6588 32.5683
30.448 21.3779 13.4797
21.2732 24.3569 22.36
17.1842 19.768 20.8979
14.6761 16.4063 19.622
29.5157 25.9871 24.4672
26.5058 23.8792 21.287
35.4135 37.984 38.1708
31.645 28.0243 23.997
27.3871 27.1643 25.7621
23.6976 23.5915 23.3422
23.8215 24.3219 23.4351
22.0344 25.3613 26.0821
13.3304 16.8277 24.1088
28.9518 19.8684 13.9228
29.608 32.6768 33.0179
20.0886 22.2405 24.6664
16.0852 16.6012 21.874
37.025 32.0003 26.7739
36.9446 41.06 38.9777
20.5817 20.9451 21.9166
20.2359 25.3668 30.5333
24.5637 22.8094 22.4709
24.9287 31.0814 39.2467
44.5893 40.6344 35.9933
15.6392 23.0903 39.0172
80.9954 78.4501 66.0543
31.349 36.0591 37.4799
12.5258 12.5942 13.4127
10.533 16.8746 27.5028
30.565 25.7631 21.8914
16.3929 17.3144 18.2945
19.5341 22.1745 22.4716
16.2489 19.5026 22.9663
23.8842 23.3549 20.6081
12.9166 20.4678 31.229
20.4314 15.0328 12.0872
12.7469 12.7411 12.5359
16.1986 22.2336 28.2694
17.7202 17.969 18.3831
12.1136 17.4172 25.9707
23.4413 22.918 25.1545
20.2529 15.8174 14.8325
18.9732 20.4024 21.9477
16.6072 16.6777 18.4044
28.7109 30.5123 30.7483
15.5397 19.2031 23.3909
20.191 24.4325 29.7025
34.1408 35.7956 34.4397
20.2117 26.8606 31.0007
18.1486 21.6476 28.2709
23.4115 24.436 23.3596
10.8833 20.12 32.3002
18.2176 17.529 23.091
21.8777 19.8485 20.4098
26.1685 26.8557 24.0089
18.6039 27.8687 38.5103
19.3811 16.3827 15.1543
19.6759 25.0053 30.6789
20.9821 21.7965 21.2351
20.6529 28.4981 35.49
20.6305 23.4414 26.7323
23.8185 29.3706 32.3758
17.8316 23.4234 27.8078
17.3785 23.1036 30.1358
21.7315 29.4468 38.4171
20.1421 21.4999 25.4124
13.0695 15.9264 21.5848
21.0934 27.0435 33.9864
16.0646 14.1589 15.3175
24.3689 32.0407 40.0207
15.3016 14.7244 19.5232
21.0856 20.6496 17.3324
13.3746 18.1011 19.794
12.2231 17.6593 23.9179
14.0141 16.8062 17.6495
12.8359 21.8166 34.0821
22.8845 28.6425 39.9482
28.7764 28.4123 27.332
8.21684 12.4678 23.304
27.3662 30.4802 32.5408
33.7922 47.0583 57.5575
21.6462 23.1078 26.4134
21.5238 29.8329 40.252
18.7252 21.8004 27.1774
13.1231 12.8956 13.578
17.1127 24.1185 32.3009
21.9679 27.8454 31.3114
11.4564 16.067 21.5848
13.1199 15.2967 19.95
12.8852 16.8956 21.7319
12.7175 17.3041 24.0411
16.4626 23.035 30.3215
8.07271 9.00272 16.5308
18.8181 21.4465 22.6845
22.2711 32.4634 39.1861
19.26 30.5828 45.9172
26.2684 34.6848 46.0195
20.88 26.9574 37.5014
22.2058 25.2343 27.4342
8.49114 12.2037 21.6846
22.2554 30.7674 36.7258
14.1814 16.5755 20.2622
20.0451 27.1804 32.3189
11.5588 21.1553 37.008
13.7639 14.6196 20.5729
19.8727 27.2082 30.4409
14.0282 23.733 33.5774
8.91444 11.1871 17.8838
7.7564 10.4536 21.5234
31.8151 40.5983 45.9968
8.83525 10.6877 15.5321
14.7956 21.2418 27.926
14.6235 20.1143 25.4385
12.4236 19.6943 28.9027
15.5105 22.3815 32.4968
15.9553 23.7716 31.9978
12.4284 19.0743 31.7999
14.8341 18.2873 26.7909
17.9979 21.5739 21.4402
11.6792 22.8955 35.5233
14.7831 23.6885 36.7477
9.00098 10.1696 19.5888
26.8236 44.5251 64.6748
15.4045 17.7305 28.5022
20.1998 23.6005 27.3199
12.0751 19.1192 33.4198
17.5941 21.4936 24.6553
16.2772 26.4661 38.5433
20.8395 33.1632 48.722
18.9435 25.6956 33.1886
12.9134 19.2086 30.9958
15.1503 23.7336 38.3467
17.4592 26.594 43.6569
20.2289 26.0716 33.8224
10.9047 15.0263 23.2712
17.8235 29.4945 43.6946
14.2731 16.1768 18.422
15.635 29.3328 44.8366
8.13086 10.8702 20.8891
19.0957 29.2734 35.5949
6.77609 13.5841 28.6262
16.3165 23.5435 31.2806
7.65279 11.6815 20.5608
8.90915 12.2923 21.2575
14.0369 23.0862 34.2804
10.6338 17.8059 34.6384
17.1991 23.7191 37.6753
21.4641 29.7029 33.4053
8.92253 20.0932 41.5892
17.6677 25.7812 37.3883
17.5955 27.8598 39.1658
12.9816 23.4146 38.8753
10.4661 16.5746 29.3411
10.9612 19.3036 39.288
19.8206 25.3892 36.6961
15.0974 21.4853 27.8287
8.84135 17.85 38.3442
15.4439 16.5877 20.1952
13.8192 22.3332 29.4205
9.67676 16.0119 25.5051
10.239 18.4585 35.9202
13.6716 18.3494 32.4109
26.5809 38.0029 42.6114
6.79018 15.921 31.1887
13.9286 22.8038 36.2261
10.092 20.2548 41.3936
13.7744 17.112 24.4022
13.1785 22.4941 36.0429
16.547 28.6358 44.4474
10.0495 18.5338 41.1976
23.0354 34.2654 48.5098
15.9708 25.7979 40.0297
9.45597 12.5942 19.5115
9.90985 19.102 31.8959
7.14907 10.0702 17.0098
7.20717 10.3913 13.9497
9.05913 22.8511 49.0962
14.111 18.2254 30.2811
15.5637 20.0261 22.1864
10.1116 19.6932 33.4219
12.3149 20.5751 28.5987
5.44971 13.904 32.138
10.8723 16.9758 27.6459
8.75684 14.8193 27.4467
12.5865 20.6073 31.9861
7.88283 12.9954 21.7705
10.8665 20.5076 33.3651
6.39879 8.81769 17.1381
11.2805 24.8247 47.7207
12.7399 16.7097 23.8174
11.0964 23.0357 45.0978
15.0311 26.8778 47.6825
9.60084 19.0307 46.192
15.4299 21.0527 31.4792
12.6117 21.2946 34.2401
11.4641 21.0636 34.0676
6.0648 9.87854 27.9047
17.6272 27.4298 36.0295
10.118 19.1622 33.7044
8.65585 13.8872 25.6791
12.3657 23.2377 34.2574
12.7402 25.3942 42.2287
7.4936 16.4172 40.44
12.6326 18.2064 28.1814
8.89013 18.9482 41.0336
11.9444 14.3434 22.0901
11.2153 17.6979 26.9667
8.89947 13.7854 16.7382
6.68202 14.4954 23.359
4.69603 12.0916 27.8779
8.3401 17.339 36.0446
9.57843 14.8582 25.093
11.8007 20.7229 29.9897
6.5432 15.504 33.9335
8.01998 16.4335 37.64
10.7448 18.0701 34.8943
11.318 21.5525 40.5402
9.89908 15.4872 25.8585
7.41853 17.6623 41.0244
12.7854 19.1504 33.4303
16.3955 32.2482 50.6801
7.18223 12.7047 30.2602
10.7836 17.5087 29.6982
12.7177 24.9161 40.329
9.53528 19.1354 36.1342
6.06777 12.6757 33.2858
9.58553 16.7004 38.7194
17.4038 26.0639 29.8672
8.33127 19.5647 40.933
12.6415 24.939 45.4185
14.6057 26.5818 41.1973
6.4868 16.3174 46.1183
13.3452 19.4433 29.305
7.02105 13.0167 27.4348
11.2507 22.8076 40.823
10.6411 18.8285 29.643
5.94585 13.8341 27.4468
4.99182 14.038 40.084
10.3385 16.8033 35.3648
10.0446 17.9376 33.1835
9.54965 16.949 30.4473
5.74889 10.1008 21.0008
7.79584 20.9317 56.3982
16.3279 21.8605 26.0044
8.56552 16.0931 24.9778
7.81464 15.7237 19.3481
3.55735 13.529 33.5509
6.82016 11.7261 24.2105
8.099 16.0922 28.92
5.34976 10.1891 21.2375
9.34748 25.345 55.6283
9.80977 14.7281 26.7233
9.61494 19.6087 32.5798
8.55268 22.4826 47.6075
7.59703 17.4311 48.1554
11.0729 15.5461 26.2513
10.6058 23.0119 45.8372
10.0123 21.6278 46.5574
10.6262 16.978 22.8152
6.51852 18.143 37.6204
7.89909 15.7451 34.4907
10.7738 22.262 37.8957
6.62395 16.1313 38.4103
8.76349 15.5332 23.3011
4.63827 13.1352 34.3358
10.1627 20.4468 34.9072
6.08164 12.671 23.3702
5.87356 15.3273 30.7416
4.93198 12.6698 31.9692
6.64866 14.0969 32.1463
5.88592 9.57552 21.3817
6.4439 14.1264 30.7378
6.69624 14.6815 35.4898
9.96998 25.0593 53.7715
9.30166 20.3298 55.8155
11.5783 13.9927 17.8337
5.84022 16.9025 44.821
9.68487 12.3965 23.1031
11.0239 24.0793 44.6259
10.521 24.645 51.6659
9.027 15.0962 25.5029
8.21084 21.8994 48.7598
6.04251 9.3451 18.2322
6.55499 17.6772 39.3813
5.99508 12.7802 31.5655
5.31537 6.76452 14.1474
6.78833 16.669 38.8007
8.39585 18.4142 38.4741
7.77453 17.7406 41.0974
6.21412 10.9343 31.2653
8.99626 15.2924 22.667
5.14456 13.3634 33.6126
9.48357 22.8334 48.0761
6.94955 14.8035 40.8864
9.79764 18.8416 36.6747
7.53611 16.07 34.026
7.38215 16.6123 43.2091
8.62864 13.7315 23.4198
7.15336 18.1881 38.5744
6.71058 17.5374 47.1434
8.39493 16.5327 56.0221
18.9577 35.0437 50.2275
7.69501 17.5793 36.3727
6.97927 15.5636 29.5323
4.40596 10.4633 23.29
5.46792 14.4594 41.1066
9.67859 21.0576 42.9242
6.92113 11.215 19.0379
5.96104 18.1358 48.4063
9.6507 19.9369 42.78
10.6776 24.7327 52.9345
7.38942 12.9351 29.7053
7.5506 16.3048 31.9332
5.05275 11.4838 26.5805
7.98247 21.9057 52.7691
8.88384 19.059 42.4984
7.77541 15.1095 30.5408
6.98979 17.2509 36.4093
6.40099 13.9144 30.8684
5.11039 11.0677 22.5
4.40471 10.3855 20.4013
3.25089 12.3989 39.1765
7.17369 14.2256 28.6367
5.83847 15.6012 37.4456
4.57295 10.8474 37.0534
7.86046 12.9715 24.077
7.26241 18.5216 35.6235
5.18602 13.0652 33.2966
5.31723 10.4477 24.8976
4.4598 9.36293 24.8263
7.61074 21.2605 55.5111
11.5775 25.0539 40.1193
2.14555 3.56057 17.2741
7.64539 21.152 42.8486
4.39633 11.4617 34.8254
5.31048 9.43419 24.3233
4.60516 8.15354 17.1102
6.20085 16.6015 31.2438
2.7917 6.16936 19.3967
6.44237 17.2669 36.1052
5.21432 13.4576 33.9673
6.13411 18.1541 42.5277
4.62546 12.1604 37.095
5.31179 9.90986 29.3318
7.74702 17.5732 44.7844
8.44619 16.9291 34.9416
5.71737 12.2927 37.6565
10.1686 21.9927 35.3093
3.95433 11.7789 31.717
5.46221 16.3581 49.7805
8.6704 21.4144 61.1552
10.1088 17.8183 43.1059
10.3773 22.818 44.8353
7.5563 15.8401 26.8972
6.63743 23.2155 56.3886
6.95178 17.4007 47.774
6.67628 15.2972 40.4469
6.53463 14.5221 39.5385
8.51814 20.9033 48.7701
8.46249 16.9083 25.4565
3.46938 11.6907 30.4259
3.51828 9.53502 32.2749
5.72515 12.7503 32.2952
6.94066 17.0322 31.1838
3.55819 10.5347 30.9741
6.73081 20.1647 53.8239
6.51402 10.7027 18.1101
4.78547 21.0758 61.8415
6.17044 9.6106 28.9023
7.61999 16.6429 27.1337
2.65294 9.98736 38.8729
7.74173 18.6673 41.2066
5.98297 14.463 32.8362
5.64222 18.9057 48.6855
5.16375 9.7661 22.2677
3.12135 10.3596 41.3712
6.59263 10.0371 21.4727
5.33059 13.3215 31.1811
4.50682 8.29477 16.2143
4.51062 13.0067 28.5779
5.53251 17.8526 48.3797
7.10016 14.9625 33.3861
5.4248 13.2142 26.859
4.06821 12.8987 32.8447
5.07835 16.6315 47.0469
6.95217 17.1298 35.4215
3.55643 10.3523 30.6663
3.98633 12.2552 39.1331
4.85568 11.9476 33.694
4.61133 10.0357 23.6102
3.58122 10.7053 31.2672
4.2995 9.32387 28.2003
6.80106 20.3397 47.0356
3.98639 7.51377 19.6315
3.06528 8.4558 27.3172
5.18449 16.0669 41.5719
4.84617 12.502 35.1863
5.86744 18.183 49.4153
4.59336 9.70676 38.4339
6.85994 11.7198 24.8296
5.58823 18.0431 52.9748
7.13442 15.9538 47.154
7.0674 12.6283 22.4799
4.24343 9.00544 17.3898
5.86486 22.1003 62.4062
7.99067 18.3637 28.6161
3.84804 17.1012 46.9692
4.33714 10.3385 38.0768
6.67218 15.7622 33.7169
6.35555 24.5872 69.5545
6.49228 14.2721 45.2405
7.91158 22.3651 46.9305
4.19323 21.0022 109.618
18.3915 38.8825 81.2903
10.8831 33.4783 105.964
16.53 38.3609 70.3936
10.25 45.601 151.883
13.4889 14.1737 34.4706
7.69394 19.7581 45.2897
3.35112 5.10705 65.4766
23.0791 60.8523 88.8535
4.78378 19.9779 68.3978
7.19709 13.6043 38.9984
6.8906 19.9242 50.8151
5.47595 12.5899 34.4724
5.04249 10.9895 24.1917
4.39175 14.2724 40.9427
4.68122 8.45924 19.3005
4.21488 12.0509 32.8412
6.51098 21.0103 48.4631
4.31408 9.31006 20.9727
4.06725 16.6186 54.8224
6.98136 16.8212 37.1508
3.6126 7.93124 22.4406
6.04551 22.3647 51.9661
3.20835 5.85222 13.8487
2.61146 13.094 40.2355
4.32239 17.0039 61.5297
6.21685 13.5943 43.5191
5.16451 9.46051 30.4734
7.57106 27.9265 83.5048
8.53682 16.2957 37.1995
4.66947 13.9339 40.1473
4.84448 14.0067 41.1736
3.7754 5.80502 19.7916
4.07865 12.8912 33.9562
4.6799 13.2638 37.5405
5.74405 15.9426 34.7877
3.84576 14.1325 50.8565
5.87598 16.0414 45.2815
6.12493 18.2508 51.8484
4.54422 7.463 23.0509
4.57005 16.4401 48.9313
6.14094 17.9792 45.4224
5.14005 13.6436 38.5215
3.61076 9.37121 30.1189
3.65241 6.44832 16.5931
3.16525 10.5239 34.7314
5.36657 14.1649 35.6153
5.68696 20.3963 54.4811
5.38357 13.0203 25.3885
2.48617 14.2463 61.4827
7.09657 16.2306 41.8095
4.93168 14.4918 43.0514
4.84622 14.7642 48.4606
6.00714 14.2356 32.8942
2.65827 9.32617 44.5257
7.56881 19.5354 35.636
3.61061 11.4402 33.5166
2.47464 8.28533 43.8457
6.55543 11.0483 16.8416
3.58529 17.3288 53.2162
4.52007 10.9169 32.9647
3.83194 8.90681 27.7121
4.74009 12.1456 22.1153
2.98126 11.5313 30.0604
3.25376 11.0635 33.1904
3.16885 9.99288 38.6329
5.29367 14.7948 34.9276
2.89247 8.09705 26.4816
3.20663 10.6358 31.0248
3.07097 10.5987 45.9496
5.13881 9.16275 24.7069
4.6814 15.2459 29.9539
1.70267 4.5914 28.285
5.53934 17.1283 30.1286
2.6715 11.7004 31.3343
3.27199 13.0413 46.8649
5.44829 19.6331 51.108
2.51253 5.90997 29.4596
2.58926 7.77377 46.9222
5.45657 11.1569 38.2985
5.02288 11.584 52.3968
8.138 17.3584 27.0819
3.88224 16.5574 46.0959
5.73232 19.3788 50.8168
3.81875 12.708 49.7428
5.4947 12.9584 31.5338
2.23405 5.69937 28.3092
4.47595 11.206 17.4898
1.1068 7.96497 50.0522
5.91868 10.4534 19.9108
3.58194 14.442 48.963
5.6085 15.6949 51.1517
6.6723 19.8296 43.7341
4.29164 15.349 50.0997
5.67455 14.2654 32.1054
3.75232 13.8781 36.1486
2.61703 8.19788 33.5007
4.13388 12.3018 37.4297
3.80869 10.2593 38.3067
4.92256 16.0883 45.388
3.75426 9.8955 46.6821
6.28714 18.4834 47.4933
5.25481 16.0894 41.3014
4.52499 14.0948 40.2416
5.62875 21.2252 52.2302
5.33281 22.8811 74.3878
5.70661 12.306 27.4404
2.80436 10.0731 32.9073
3.80451 13.909 42.8699
4.40703 15.228 43.828
3.39904 11.1005 41.6894
3.79958 11.0434 36.4881
3.29669 7.4205 20.7631
1.96333 9.06165 45.2699
5.91728 19.0668 55.4797
4.00203 6.22516 27.8271
4.39482 14.2432 40.2699
3.66881 10.8211 44.4063
5.81842 16.565 39.8404
4.29522 14.2795 35.1688
3.58107 12.5397 38.4779
3.47105 8.5364 26.2256
3.95284 17.1374 48.2277
3.28918 10.4143 47.9987
4.64479 9.6153 29.4682
3.74109 11.0697 25.5096
2.83472 9.842 27.1115
3.03385 8.62189 14.8068
1.25894 8.9776 36.2261
3.67178 12.1994 36.3355
3.00898 7.52276 22.2339
2.30277 11.4739 54.5717
5.362 15.0644 50.2933
3.89806 6.6237 20.151
3.15542 10.1687 27.1262
3.18453 12.1758 30.4635
2.21035 9.41746 38.9968
4.21389 14.6712 50.5125
4.16832 8.99674 29.2326
3.13782 8.58877 25.7084
3.3264 12.0709 28.7401
1.71344 6.72904 34.7231
3.82396 12.1867 50.1869
6.64875 24.2945 67.2784
5.31862 14.1679 38.6735
3.44477 8.12769 25.5812
3.53269 13.3347 37.7395
2.62547 5.65583 16.4838
1.60151 6.68846 25.4963
2.6548 8.99172 32.9559
3.36085 10.197 24.2646
2.63215 10.8418 37.423
3.10055 9.77168 35.0901
3.37909 8.55974 31.7563
3.99132 12.1613 22.093
2.55803 13.0064 33.8396
2.74276 13.9687 52.6055
3.85656 11.7232 43.208
3.14556 7.64943 27.9963
2.83891 9.25021 36.971
3.58209 10.1717 34.3629
3.40304 7.12307 14.099
2.70923 16.4792 44.7127
2.9994 12.6379 55.9694
5.12419 16.5596 47.6437
3.17824 7.47851 29.9727
3.4638 13.7624 66.3914
6.69205 15.8819 35.9619
3.16707 10.685 39.3844
4.15488 14.8412 38.721
3.18837 12.2238 39.5467
3.16134 9.84466 33.4407
2.98511 8.55763 27.3633
2.57867 10.9545 36.4992
3.35944 11.7229 40.8912
3.97598 14.7153 36.0701
2.04783 10.7507 56.5745
4.62784 9.64311 27.8229
2.51319 6.4098 17.9851
2.14491 10.9941 41.4501
2.71167 6.69118 32.7039
3.22624 9.9309 36.4894
3.77399 14.546 37.5062
2.67381 6.52371 29.2268
3.28586 10.0729 23.1286
1.771 8.04097 31.8158
3.00886 12.0594 48.0636
4.20374 14.7574 56.3436
4.93086 15.7044 43.2664
3.29602 9.94918 29.7848
2.51336 11.0733 65.2584
6.99818 18.8568 33.1784
2.23807 10.6742 36.6684
2.71991 9.33759 38.4843
3.20303 12.7693 51.3616
4.26615 9.2641 39.2922
4.29966 10.7079 26.0051
3.01879 12.9465 24.7454
1.57031 8.19728 36.3168
3.3322 13.7083 52.0138
4.82611 21.7935 101.295
8.755 18.6846 28.9444
1.73316 7.90129 31.2517
2.34678 8.00827 38.6771
3.24803 6.97729 19.8022
2.52108 11.1886 39.3225
3.56912 11.7669 30.3118
2.55776 10.9225 38.2777
2.74646 7.46456 25.5509
2.79496 13.5407 56.9626
5.48475 21.4952 66.0574
4.13998 8.93249 36.1548
3.54358 13.6212 32.9094
1.98965 5.44894 29.8476
3.167 10.8179 26.6366
1.79547 7.11707 43.8387
4.4758 12.8573 20.6346
1.71539 10.2609 27.9769
1.80874 8.73177 31.5338
2.33812 9.34101 35.3526
2.83353 9.69888 31.1359
2.47431 10.5514 45.5441
3.35057 8.27443 32.0877
3.1916 12.313 47.8137
4.29382 13.5276 42.07
3.14631 10.96 36.4436
3.14801 12.5524 46.4747
3.31261 8.80381 41.1997
3.48263 11.5375 45.2454
4.05706 11.8319 32.3293
2.70549 8.88765 31.5777
2.41164 7.63106 27.6145
2.6407 9.22399 25.3057
2.23994 8.96309 22.1086
1.47912 8.54887 46.7985
3.65954 9.47355 33.1105
2.76666 10.5841 42.2968
3.63499 13.0912 34.2595
2.17216 5.63493 28.8611
2.41164 5.56049 21.4777
2.38991 10.1572 30.4382
2.40722 9.26932 39.0778
2.94144 10.424 36.2232
2.74906 7.74349 32.388
2.71697 10.0459 41.0642
3.66584 9.71412 20.7436
1.7503 8.50951 38.6703
3.62 13.1249 32.1972
2.23842 9.06367 39.9794
2.95662 10.3388 35.0807
2.58494 6.30075 19.2864
1.89367 8.62644 31.9515
2.13176 6.9873 41.3119
4.79217 19.4264 53.1897
2.87504 7.19866 40.938
3.7466 14.0195 38.1182
2.52417 8.52279 30.799
2.08192 5.07928 17.6958
1.4536 5.48882 31.3025
2.72325 7.96254 38.1611
3.79912 11.5425 30.4756
2.47992 8.96688 30.8442
2.87039 12.313 39.6394
2.54621 6.99396 27.1614
2.28658 9.61207 36.4708
2.54286 4.04972 18.8935
2.24975 9.51975 27.5344
2.74453 13.789 49.0878
3.86958 12.303 45.0004
3.3846 11.5319 33.0752
2.29731 6.59314 35.6638
3.36039 10.0994 28.6299
2.83149 14.8544 61.7864
4.32405 17.1865 62.352
4.3223 13.0079 38.4737
2.95714 10.3726 25.1556
1.53299 6.34539 32.4833
2.58363 7.76809 22.7207
1.45664 5.09447 27.1853
2.24997 11.0686 45.4529
3.57242 12.8789 46.5974
3.00497 6.17846 29.4896
3.11177 13.6977 33.2611
2.34155 8.70163 26.1995
1.44346 5.44773 24.4608
2.00797 9.75329 30.9951
1.84091 6.76039 34.4564
2.43698 4.97276 24.5491
2.3596 10.2474 52.5456
4.5138 16.7918 53.4042
4.04214 11.3582 22.0078
1.60378 8.53786 31.9
2.39884 8.91815 29.7018
2.02939 6.77275 27.3295
2.08692 12.6659 61.9642
4.06238 8.89129 40.8677
3.49106 13.3172 30.8726
2.04839 7.04536 21.5038
1.55228 6.83733 29.4195
2.27925 8.64261 20.6646
1.48585 8.78231 31.7813
2.09066 9.92645 52.7569
3.56677 8.62563 32.9455
2.90444 7.90234 18.3367
1.52803 10.3362 41.3147
2.6948 5.70664 17.7134
1.49798 4.988 23.7947
1.86594 6.8407 26.1842
2.23955 10.3617 36.7883
2.55417 8.6746 27.3907
1.89484 10.5251 57.6666
4.11957 9.4226 22.7969
1.93103 7.35963 30.8677
2.3175 8.89438 30.6775
2.36 9.83616 42.7409
3.07424 9.63968 26.7812
1.95382 7.46278 36.3551
3.25256 14.4208 51.9674
3.25934 6.34849 15.4667
1.86717 13.9607 38.9519
2.47079 13.2688 54.1729
3.34464 6.59266 24.2528
1.91228 8.90269 31.1075
2.05422 8.80655 34.0265
2.05662 6.26012 32.6175
2.32109 5.37785 25.8654
2.13844 7.08808 19.1002
1.31342 5.5389 15.8017
1.3366 7.44065 33.2026
1.92237 6.42724 31.8452
2.60629 11.5313 48.2334
3.55126 12.5273 37.5297
2.56887 11.4129 41.704
2.66538 7.55975 37.2707
2.5675 7.1964 30.6195
2.66747 9.27698 19.7373
1.41646 7.13895 28.3963
1.69255 4.71132 31.0762
2.62168 13.9754 53.8577
4.11162 16.6697 42.0241
2.37994 9.52359 36.2361
2.18295 7.4922 33.6557
2.12998 6.83102 26.8984
1.95601 7.29515 22.7471
1.48338 7.73685 43.8726
2.98121 10.8005 48.1328
3.60849 13.6617 41.0898
2.79393 9.71583 40.951
2.68795 7.83193 44.2412
3.44094 11.0886 23.7769
2.02007 9.8187 27.0563
1.87857 10.9683 38.6673
2.64456 9.17509 28.8776
1.83977 4.54272 21.5932
1.55785 8.29154 24.3622
1.6453 10.738 36.1112
2.27688 10.0371 50.7194
3.2334 7.76985 30.8106
2.34202 9.10285 30.045
1.93254 4.25703 20.171
1.56835 8.27431 47.5241
3.37886 8.42884 27.4036
2.12143 9.36031 33.5004
2.25988 5.95027 12.0627
0.695219 4.51442 18.4147
1.14721 3.88811 22.7676
1.99335 10.4426 36.0853
2.42272 7.84543 21.1325
1.40217 7.29068 45.2018
3.33573 16.0391 43.233
2.59808 6.98858 30.6881
2.16849 9.47537 29.8516
1.95002 5.30735 16.6582
1.10578 5.07972 23.534
1.65074 3.65463 20.5004
1.6278 9.16149 40.4727
2.67792 10.9199 41.5043
2.82865 9.26489 25.5336
1.74686 10.2347 48.5214
3.2641 10.6189 37.9063
2.43085 6.15879 37.9931
2.77269 11.4486 37.1754
2.45524 7.2934 32.7126
2.2672 6.16571 27.837
2.06135 6.23887 32.3206
2.2635 5.7125 34.6426
2.73797 7.65566 25.8488
2.39824 12.3928 27.7502
1.66413 8.19236 30.8057
1.96281 6.1201 18.4871
1.22828 8.11534 45.7622
3.14966 9.09793 35.806
2.44448 9.94489 33.0044
2.54146 12.1604 27.4959
1.37435 3.20599 14.9665
1.27379 8.30279 34.838
2.09389 5.64642 25.3251
1.73299 7.71914 41.2835
2.88821 10.8868 44.901
3.14529 10.4705 46.4125
3.24728 10.9448 23.2213
1.56488 6.48236 19.9417
1.45014 7.97463 30.6304
1.7509 5.6423 31.1114
2.26694 7.98192 28.0174
1.86411 6.09751 21.6504
1.50901 4.58217 28.1227
2.08944 11.921 47.6419
3.27603 8.90136 28.4255
1.83868 6.55971 25.3608
1.95902 9.81469 48.452
3.60821 16.2601 46.8857
2.75003 8.41117 32.5899
2.03079 4.73627 24.8268
1.90832 9.0271 28.6712
1.86987 8.0114 20.745
1.15707 4.97152 26.7171
1.91167 7.77335 18.0283
1.30115 7.97736 30.9573
1.75382 5.18102 42.4637
2.86847 12.8157 34.3887
2.08439 6.60814 44.2728
2.86926 10.2596 41.3964
2.62897 9.95377 56.7828
3.84728 12.1654 41.1916
3.22106 21.9626 52.3272
2.97825 8.37728 26.4842
1.62991 4.62286 26.1424
2.05275 8.2557 38.8106
2.37325 12.0696 38.7083
2.50945 7.63866 20.1353
1.3957 9.08556 45.5179
3.08236 9.74227 33.8423
2.05066 6.59761 37.3362
2.51315 8.84777 35.3017
2.37885 7.01707 27.8011
1.81234 9.50934 29.8027
1.89673 11.5587 30.917
1.83858 9.1498 48.9121
2.99604 8.24973 45.4752
3.3134 9.87318 26.2438
1.70307 6.73498 19.7586
1.28773 8.43268 46.0865
3.10383 8.90026 28.6399
2.00011 6.77408 24.4162
1.53855 8.28662 33.7524
2.13885 6.70346 47.8284
3.15607 14.8031 46.6169
3.09198 7.78219 26.1027
1.57466 6.58181 38.5142
2.71713 9.12919 48.8089
3.33775 11.5068 29.0551
1.83713 5.03753 18.1333
1.17279 5.65393 24.5629
1.65533 8.54044 39.3922
2.67651 11.6895 31.663
1.93252 5.42119 37.1788
2.28808 6.65653 29.4847
2.14057 8.81453 21.2496
1.27991 5.89408 35.1569
2.31931 10.6802 35.5789
2.18471 3.97514 15.4879
1.25805 9.64449 42.1626
2.62169 9.88736 42.5158
3.0171 10.202 33.8947
2.21594 5.21206 26.6433
1.86785 8.54966 26.4091
1.77143 9.20424 53.8433
3.31749 8.59264 12.0344
0.934981 9.0501 38.6693
2.29563 7.70166 27.079
1.70365 7.26679 33.2161
2.17555 8.30329 34.4557
2.28358 7.90588 19.4725
1.11095 5.52932 24.652
1.631 8.37832 28.8814
1.74184 5.51532 24.3892
1.64437 8.29194 42.4686
2.74967 9.329 35.1824
2.23011 6.23659 47.7927
3.31783 12.8726 44.197
3.04854 9.46903 20.1309
1.24557 5.16926 34.6541
2.26391 7.42803 33.7463
2.23704 9.33317 33.9186
2.28304 9.05992 33.7454
2.0588 6.13147 27.1795
1.85536 9.50181 29.6721
1.92621 9.56717 19.4221
1.00028 4.40962 64.7137
4.40831 13.5715 20.499
1.22679 8.11002 43.6634
2.73292 6.38743 19.2482
1.3672 10.5411 32.1055
1.96782 9.54577 40.6763
2.40532 12.2754 46.0486
3.12122 10.7435 38.3761
2.27585 6.1108 27.6716
1.90638 5.98347 28.14
1.93153 9.64799 29.8042
1.95827 8.32027 37.677
2.31776 6.84458 37.6779
2.30243 8.81029 40.3186
2.48589 10.9712 32.1741
2.05126 4.66896 27.4212
1.71707 3.74354 21.8479
1.56659 11.2745 34.6416
2.23158 5.66258 30.7006
1.97348 6.9011 40.8618
2.66275 10.2367 35.1132
2.42445 10.0347 22.3889
1.2701 4.04348 21.6048
1.35363 11.5698 25.069
1.52917 6.09276 30.2473
1.8264 4.86108 28.8942
1.88649 10.1651 44.5662
2.90352 10.0082 46.0117
2.87917 10.9547 40.3217
2.55077 6.72928 26.4013
1.72383 12.632 29.265
1.81488 4.37379 34.6612
2.263 13.3724 45.2173
2.97776 11.612 74.3337
4.88358 16.602 33.3495
1.92939 6.28985 31.0744
1.92219 5.85068 21.4233
1.48426 8.48311 37.5178
2.49955 15.3514 87.6447
5.66318 20.1923 46.3235
2.7966 10.5178 48.3398
2.82133 9.06152 50.6824
3.27617 13.0991 21.0335
1.24228 5.48797 57.2544
3.63904 13.6597 29.4985
1.75761 5.75679 19.0175
1.18499 5.07376 20.8361
1.18374 4.90941 43.5026
2.73706 7.84808 19.1652
1.18362 9.28831 27.6086
1.69119 4.3375 35.6518
2.30517 10.6205 22.4871
1.50431 6.80204 24.2982
1.41894 8.33687 39.3103
2.52153 7.68067 30.4557
1.83182 7.5875 26.3551
1.77433 6.46575 24.9353
1.60532 5.47494 29.42
1.97634 8.46876 31.7592
1.95643 7.63876 34.8074
2.0529 5.33496 41.525
2.72225 12.0083 22.887
1.25473 5.50185 22.6847
1.45585 6.00049 42.7269
2.68909 13.0312 24.9165
1.59817 9.0312 50.4552
2.96991 7.26193 26.6882
1.61682 5.33626 15.4658
0.948383 3.01561 29.5524
1.9043 9.91375 31.0487
2.02724 9.36837 34.9696
2.11247 8.24625 42.2005
2.68574 0 0