# pn-170911/RbIIR-45-AMC2-1280-1959.psd
# Power spectrum* (dif=0,1,2) (really just |FT|^2)
# NOTE: only the first half! (symmetric)
# weeks: 1280-1959
# 168 clock-days, 378 excluded
# PSD: 1441
926.207 0.194098 0.0516311
41327.4 1.30935 0.175407
126417 2.45319 0.126425
27768.3 0.787687 0.139505
55273.1 3.63466 0.141213
8772.53 0.727127 0.168134
9781.96 1.29749 0.125065
6148.24 0.962239 0.1365
10513.1 2.69751 0.14517
3417.39 0.870844 0.153767
10186.3 4.43445 0.127317
2404.27 0.910549 0.139184
7126.41 4.43954 0.13571
2041.76 1.19651 0.145698
5416.24 4.78451 0.126598
1658.09 1.28818 0.146438
4333.4 4.85343 0.1478
1558.73 1.78581 0.143984
4669.07 7.33289 0.138831
1283.41 1.7485 0.14735
3875.1 6.79883 0.15883
1550.53 2.5537 0.159603
4553.42 10.2426 0.15006
1194.21 2.53729 0.140715
3009.68 7.82129 0.174469
1240.56 3.40191 0.157076
4146.05 12.7222 0.173405
973.555 2.91423 0.142982
3031.25 10.5292 0.168561
1078.64 4.19578 0.152499
2413.6 9.78881 0.173013
908.836 3.92244 0.170434
2831.07 13.0434 0.196006
978.62 4.73322 0.145321
2629.49 14.1312 0.186995
923.776 4.98073 0.189916
2992.21 18.0531 0.217687
1160.9 6.74149 0.199725
2205.09 14.7311 0.217347
852.403 5.8225 0.184755
1938.86 14.2819 0.271222
962.175 7.19846 0.185672
2291.55 18.8283 0.286583
896.705 7.57979 0.231871
1657.22 14.4418 0.269649
775.11 6.80649 0.220311
2025.82 19.5748 0.323803
879.844 8.80257 0.243563
1649.23 17.518 0.347998
797.122 8.54357 0.254218
1759.36 20.2483 0.368067
857.909 9.88916 0.261651
1693.49 22.3212 0.446276
915.366 11.9791 0.307243
1418.79 20.1353 0.409068
846.276 11.6316 0.328106
1553.63 23.3257 0.479424
908.942 14.1064 0.35556
1316.57 20.656 0.484831
814.666 13.3363 0.416162
1444.55 24.562 0.546692
708.803 12.4181 0.315227
1520.36 27.5098 0.655302
703.074 12.36 0.379234
1204.82 23.6101 0.597516
832.67 16.5327 0.484183
1176.24 24.5325 0.603197
725.642 14.7378 0.495223
1057.71 22.6855 0.626297
760.537 16.3585 0.48053
1174.16 26.6447 0.758452
652.147 14.6806 0.530728
977.172 23.1469 0.681877
647.406 16.0815 0.568826
940.445 24.4384 0.766211
572.517 14.5218 0.536853
1014.4 27.0668 0.87461
602.142 16.3837 0.598186
920.564 26.1779 0.878645
619.815 16.9585 0.597643
874.317 27.4416 0.966134
586.199 17.9433 0.740806
779.919 25.0729 0.977146
541.345 16.5369 0.689539
792.55 26.2063 0.995642
511.784 16.6038 0.67372
728.421 25.4986 1.05094
530.522 18.1867 0.825809
681.843 25.1826 0.996755
498.496 17.7565 0.88398
587.072 22.5093 1.04762
510.981 19.5046 0.912066
768.172 29.7976 1.24153
489.212 19.2508 0.918236
655.226 26.5734 1.29411
461.656 18.9983 0.934993
650.564 28.593 1.34661
462.681 20.2043 1.0362
645.43 30.0296 1.49885
498.402 22.1298 1.18002
708.709 33.7372 1.68238
476.03 22.3287 1.1571
599.196 29.9498 1.64059
421.148 20.5488 1.16026
542.35 28.1139 1.52925
426.222 21.775 1.22039
585.411 30.2573 1.69685
400.947 20.6422 1.18543
521.29 28.8628 1.77078
370.947 20.2799 1.30638
506.69 28.5428 1.7324
375.01 21.0323 1.41263
436.231 25.8829 1.62242
405.476 24.1277 1.42929
486.085 29.6313 1.93812
380.921 23.0345 1.48807
431.107 27.5917 1.86169
345.739 21.9092 1.61001
483.522 30.992 2.12366
359.221 23.3183 1.66975
546.525 34.8617 2.51107
341.349 23.3839 1.82758
418.399 29.6917 2.18201
346.011 25.0443 1.85492
426.19 29.5962 2.28846
358.141 26.4383 2.11946
394.439 29.229 2.17378
351.179 25.005 1.87416
362.61 27.7316 2.39706
291.658 22.5318 1.89021
357.471 27.4815 2.34818
332.865 26.3283 2.24406
347.239 27.4819 2.36247
272.881 21.6756 1.90707
345.367 28.8691 2.57574
318.384 26.3396 2.31921
351.359 28.7447 2.57055
299.134 24.9142 2.22436
324.397 28.8397 2.74389
281.782 24.8789 2.41653
308.96 28.0094 2.67104
270.596 23.3026 2.3188
329.453 31.2122 2.98092
314.124 28.9788 2.81821
346.234 33.6093 3.43383
263.212 25.2496 2.62553
272.373 27.1734 2.78927
308.866 30.1313 3.19413
286.266 29.2748 3.09653
292.051 28.9968 3.13901
306.231 31.3686 3.36926
259.976 26.6502 2.89158
278.408 29.1409 3.18087
250.159 26.2632 2.91401
277.143 31.1161 3.57996
243.932 26.8751 3.20104
247.542 27.1145 3.20456
245.949 26.1132 2.96791
252.644 30.3816 3.66553
199.552 23.5258 2.99897
248.026 28.6598 3.48959
230.512 27.8625 3.52546
252.498 31.2694 3.90916
240.664 29.505 3.80908
235.189 29.1006 3.8271
214.31 26.3821 3.37154
219.676 28.6248 3.65437
184.522 23.5561 3.25547
232.736 29.8569 3.98525
211.721 27.5584 3.77908
226.975 31.011 4.27014
215.774 28.7033 3.92053
226.696 30.6113 4.29759
200.827 27.0401 3.85087
208.736 30.0667 4.35735
187.877 26.7411 3.74948
196.735 27.8587 4.11102
195.404 27.3222 4.07882
190.119 28.8449 4.39574
167.389 24.728 3.71639
179.768 27.1701 4.23686
215.292 31.6569 4.84162
183.341 28.6141 4.45421
181.445 27.3931 4.28863
194.596 29.9429 4.83858
189.368 28.8788 4.60724
199.246 31.8082 5.25818
185.692 29.7269 4.97006
210.13 34.4109 5.92934
179.839 28.4184 4.72128
178.043 29.3495 5.194
148.038 25.2011 4.28358
184.47 31.1288 5.43291
189.754 31.0996 5.41752
156.89 27.3036 4.85941
161.779 28.9382 5.19535
179.469 30.6517 5.5178
162.593 28.8384 5.23939
165.847 30.9711 5.67626
164.658 29.1864 5.41132
148.366 27.8581 5.35972
171.308 30.8831 5.84477
154.856 29.9142 5.99479
174.619 32.2605 6.05942
177.124 34.5642 6.79038
153.037 28.3086 5.63512
149.804 28.5029 5.67988
143.743 28.4012 5.65453
165.728 32.3187 6.48458
143.065 28.0966 5.7658
167.173 33.6375 6.84885
158.492 32.5073 6.71714
139.131 28.7353 6.17251
148.682 30.7357 6.58787
150.87 31.2841 6.95981
136.32 28.1633 6.04236
147.173 31.6809 6.93171
146.698 31.1299 6.66236
131.878 28.5126 6.59379
116.507 25.6717 5.95461
134.099 30.5338 6.98435
139.71 31.1632 7.02873
136.165 31.388 7.51147
131.339 29.5384 6.62949
135.927 31.9831 7.65415
135.092 29.1791 6.55436
140.151 32.0371 7.58069
120.383 28.4723 6.86917
128.342 32.2337 8.10247
143.236 34.1493 8.32698
113.092 25.7498 6.30823
126.271 32.0447 8.21559
111.646 27.0869 6.84341
130.344 32.4636 8.1909
135.688 33.1381 8.36054
103.311 25.7793 6.5719
129.184 33.3893 8.5872
116.858 30.6925 7.92054
128.119 32.8928 8.77126
127.092 32.4944 8.14244
130.782 34.964 9.64633
139.261 36.9349 10.0221
127.523 34.1676 9.56463
117.169 32.4091 8.9257
111.89 29.7077 8.10188
119.079 33.1883 9.47852
127.893 35.3028 9.63641
108.506 30.8224 8.7869
110.659 31.1886 9.11622
111.732 30.9738 8.53243
112.185 32.9252 9.55802
110.612 31.9271 9.43912
109.033 32.1501 9.76291
118.483 33.5284 9.81421
113.214 32.3561 9.48473
125.781 37.4697 11.5408
111.315 34.275 10.317
117.078 35.2145 10.8179
110.044 33.7248 10.3686
104.248 31.4843 9.35085
101.02 31.8788 10.1293
113.891 35.6541 11.2115
98.948 31.643 10.3627
100.506 31.1511 9.66981
104.571 32.7564 10.5511
89.7042 28.0276 8.87744
103.227 32.9311 10.8467
99.7195 31.7542 10.518
91.4012 30.4595 10.1069
95.4829 32.0862 10.7427
110.191 37.8901 13.3838
106.003 33.2489 10.5884
93.3348 32.8331 11.7343
101.019 34.4929 11.6676
89.0659 30.058 10.224
84.837 30.2709 10.3893
94.4497 34.1657 11.8397
90.6584 32.3977 11.5017
89.7055 31.264 11.5116
103.053 36.4141 12.7009
83.5025 30.6551 11.4195
100.218 34.9696 12.3809
94.805 36.2182 13.6689
108.736 38.9007 14.5083
96.5492 34.8942 12.5952
93.0862 33.3413 12.36
86.5453 31.3918 12.062
89.4351 33.4704 12.5647
105.055 39.2694 14.6372
92.0182 35.5986 13.5551
92.0464 35.1107 13.6693
88.0593 33.7483 13.1843
90.5056 34.4627 13.3088
87.7304 35.39 14.063
76.9254 28.6029 11.1958
84.5212 33.6951 13.2197
92.434 36.1975 14.1624
70.3106 29.2765 12.1545
93.703 34.9886 13.7457
93.6695 37.8757 15.4785
71.593 29.3457 12.5911
84.3286 34.3223 14.0203
76.9932 32.6393 14.1867
77.6629 30.4807 12.2394
79.2362 34.6401 15.1563
77.5704 32.6702 14.0217
74.6605 31.4462 13.3214
79.0909 33.3745 14.6251
77.3698 33.42 14.6511
81.7229 34.7448 15.2333
79.6709 34.7893 15.7589
80.4309 33.9574 15.0194
77.13 31.4139 13.6616
82.4195 36.3816 16.2011
73.5493 33.3301 15.369
82.6015 35.2104 15.2443
74.7542 31.6999 14.2839
79.4758 35.9584 16.5902
68.689 32.6513 15.8214
79.2835 34.9244 15.3445
65.7696 29.3184 13.9475
61.2012 28.9219 13.9228
66.1818 31.2198 14.4708
81.298 37.0656 16.8657
62.614 29.3633 14.3888
72.7787 35.6801 17.5648
70.6643 31.9724 14.9356
71.9362 34.8628 16.7874
80.9248 38.5553 18.8801
74.361 35.6287 16.9723
72.3414 36.852 18.1697
75.0717 35.4556 17.1679
74.3909 36.3096 17.9914
68.1745 33.7425 17.0958
73.5209 37.4427 19.3868
82.9683 40.4702 20.5597
65.2913 32.0021 16.6132
60.9902 31.2573 17.0501
67.6487 34.3221 17.5457
62.787 29.4417 14.7519
69.7361 34.6643 18.5678
66.7845 35.4941 19.0006
75.1127 38.0646 19.9379
74.0336 37.2134 19.6038
75.1484 36.9695 19.2467
70.7949 36.7159 19.575
64.6666 35.7205 20.0164
72.6596 38.0571 20.174
55.9737 30.1782 16.785
68.5716 35.2436 18.4332
55.0074 30.4019 17.4154
62.0586 32.8326 18.0872
58.5766 32.5206 18.2208
58.3774 33.396 19.3685
65.5003 36.2052 20.1469
62.8562 32.8666 18.1777
63.4566 34.733 19.7805
60.4771 34.3868 20.0062
59.5864 35.0478 20.9002
65.5666 34.4866 19.2462
65.8929 38.441 22.4719
53.5362 30.3974 18.2441
64.2662 38.2217 22.1183
62.9208 37.8911 23.003
61.509 33.523 20.0294
55.3501 30.4858 17.2595
58.5979 36.5981 22.8784
63.5005 37.5212 23.7007
65.284 37.1816 21.7149
63.0774 39.2103 24.2887
50.689 30.9994 19.8
61.8656 35.9869 21.2369
53.3014 32.6484 20.8997
52.6675 30.9391 19.9303
51.6527 31.1637 19.371
60.1726 36.6567 23.3228
62.8504 38.3382 23.9651
53.5522 32.9967 20.8923
58.6666 37.2345 24.3936
51.9159 30.8466 19.3296
53.1878 32.7015 21.1311
48.3057 32.4246 21.7565
52.1855 32.5968 20.9816
52.3071 34.3237 24.0452
64.312 39.7176 24.8228
49.1448 33.6147 23.2176
54.8735 35.4271 23.5037
55.3376 36.2565 24.5294
55.4394 34.1653 23.5354
56.5759 35.2033 23.0297
51.3625 34.9004 24.1275
54.235 36.268 25.0872
53.9031 34.1179 23.5708
54.7814 35.942 24.4015
51.6609 35.107 24.4903
55.7613 37.9628 25.7344
46.8449 31.963 21.9895
49.9777 35.2022 25.6476
47.6948 31.4748 22.4861
54.0769 39.0386 28.345
58.9452 38.5272 26.0064
47.1938 32.0731 23.5036
51.3822 36.2803 26.1746
53.2944 37.212 26.1118
40.1014 28.9689 21.3515
46.7775 31.88 22.5804
52.2225 38.6637 27.9154
43.5014 31.1353 24.2435
50.3254 35.004 24.6809
47.8994 37.7924 29.5115
45.2335 32.4151 23.8098
45.7587 35.3013 27.3723
49.4744 36.0144 26.7263
43.2943 31.6994 25.1685
48.1516 36.4001 27.8015
44.6137 32.461 24.9643
46.3924 33.8925 26.1834
44.9131 33.6183 26.3491
45.7903 34.5057 26.0938
40.001 29.2898 22.2365
43.2131 34.246 27.018
47.313 34.9669 27.6683
43.1122 32.5919 24.835
41.3966 32.2972 25.0457
42.6182 33.3696 26.3109
40.5378 31.8885 26.8361
43.9869 34.2963 27.5001
47.524 37.7976 29.6788
41.564 34.1848 28.8286
44.1443 34.2986 28.1449
43.2837 33.9296 27.3517
43.9435 35.9206 29.3398
39.8369 31.8247 25.8449
42.056 33.9757 28.0389
41.4424 33.3914 26.6616
46.1393 38.6353 31.7215
37.6881 31.6014 27.3604
40.7252 32.8383 27.027
39.2843 34.1554 28.7895
39.0343 32.3972 26.7278
38.0853 33.4864 29.9604
48.0513 39.7357 33.3443
38.8836 33.6519 30.8963
38.4385 30.0896 24.6214
42.5267 35.0294 29.0834
31.3278 28.0719 25.9025
39.6452 33.9977 29.9725
43.6148 39.7676 36.2028
44.4589 35.9652 30.3637
39.2401 32.5634 30.022
43.0219 36.2717 31.8479
36.1479 31.0073 26.8969
35.1612 30.6518 27.7363
38.2599 32.415 28.7297
36.8481 32.0903 28.8679
39.0476 35.6594 32.8571
36.6347 31.7403 28.3612
39.7773 36.2591 32.4758
36.493 32.9697 30.0865
38.8146 35.8086 32.3157
31.3655 28.816 27.3101
36.2649 31.695 28.9866
38.3224 36.4995 34.9344
39.4089 34.6977 31.2413
36.7587 33.5924 29.8148
32.5447 31.7203 29.845
31.9453 30.4726 29.0134
38.281 35.7804 34.4528
35.0273 32.9532 30.741
32.8702 31.403 31.3146
36.2275 33.5118 31.2694
33.9258 33.1431 32.489
36.7037 36.2943 35.1979
32.1875 32.2814 33.0913
35.4297 31.6415 29.5516
34.6911 35.2269 35.8435
36.4382 33.4266 31.3838
35.5002 36.2509 35.9174
30.8378 27.9283 27.9623
33.2342 31.5043 32.817
44.0804 42.5119 39.3174
36.1299 34.3837 32.5711
35.9368 37.4094 38.7205
32.7782 32.1021 33.7229
33.4521 33.101 33.7369
32.4289 31.6096 32.8718
31.1957 30.7143 31.8335
32.8343 31.6797 33.2593
36.5075 34.7867 36.1073
34.8598 33.064 30.291
31.2885 33.8289 36.661
32.3552 29.4643 31.1642
34.3675 35.603 36.3089
30.5292 31.8056 34.2832
39.3855 39.8025 40.9652
36.8749 36.7048 37.5268
32.3727 33.5872 35.929
29.5816 31.0338 32.654
31.8866 34.5221 36.1732
32.7392 37.6437 43.0062
32.5594 33.978 36.4269
29.9194 31.0465 32.7991
31.1377 35.2863 39.9208
31.364 30.7527 32.1414
28.2473 29.9568 33.5619
31.8028 33.9243 36.0062
24.289 26.6306 31.3434
34.8417 35.7452 38.3084
31.3535 35.1316 39.3177
26.9609 27.9465 32.2678
35.9681 38.1955 41.021
32.693 36.2691 41.033
30.7363 33.5224 38.4916
31.6913 35.0033 40.8076
28.1128 28.9991 31.5112
27.0804 31.0401 35.2123
32.4318 34.7064 37.5936
29.3326 33.1033 37.5689
30.0871 33.8895 39.7313
31.505 33.8067 37.1588
33.9449 37.2653 41.9623
29.0076 31.9165 37.4493
30.2425 36.0421 43.1042
31.7204 34.1804 40.3173
35.4956 39.2653 42.9476
29.9881 34.1543 39.993
28.9975 34.2582 40.485
26.671 30.2166 37.1309
30.0931 34.7755 41.7132
26.9772 28.2999 31.3278
28.6621 35.3738 42.8479
28.6754 33.3914 40.4924
31.5051 35.9976 40.5136
27.7627 33.4471 40.5664
27.8993 32.0947 38.6394
25.3576 30.5404 40.2943
33.5538 38.8398 44.7955
27.101 32.1802 40.6766
27.665 32.5481 39.0865
27.4664 32.2068 39.274
25.659 29.8749 36.9731
25.085 30.8549 38.7797
28.4989 35.1933 41.994
21.9738 25.2532 33.6461
27.2687 32.2202 39.412
25.4158 31.2571 39.0378
26.308 31.5815 38.4081
24.6671 28.4414 37.0184
27.2374 31.173 39.2095
26.8375 31.8851 39.6778
26.8766 33.2596 41.934
28.1397 35.3143 44.9685
27.4449 34.733 46.0066
26.7731 31.334 39.5628
25.2103 32.5796 41.7493
27.1545 34.5375 46.6568
24.9424 32.7679 45.7989
27.842 32.482 39.4948
23.0889 30.7338 42.0694
26.3388 34.1212 45.2661
24.7419 28.5773 36.2221
24.4695 32.7024 45.5646
28.7062 35.8428 44.1016
26.015 36.5671 50.5698
26.5809 31.0259 40.8928
27.0524 34.7903 45.1791
24.9622 31.9039 40.6061
21.2923 27.5556 37.2482
23.1382 31.071 41.4302
25.4382 35.0668 49.6038
27.8844 37.5962 50.3283
22.4807 29.7634 41.3745
22.9266 28.396 42.8608
28.6124 35.9546 47.508
24.1949 33.0171 46.3536
24.7841 30.9792 41.4671
27.9948 37.5602 50.2197
26.1578 32.9802 44.2646
21.6186 29.3345 41.2957
24.3611 31.0222 42.3172
23.6517 30.5221 44.0676
24.6897 31.8268 43.6694
21.5856 30.4029 45.7383
24.1765 32.5833 46.5663
27.3488 33.871 45.1096
26.0784 35.2164 50.152
22.969 32.9955 46.4952
24.4906 32.6573 47.6509
22.7897 28.3416 39.1623
24.7622 32.949 46.6466
23.9393 33.6222 47.7685
23.7583 33.259 46.9219
24.729 34.5318 51.5412
23.1504 29.8944 43.9617
22.5843 31.8609 44.5565
19.7848 28.8775 43.9526
25.3165 34.8001 51.7969
23.6003 31.965 49.9692
22.5122 29.6992 40.9973
20.4256 31.1701 46.8644
23.368 31.6939 45.4967
22.9145 32.0797 48.8768
22.8236 29.8498 41.3592
20.4768 30.0963 47.3821
24.9686 31.706 42.2623
18.188 28.3968 45.5659
20.9379 30.9266 50.2236
23.0928 30.9874 43.8518
20.5143 30.236 48.6804
22.3524 29.8963 45.1101
20.9782 29.8759 42.6459
19.4046 30.0575 47.2778
20.2785 28.0943 43.5499
23.1201 34.9678 54.1269
22.8326 33.9401 48.9067
21.1473 32.8305 50.5988
22.3938 33.5711 51.8915
18.6348 29.2237 47.6934
20.1953 29.7453 46.7547
20.4878 31.7103 49.4202
21.0668 32.7456 51.033
21.7139 30.789 46.9834
18.0615 26.4363 40.849
18.5142 30.3657 51.1107
24.0048 35.6171 54.8559
23.5433 35.8168 56.6492
22.3037 32.9664 50.2154
19.0729 28.5292 45.8797
20.4909 32.1344 48.5126
21.0513 34.4678 58.607
24.0092 38.1392 58.7283
18.3994 28.7077 48.3587
20.4285 29.5818 44.2506
19.1821 31.0455 51.1304
18.4732 30.8339 55.1408
20.7977 31.5977 50.86
20.6366 31.7702 51.279
20.0353 32.2886 52.6639
21.0404 33.4432 53.682
19.0701 31.2578 53.9334
23.1875 35.4032 55.984
18.5122 28.9345 47.5736
20.8191 32.5208 49.5905
14.5213 25.5487 48.016
17.4507 28.22 46.1949
18.0408 29.3005 50.4751
20.7051 35.0394 58.4573
19.0283 30.9911 52.7473
20.4614 32.0736 52.2571
19.5337 31.8127 51.8886
16.6939 28.9374 53.2129
18.5375 31.2073 53.2777
18.0052 27.5858 47.2873
17.1065 26.4876 43.4259
18.8871 34.6184 59.9047
18.8971 30.6381 51.8754
17.2878 28.0816 50.1161
18.3603 27.2212 44.0829
16.692 29.8165 54.8199
19.4248 31.5236 52.988
17.809 29.5521 53.0986
17.709 28.874 48.6596
17.9117 29.8182 51.8607
17.7845 29.7706 49.376
16.5133 28.4547 49.4236
15.2002 26.162 46.9053
16.7343 30.712 56.4471
16.0653 27.2941 49.4963
17.0391 28.2674 49.5784
15.8048 27.7581 51.1666
17.3622 30.7401 54.6853
16.4071 28.2221 53.946
20.168 33.093 54.9851
17.649 32.3303 56.301
15.7767 27.7078 50.3435
15.6541 25.5689 47.4672
16.8439 29.9024 55.7603
18.5488 30.9346 52.4727
18.4431 32.9892 58.3079
15.5001 25.623 48.1424
16.6236 29.2964 55.0858
17.5037 29.948 49.7926
14.4775 27.1373 52.8516
17.0539 28.5204 56.4639
20.5007 34.8976 62.5695
18.4529 31.1549 53.309
15.8925 27.0792 48.0182
14.4435 26.0753 51.8769
18.8997 33.9953 60.5939
15.0284 25.8902 49.3377
15.6889 29.1851 55.2192
16.9958 30.3366 56.7724
16.8427 29.9261 54.3936
14.9365 28.5178 54.2629
15.7753 26.6744 48.3626
17.0475 30.5279 54.8608
15.2663 29.0495 58.4372
15.5227 26.6986 48.4654
15.5109 30.0262 58.8162
15.1966 26.0248 48.1313
13.5457 24.0946 45.0323
14.7163 28.8461 55.8949
16.232 30.3335 55.8238
13.7924 25.6384 52.4782
14.6094 25.3254 48.8212
15.5184 30.1228 56.6385
14.1398 26.5711 52.3701
15.6961 27.7122 48.5875
14.3228 27.6384 54.4441
14.2275 25.7565 47.0578
12.7403 24.2893 51.1741
16.9399 33.3173 63.4311
14.691 26.1108 50.5941
13.5308 27.1277 53.3122
12.6073 26.2642 54.4694
14.8179 28.4511 55.673
14.5331 28.3206 57.3524
15.42 28.4524 54.1396
12.7526 26.4945 57.4813
17.1516 30.2644 57.6282
14.6408 28.5944 56.5058
13.5569 27.3677 53.8078
13.9354 27.6653 56.855
13.9927 25.8974 52.1165
14.5654 27.2493 54.6614
15.7654 30.139 57.6402
11.8889 24.3014 54.3271
15.5285 28.7521 56.0269
13.9413 24.8972 51.1366
14.4416 29.2133 59.9376
12.9342 24.7867 53.6133
15.8772 27.8739 54.3836
13.8442 25.5596 52.016
13.2568 25.6524 56.2848
13.4318 25.1288 53.8126
15.1052 25.6929 47.0559
12.6101 26.439 54.1684
14.7769 31.2079 65.5003
14.5018 28.8208 59.2608
13.7476 26.4989 59.8367
16.2412 27.3141 52.1372
12.9924 25.7535 56.2614
15.2899 30.4037 63.3229
13.7867 25.1024 51.2188
14.558 28.8673 58.7799
13.3271 26.384 57.4376
13.0418 23.7741 48.0238
13.3933 27.3395 59.4448
14.821 29.1103 61.2237
11.8241 24.6303 54.6466
12.6995 26.5053 54.6132
12.8992 24.4231 55.4444
13.3794 25.1521 53.0573
13.46 27.0643 56.1134
13.541 30.1978 64.9345
14.2495 27.4696 59.2552
15.6308 31.7093 62.0291
11.867 24.7172 51.9056
11.379 24.2643 53.929
11.5244 22.5376 48.7537
12.1285 25.4383 56.5043
10.5206 21.7959 51.0109
11.5155 23.9727 51.925
12.5644 25.54 51.8756
11.5207 24.692 57.5876
12.7362 26.7054 56.7256
11.3259 25.9146 61.1815
12.6893 26.036 60.1676
15.7891 30.8513 61.8197
12.3242 23.4726 50.9609
12.0377 25.5122 52.2276
10.2534 22.3723 54.5259
14.4984 28.7023 58.8928
11.591 23.3418 49.6503
10.5345 24.4806 53.4243
9.9526 21.2511 50.7831
11.7123 22.8486 47.8452
11.6758 27.0836 67.8324
12.0046 24.1816 56.6941
12.6304 26.5443 60.3236
13.4386 24.3707 53.8666
12.3292 24.192 54.8311
11.9183 25.901 58.8093
12.1246 23.7516 49.6422
11.5294 25.1779 57.0038
12.1412 24.243 55.4343
11.6755 26.8618 62.9404
12.3594 24.9339 56.5436
11.7136 23.9782 55.423
11.3284 24.03 57.1306
11.9506 24.3136 53.997
12.1828 25.1561 55.5802
11.5082 23.352 51.1137
10.6814 23.6628 58.4381
11.6767 25.4558 58.7947
11.4938 24.2309 57.1652
11.6959 24.9922 59.1848
12.354 25.5867 64.5505
12.1474 25.5364 60.5615
12.3339 23.5261 49.5042
10.8392 22.2973 51.7012
10.0727 22.39 53.506
11.633 28.0846 69.1003
12.8841 25.873 59.3957
11.7117 25.9379 56.3093
10.7426 24.1981 57.8461
10.4264 24.2194 59.6697
11.1807 24.2013 59.306
10.9974 23.2012 54.9178
11.3163 25.3459 60.5295
10.5692 24.5923 59.2311
10.234 22.3658 53.4509
10.6445 26.3557 65.157
10.1811 21.8122 52.0545
10.48 24.7922 58.1566
10.0656 21.0518 52.9435
10.945 25.1207 57.9126
9.42941 21.4909 48.8336
8.98336 22.9163 56.9618
8.89278 21.5962 54.7643
10.4319 24.5384 60.186
10.0137 21.0576 53.2645
10.5338 24.7095 56.4911
9.37115 20.7091 50.269
9.37452 22.31 51.744
8.87355 21.4807 56.4477
9.57641 20.9537 51.9306
9.89877 26.4809 67.8984
10.4151 23.5019 59.5708
10.9783 22.6694 57.0154
10.2286 22.4813 51.7321
9.42588 22.6252 52.4452
9.1503 23.3443 63.4188
11.6242 24.7211 60.2949
9.92911 23.4075 57.9036
8.90334 22.3023 62.5675
11.3059 24.6152 57.3065
10.4701 25.3979 57.0577
7.8429 21.1786 61.8244
10.7232 23.8989 56.5514
9.25741 22.3569 56.869
9.99266 22.8385 57.8623
9.69116 20.9216 55.8676
10.0076 23.3584 56.2379
8.6811 20.777 54.6951
9.30682 22.9643 60.6197
10.5436 25.4946 66.3364
10.4362 23.0121 58.4656
10.3421 21.3951 46.9721
7.86798 20.6087 51.3545
9.34462 25.3933 65.9851
9.70003 23.4422 57.1831
8.50463 22.8904 62.8898
10.4936 21.5522 52.7504
8.59833 22.7376 60.0266
9.05352 22.0914 60.1118
9.75394 24.0784 62.3455
9.6679 22.332 56.8911
9.39631 22.24 53.3308
8.40956 23.2737 63.3836
9.60111 22.5145 57.3356
8.87116 21.3252 53.5281
9.18398 27.277 70.5185
9.03033 21.9227 66.6847
10.6542 23.8443 62.273
9.84946 22.9626 58.5485
9.97674 25.2556 60.4841
8.15879 19.674 50.4785
7.16968 19.1364 54.8063
8.48034 21.3139 52.4782
8.04663 20.6909 53.9805
7.9316 21.3568 60.6366
8.66489 21.0346 57.4782
8.46478 21.9284 60.5904
9.05114 21.7862 57.0095
8.57148 21.4524 56.523
9.09659 21.3209 54.7462
8.31265 20.4832 55.7503
9.44461 24.4936 62.8372
8.76615 22.2896 61.2904
8.4377 21.14 58.27
8.1841 19.7907 54.5934
8.65096 20.8155 54.2544
8.1719 20.1858 55.7943
7.76988 17.5838 51.083
9.0692 24.804 63.0714
9.01494 21.5891 57.2309
9.2472 21.9824 53.5744
7.41533 20.5922 55.8391
7.2045 19.9259 62.1815
9.4895 22.7521 59.1255
8.75219 20.5097 54.0399
7.9734 22.1558 62.0068
8.32973 21.5945 58.4069
8.5151 22.2851 60.168
8.16413 22.3233 67.2304
9.37392 23.6249 64.8904
9.56331 24.3929 64.5676
8.55643 22.2199 59.0441
8.14444 21.2621 61.1601
7.90923 21.7642 60.4665
8.16444 19.5209 51.7169
8.25054 21.4033 55.2456
7.85675 20.312 57.2661
7.04987 18.5306 57.1183
8.34861 20.1794 52.9742
7.44591 18.8696 50.4434
7.67158 23.0179 61.2888
7.39561 21.5923 62.6962
8.0409 19.4829 55.7593
7.62137 20.3523 56.9394
8.40028 23.3396 60.6255
7.17153 18.1033 56.9668
7.57389 19.9764 57.6354
7.93929 19.9961 54.6073
8.19829 20.8507 56.6627
7.66913 20.1378 54.6602
6.62875 16.9411 50.6388
7.82474 22.6239 59.88
7.68841 18.1479 51.6594
7.84572 22.4736 61.0284
7.24369 20.9357 62.9707
7.45431 19.3054 53.33
6.62115 17.911 54.3679
6.75098 17.9426 55.7412
7.05063 17.2377 52.4841
7.60786 17.7759 51.3051
7.1242 17.0211 46.773
7.98235 20.3935 54.5578
7.50165 21.1837 58.5439
6.70737 20.2064 65.4542
8.42762 19.4356 50.0983
7.20928 19.0428 52.0963
6.91881 20.4679 62.2004
8.31069 22.1122 57.6163
7.14205 16.7757 51.1241
7.73684 19.0273 56.7017
7.50038 20.1037 60.6255
7.82082 20.2025 56.6369
7.96027 21.7673 63.7386
6.88431 18.4947 54.4089
6.67475 18.5506 55.3187
6.74869 17.243 52.7923
6.90993 17.1386 48.4563
6.75975 18.1292 51.0283
6.08316 17.6331 55.6243
7.00261 17.3574 46.0651
6.08842 18.2734 59.6035
8.57948 21.5209 59.9025
6.87615 21.1655 60.4416
6.90959 15.9081 46.0022
7.39827 21.6219 59.6718
7.30756 20.7261 64.9462
7.29627 18.8023 59.0414
7.0881 19.5544 60.0993
7.25373 18.2468 55.7568
7.76379 19.612 59.8087
7.69766 22.5341 62.3074
7.08695 18.751 55.428
6.63399 20.2869 70.6787
9.37563 24.0047 60.7433
6.81816 19.4122 59.7379
6.73194 17.7177 54.5005
7.05473 20.0596 58.3009
6.98216 18.7967 53.9005
6.48033 19.4747 56.529
6.22153 18.9725 59.3345
6.17427 15.5242 50.4405
6.71703 18.4413 53.098
6.04054 18.013 56.5064
6.47894 20.8786 69.147
7.30662 16.6521 49.6398
6.03395 16.6994 52.9233
6.50737 18.1499 53.5023
6.22199 17.5538 52.4903
7.01607 20.7502 59.514
6.94743 17.8423 56.7062
7.01092 19.9614 60.5898
6.42743 18.3487 52.8567
6.41799 20.747 67.2929
7.09447 17.7163 55.9492
6.89153 18.2078 55.5689
6.46057 17.7759 52.0452
6.49517 17.8244 55.8592
7.84675 20.1759 57.9249
6.96007 17.6261 56.6319
6.71512 19.3345 57.0171
6.26776 17.7137 52.9766
6.24005 17.1179 57.1799
6.85934 17.4676 55.0602
6.34513 18.1141 53.0253
5.83164 16.4942 54.7909
7.03419 19.7131 63.917
7.51231 18.6685 57.6329
6.63236 20.4654 59.9106
6.62577 18.7006 57.3682
6.9148 19.2485 63.5675
7.651 21.3315 68.1746
7.44178 19.1678 55.4491
6.99678 21.1704 65.8407
7.45431 16.8918 52.2462
6.16319 16.6702 50.029
5.67947 15.4683 53.3381
6.34089 15.6596 48.0971
6.86507 19.28 60.4359
6.24907 16.9606 50.5901
5.23605 15.3809 57.3885
6.81804 18.1516 50.4106
5.84499 17.37 57.8252
6.65756 19.9453 60.8654
6.32264 17.128 56.2975
6.47273 18.4861 52.0584
5.74936 17.372 55.6358
6.03412 17.3502 59.1585
6.15129 17.5392 54.3354
5.72093 17.4492 63.9289
6.93799 19.8655 60.6523
6.15013 16.2971 47.2871
4.81693 16.9162 59.7244
6.15186 18.5249 55.8923
5.79611 18.4496 66.6309
7.01644 18.7944 58.0808
5.84875 17.9653 58.0676
5.73147 17.2209 58.1248
6.13368 18.3454 58.9381
6.19567 18.7361 59.0523
6.5189 17.6569 55.4462
5.58062 17.9944 51.6232
5.21471 16.1758 55.3597
5.62743 17.4977 56.0013
5.66937 17.3859 60.4255
6.0366 17.9912 59.8653
5.48956 15.5971 57.6659
6.58434 18.3655 54.469
5.83301 15.9832 49.7413
5.40765 18.5978 63.6939
6.57831 18.6415 59.9707
6.22368 17.0097 53.3947
5.70677 16.9959 53.1188
5.5361 16.2956 53.8752
5.70741 16.6282 54.809
5.82501 18.7903 63.4276
6.35538 16.382 55.1493
5.28489 15.3286 55.7999
6.69286 18.3467 58.0944
6.60892 19.2975 62.3405
6.24928 17.89 54.5791
5.10087 16.8569 59.7455
6.67426 19.4399 59.1477
6.28067 18.2118 64.4534
6.51982 19.5657 56.2572
5.4823 17.5923 54.5229
5.15723 16.0265 60.7484
6.21609 16.3198 56.8713
5.39505 16.7249 60.8029
6.00659 19.7708 69.2628
6.89075 19.5863 60.6858
5.87599 16.6985 60.245
6.15181 19.5633 61.6797
5.78903 17.4847 61.4278
6.21126 17.479 52.2607
5.39651 15.9741 49.6547
4.9413 17.1852 56.198
5.04633 16.8791 54.6372
4.69845 15.3948 57.2348
5.51954 16.4286 50.1478
4.5014 16.2042 61.0109
5.69898 16.727 59.2191
5.66008 17.2657 56.6429
5.48209 15.8055 51.6333
4.75453 16.4795 53.4448
5.00495 15.449 52.7523
5.02433 16.4172 58.765
5.46035 15.377 54.6764
5.91433 19.7701 62.2322
5.88077 18.2222 56.9764
4.91409 15.4078 53.6421
5.09272 17.0511 56.0385
5.21564 16.0111 59.7752
5.95303 18.2074 58.5415
5.07313 17.2011 58.2353
5.18124 16.8142 59.0343
5.40896 15.7864 55.3687
5.17033 16.6195 60.7968
5.65816 17.6336 53.2851
4.86677 15.0221 51.1714
4.92747 14.1681 51.6838
5.34204 16.7371 52.3496
5.01754 17.4507 55.3414
4.28997 14.8741 57.7008
5.50239 15.9301 54.8621
5.1427 15.6108 57.0136
5.29717 17.5453 58.059
5.0691 15.7924 53.6094
5.17243 14.1291 55.3455
5.12068 17.6584 60.4263
5.53482 14.9158 48.9785
4.65922 15.1809 53.2517
5.2842 16.9926 54.204
4.83263 15.0376 54.6866
4.62085 15.1137 51.4995
4.74555 17.0346 56.8695
4.94058 14.2067 45.4908
3.9445 11.9883 46.3847
4.39001 15.4962 54.1725
4.87389 16.0666 57.598
5.33422 15.71 54.3817
4.93267 15.2037 50.7907
4.55296 14.2969 49.1152
4.51357 16.2895 58.2323
4.94204 15.4309 49.3871
3.9778 13.682 54.4327
4.57238 15.1175 56.8445
5.2436 17.5166 62.2631
5.57727 16.1432 51.3667
4.41178 14.1861 53.3825
4.98144 15.4835 54.0104
4.82197 15.3628 48.9294
4.36203 15.1884 52.6201
4.61647 14.7061 53.1444
4.63244 12.8763 47.4515
4.46923 14.465 52.1195
4.66807 15.0551 50.2104
4.3412 14.0002 55.4243
5.70782 17.2282 52.8371
4.59285 16.3798 59.9364
5.28416 14.5267 52.1249
4.69568 16.0933 53.9717
5.11989 16.0988 49.889
4.38714 14.7154 58.2512
5.3032 15.2436 53.7755
4.8573 14.9521 50.0261
4.49752 14.7557 58.0437
5.18924 17.2559 58.2645
4.69178 15.2991 53.4036
4.90459 13.2901 49.6249
5.28491 16.4354 48.2955
4.4357 16.1073 61.7426
5.20688 15.7509 62.0506
5.76781 16.9127 60.9617
5.40241 15.0063 53.1307
4.92144 15.1286 55.3046
5.41217 15.7428 53.0865
4.78482 17.9323 63.7993
5.42016 16.1615 55.5161
4.58586 15.6879 57.8442
4.87172 14.4509 52.1464
5.21527 17.4803 59.0393
4.93626 15.9249 55.5766
4.33132 14.8496 59.413
4.97176 14.3437 53.7018
5.02613 19.1792 76.2268
6.49752 17.8696 62.0434
5.2433 17.5494 60.5319
5.21805 14.5266 53.2729
4.85488 17.06 58.0546
4.88424 14.5278 48.2371
3.96302 16.3076 62.636
4.96895 15.2767 54.4071
4.53287 18.7606 63.5987
4.93896 15.1197 54.8267
4.35023 14.5175 53.5268
4.56854 14.0154 51.9165
4.22743 16.244 57.3771
4.573 16.1028 60.7265
4.95833 16.2878 60.6564
4.92629 15.3652 45.8768
3.64382 13.649 56.78
4.43263 12.9557 52.5686
4.74149 16.8938 50.71
3.80047 14.4001 56.5709
4.44184 14.5877 60.611
5.03498 13.3086 45.9134
4.31372 15.4282 56.082
4.49662 16.358 53.8798
4.35879 13.4895 52.6787
4.61439 13.4844 49.83
4.38803 13.7709 55.8985
4.51114 15.6033 54.0844
4.67503 16.3049 58.6804
4.98253 13.8435 51.6049
4.49976 13.8898 55.7789
5.00194 13.8656 52.2373
4.73756 14.0351 48.5329
4.52045 15.7732 58.3503
4.73039 14.6099 48.263
4.25663 14.4947 58.3965
5.22382 16.1092 58.0621
5.42412 15.5753 55.7463
4.98344 15.2678 53.4997
4.38578 14.2452 56.8651
4.77837 15.2296 49.5448
4.58938 14.399 57.3845
4.82476 14.7022 51.0751
4.13675 15.2318 62.316
4.96983 14.8551 51.4225
4.27145 14.7252 55.9059
4.54915 13.9119 54.3578
4.76761 15.6524 51.9137
4.09847 13.1974 51.9888
4.38399 12.596 48.7702
4.46227 14.245 51.556
3.87001 13.9121 53.4258
4.72199 15.7967 59.0225
4.80549 12.9082 50.0251
4.17861 14.506 52.2067
4.0064 13.9681 50.7529
3.97767 13.7798 52.0992
4.36895 17.1254 57.0863
4.24046 12.5682 45.2022
3.60406 13.5311 52.5052
4.22305 13.9014 50.9681
3.83053 12.2634 48.0136
3.79782 12.8231 56.1558
4.55702 15.5843 57.0948
4.52914 14.1834 53.5553
4.33667 13.8923 50.4314
3.92833 14.1566 46.2389
3.82259 13.025 52.291
4.35219 12.6276 45.7023
3.71091 13.4884 55.414
4.38674 15.2879 55.1401
4.02628 15.1464 58.258
4.35779 14.299 59.507
4.71845 14.8111 51.2413
4.3531 14.3938 52.374
4.07538 13.8792 55.922
4.36964 14.5993 56.4619
4.34649 15.0424 54.5797
4.42137 14.6627 51.4945
4.05027 14.9473 53.8544
3.92087 13.1699 49.4225
3.80134 15.5759 54.8841
4.22101 13.9826 58.3134
4.67145 13.5051 52.9594
4.33335 13.2443 48.6369
4.05291 14.058 51.4357
4.4358 12.5073 48.8565
3.77191 14.2831 51.6133
3.83143 13.2236 51.9721
4.26165 12.4613 46.4939
4.13895 14.4763 56.1505
4.43525 13.4416 47.9033
3.82539 12.1172 49.7653
4.05787 14.2635 58.0871
4.80973 15.7533 57.5275
4.39969 15.1176 52.9624
3.98952 14.6473 68.2083
5.11859 15.1168 52.0631
4.331 14.6754 52.7833
3.86945 12.0642 49.3942
3.76951 14.8307 60.2515
4.44505 12.2405 42.682
3.64881 13.3864 49.3912
3.85817 13.0733 53.9784
4.14132 14.9745 58.4883
4.59612 13.4947 46.29
3.39703 13.8543 50.2818
3.91406 13.8454 55.1258
4.05691 12.7104 55.4183
4.07343 13.1436 46.863
3.82542 13.2881 46.2526
3.44471 11.7726 49.324
3.57956 14.2341 51.2937
3.80018 13.4532 50.7974
3.83011 13.6778 58.6209
4.24626 13.6719 48.7494
3.73971 13.3978 53.5231
3.8906 14.7365 51.2389
3.7014 12.3002 49.402
3.7211 12.2851 49.2093
3.69591 12.7842 49.8922
3.67123 11.7072 50.5262
3.72567 13.0694 48.8715
3.68231 12.9414 51.6779
4.00946 13.4201 57.0871
4.41125 15.6134 47.1301
3.61531 11.626 50.9713
3.90077 13.3826 49.7631
3.82054 13.0854 49.157
3.62378 12.4954 48.164
3.99887 12.8896 46.2134
3.47031 11.3533 49.1486
3.99658 13.543 55.4989
4.16504 13.6136 51.7799
4.23426 13.3819 53.7977
4.1964 16.0524 60.1988
4.53769 13.7401 47.7415
3.66385 12.6702 51.2956
3.80854 13.7023 52.1824
3.96268 13.3043 53.7377
3.8651 14.8192 51.7867
3.633 12.2798 45.66
3.74414 12.8463 49.7301
4.14253 14.9215 56.2394
4.34934 13.366 49.8488
4.11495 13.6207 56.7348
4.325 13.0125 59.5324
4.69185 15.7979 55.1087
4.12186 14.9999 60.2999
4.42811 15.8774 55.7858
4.18498 12.847 45.0772
3.21238 11.7964 49.3113
3.62546 11.2961 47.2085
3.53295 14.2489 50.5602
3.62903 13.0644 61.2977
4.38397 14.0514 44.6397
3.17622 13.1981 50.3866
3.67273 13.7342 55.1169
3.62465 13.7365 54.9695
3.89217 13.5057 62.4348
4.4253 15.171 54.2023
3.88033 13.2946 48.3327
3.53528 13.355 54.9821
3.82098 14.0347 48.9356
3.54643 12.4145 52.7288
3.6834 13.3507 52.5894
3.75872 12.6522 48.7081
3.34408 13.4056 54.6057
4.05732 14.1928 52.4769
3.66222 11.859 47.4812
3.33993 12.6779 49.898
3.60365 12.6786 46.4879
3.65801 12.1251 52.5596
3.76928 13.5388 50.5218
3.43623 13.7923 56.5617
4.13928 14.9585 54.2009
3.94194 14.9774 58.2429
4.21519 11.8784 44.8546
3.10198 12.7178 45.4369
3.28667 15.1063 55.2037
4.05527 9.90413 48.269
3.85912 13.574 54.4559
4.41769 14.901 57.899
4.40192 12.3993 52.6686
4.10865 13.131 48.311
3.71277 13.4922 56.6715
4.40552 12.4725 48.598
3.65197 13.2778 46.7794
4.00223 11.2966 48.442
4.01956 13.0402 45.439
3.48329 10.5635 47.0089
3.69635 13.1669 51.3398
3.83444 14.3909 55.7964
3.91197 12.4043 48.9702
3.6346 12.3592 48.0365
3.91636 12.7674 51.9524
3.97653 11.9025 46.6883
3.52812 13.481 53.7341
3.86083 12.8602 46.9232
3.56476 13.252 58.3128
4.15093 11.0778 45.8964
3.57492 14.2223 56.164
4.10745 13.9197 54.2636
3.90721 13.7066 50.7712
3.77551 11.1341 37.5329
2.83091 12.2976 47.4832
3.60171 10.8983 48.1887
3.55992 13.6936 47.1438
3.32143 12.541 56.6471
3.80773 13.0214 52.8975
3.71928 13.0646 55.1241
3.87647 14.6537 49.5158
3.65712 12.9607 49.0361
3.37452 11.169 48.3788
3.62706 12.2152 48.9521
3.49313 13.7386 46.5112
3.31609 13.9657 58.963
4.18977 13.26 44.3808
3.30644 12.6347 47.5343
3.23202 11.4309 54.275
3.7598 12.4806 49.1956
3.35665 13.1083 53.706
4.07852 12.0709 45.0335
3.07036 11.9344 50.6958
3.71196 14.2911 56.9123
4.06115 14.0133 43.5832
3.28871 9.63016 49.3799
3.51748 13.9948 55.4922
4.05773 13.7182 51.7344
3.79052 13.5778 47.0811
3.53723 11.5127 46.4157
3.37411 13.3223 54.2944
3.94595 11.7953 51.8107
3.79408 13.2417 50.4575
3.84215 11.8262 46.2828
3.55704 11.748 52.1139
4.05115 15.8167 46.9012
3.66467 11.0801 47.7106
3.71011 12.7167 47.6112
3.81026 11.7987 53.5299
3.61573 12.4223 51.4551
3.77256 12.2573 40.5377
3.12418 11.8571 48.4576
3.60489 12.3108 51.6251
4.1164 11.7821 47.2314
3.499 11.4662 52.2277
3.93367 13.2587 45.9862
3.40985 11.6457 48.8428
3.37468 12.2639 46.26
3.47713 12.1435 55.3411
3.86558 13.4108 46.367
3.36139 12.4363 52.4644
3.61484 13.1109 53.7183
3.75481 12.3331 43.1192
3.11892 11.955 56.8777
4.08505 14.2406 54.1211
3.61802 13.9967 55.445
3.89806 11.7722 44.0801
3.19701 12.0297 48.2424
3.58998 13.4258 52.5382
3.61457 11.183 45.6153
3.05948 12.564 50.2325
3.32719 12.1302 52.4464
3.53577 12.7673 54.3456
3.76672 12.8985 43.438
3.06662 11.62 46.3098
3.33378 12.9424 50.5754
3.47645 12.8078 48.4636
3.09533 11.8038 49.618
3.44349 12.8877 57.5711
3.81543 13.4919 48.3204
3.34191 12.9343 46.3105
3.27697 11.8036 47.0495
3.4622 12.7951 48.8657
3.4989 12.6369 53.8209
3.77249 14.2796 55.1131
4.03976 12.16 51.2321
3.66811 13.2846 49.9764
3.58717 12.2172 48.9627
3.57797 11.6034 40.4295
3.11614 11.0188 53.0028
3.8456 13.2567 54.4184
3.74699 12.7759 50.3784
3.76504 12.7527 48.132
3.40765 12.7748 50.4777
3.69117 11.7927 45.5956
3.17431 13.9904 53.2919
3.91288 12.2961 53.4184
4.17116 15.5923 78.913
6.20072 0 0