# pn-170911/RbIIR-54-TWTF-1280-1959.psd
# Power spectrum* (dif=0,1,2) (really just |FT|^2)
# NOTE: only the first half! (symmetric)
# weeks: 1280-1959
# 10 clock-days, 0 excluded
# PSD: 1441
1037.61 0.162746 0.0315848
14686.6 0.407955 0.00563672
172090 3.64631 0.00579995
24158 0.572444 0.00557146
26291 1.8104 0.00523021
7148.63 0.571391 0.00624358
1962 0.194514 0.00606187
2264.71 0.55024 0.00506201
3659.4 0.745183 0.00558068
2412.43 0.799749 0.00572975
913.76 0.48405 0.00547389
1256.5 0.651294 0.00616366
1243.07 0.611938 0.00568377
899.113 0.518988 0.00479632
671.257 0.664131 0.00539247
995.744 0.738678 0.00541237
1394.67 1.26924 0.00668072
969.93 0.759518 0.00695476
713.377 1.0238 0.00641601
1517.75 2.54372 0.00963322
762.203 1.48378 0.00835014
750.474 1.17108 0.00751388
696.922 1.36131 0.0110651
624.118 1.16855 0.0106609
781.7 2.05776 0.007844
1001.17 3.27179 0.0156749
923.229 2.28824 0.0160294
1314.97 3.3839 0.0148146
1191.59 3.75637 0.0162228
847.577 3.05647 0.0166956
708.642 3.07607 0.0142998
734.097 2.52535 0.0154711
979.295 3.87415 0.0289692
350.604 1.92935 0.0232308
425.103 2.60554 0.0212205
622.696 3.11576 0.0178363
848.038 5.42493 0.0425761
724.785 3.93694 0.0220488
510.884 3.06886 0.0295273
392.044 2.49829 0.0288079
341.258 2.77815 0.0163275
646.244 4.32111 0.0381206
452.787 3.62745 0.041226
413.896 3.72521 0.0315371
584.416 5.13113 0.0523344
424.767 3.46331 0.0384783
1114.45 11.3346 0.112088
667.371 6.34894 0.0786371
443.427 4.67133 0.0534354
710.189 7.86802 0.0840527
944.813 11.4452 0.145046
829.724 9.27322 0.114606
402.462 5.59933 0.074333
378.506 4.36148 0.0481922
724.587 10.4887 0.156729
581.48 6.86054 0.113919
334.811 5.44145 0.0683162
841.971 14.4364 0.214397
920.412 13.5598 0.219984
261.44 3.92571 0.0788861
454.598 7.61167 0.13581
456.835 7.01558 0.116835
229.225 3.84912 0.0836168
752.429 13.4697 0.242517
362.543 7.37997 0.172204
761.497 14.1077 0.317821
458.986 8.67076 0.19414
411.954 8.15151 0.177383
638.852 13.2258 0.323872
259.425 5.21027 0.12346
942.98 21.4522 0.528101
318.913 8.43069 0.223275
632.445 15.201 0.348183
784.906 18.9771 0.510011
312.77 9.06485 0.245361
396.908 10.3369 0.287104
549.351 16.0698 0.474483
421.767 10.4187 0.264555
489.837 14.2621 0.458456
398.384 10.3944 0.274872
557.299 18.784 0.598254
829.099 24.7412 0.794069
450.25 13.9091 0.452477
635.581 21.0466 0.74639
828.882 26.244 0.803847
277.137 9.63267 0.37655
455.525 14.6535 0.548132
448.122 15.8993 0.597129
268.567 11.553 0.479713
503.255 15.7151 0.554631
286.384 9.91551 0.345517
595.348 22.7368 0.842937
261.268 9.84477 0.419672
498.47 19.5932 0.895465
214.791 9.15277 0.379579
209.749 7.59117 0.282237
428.966 18.8826 0.792789
373.365 15.6957 0.753033
431.116 19.4147 0.936594
808.828 35.8709 1.66296
464.786 21.8458 1.05966
144.711 6.76337 0.32598
471.939 22.5575 0.971106
497.349 26.5121 1.33113
294.293 14.624 0.74716
250.244 14.1126 0.737136
273.093 14.5126 0.766532
285.32 14.2543 0.864999
367.838 18.9649 1.02559
185.298 11.7277 0.678194
237.502 12.5684 0.683771
203.342 12.5829 0.798652
315.133 19.4946 1.08882
371.717 22.3042 1.31799
274.162 17.5191 1.13863
147.38 8.5023 0.504969
210.407 14.1772 0.896042
244.449 15.1939 1.00302
591.301 35.9865 2.2708
386.189 26.7643 1.85617
401.845 27.2533 1.86821
279.874 22.197 1.64321
325.703 21.1453 1.50731
282.106 19.4003 1.24365
315.078 23.8109 1.7405
232.806 18.3794 1.37907
144.369 10.0636 0.789463
343.585 23.7495 1.79006
316.78 27.2173 2.06114
417.348 32.2831 2.58098
292.388 23.3642 1.79116
360.448 28.1452 2.24023
316.292 28.3943 2.48204
176.717 15.4723 1.41267
198.003 16.8474 1.34428
296.11 26.0531 2.26466
238.866 19.9773 1.61657
289.741 24.5327 2.12715
279.357 26.691 2.53229
175.138 13.2211 1.08497
354.945 32.5859 3.10322
353.017 31.3929 2.79909
371.945 35.561 3.3118
245.247 23.6584 2.20429
377.757 37.5889 3.80838
195.837 17.0321 1.60647
377.104 38.0518 3.96585
393.568 41.6947 4.14394
234.568 25.3947 2.79827
286.593 27.8579 2.69302
199.831 20.6268 2.24258
254.495 23.6474 2.39683
265.188 30.1522 3.53639
226.957 24.3082 2.77843
259.768 27.6224 2.82042
369.787 43.1863 4.61489
165.308 19.9834 2.30809
142.807 15.4394 1.76031
231.907 28.2175 3.50664
117.747 15.9138 2.04699
86.4509 9.12871 1.05478
199.136 23.9241 2.78723
452.599 55.4841 6.99426
117.208 16.4156 2.27299
144.185 15.7231 1.97003
169.313 20.663 2.3407
206.792 27.2885 3.62842
103.406 14.1786 2.03281
128.568 16.8958 2.25419
356.032 47.8172 6.40021
108.416 17.5761 2.52498
162.039 22.6126 3.31251
138.508 19.315 2.76564
201 23.1437 2.69562
292.087 41.9245 5.93635
168.513 26.0997 3.87317
171.213 28.04 4.14805
126.005 20.9344 3.16297
237.68 35.0841 5.57181
120.191 16.8766 2.34019
117.158 16.7491 2.52916
190.209 29.1641 4.71327
116.144 17.6475 2.84076
292.842 46.9258 7.17851
176.007 26.8686 4.37751
134.038 20.1672 3.21361
234.534 35.6997 5.3563
176.365 30.1078 5.39467
262.173 41.7002 6.42665
337.554 64.5924 12.112
154.645 20.7429 3.07084
128.368 21.6294 3.84559
242.632 36.0669 5.57999
200.664 33.675 5.81848
131.115 23.964 4.69969
178.826 29.8446 5.23572
148.762 29.1856 5.51843
160.194 27.3274 4.68645
75.5198 15.7187 3.29681
133.931 25.6831 5.13788
130.314 21.0433 3.60747
121.307 21.9259 3.69957
98.1638 22.6771 4.67182
143.955 24.1087 4.32419
170.024 36.5478 7.66391
128.681 22.3225 4.3984
259.441 48.8774 8.81908
133.919 29.3593 6.21891
179.817 40.8127 8.32066
162.514 37.7387 8.17307
170.964 35.7963 7.59658
129.381 22.0545 4.33343
144.209 28.7489 6.0931
98.972 19.5946 3.77275
103.734 23.3255 5.58663
99.685 20.4656 4.0963
129.74 29.9632 6.69356
214.92 45.4314 9.25406
96.6083 20.3311 4.3358
103.695 25.2368 6.09362
112.078 26.9717 6.44731
156.181 33.9862 7.60565
139.387 35.5578 8.82887
123.338 28.4594 6.83845
172.439 40.523 9.54458
92.0251 23.4443 5.56354
93.3255 22.7019 6.0878
75.3777 18.2048 5.02113
165.904 37.9416 8.68557
67.4156 15.9976 4.07398
203.853 50.9643 12.0398
97.3719 22.8718 5.59132
91.5178 18.9206 4.286
130.268 31.5632 8.10239
122.638 29.6877 7.27172
102.136 25.5486 6.17998
82.8896 25.8589 7.57323
211.774 49.977 11.95
78.7723 22.9164 6.70568
129.624 34.5318 9.62593
123.231 33.703 9.30537
94.0938 25.2349 6.98733
137.95 34.9627 8.79886
85.333 23.6662 6.6306
117.585 32.0488 9.3407
101.737 30.383 8.80244
124.913 38.1909 11.268
135.56 36.3193 10.0169
190.921 53.8513 14.792
79.8674 23.3831 7.33767
113.576 33.3089 9.51219
101.842 32.2538 10.3132
75.5084 18.4351 4.8474
189.705 56.6235 16.3687
96.9154 28.1685 8.01704
83.604 26.1174 8.5989
108.483 25.9993 6.78676
129.53 36.5531 10.332
117.566 40.3862 13.1542
129.119 44.1673 15.4169
88.622 26.4085 8.74104
93.7461 27.8624 8.4956
99.6626 28.5288 8.45563
116.307 40.6684 13.6048
89.6548 23.8112 7.10702
171.96 56.8629 18.3485
50.9026 19.8855 7.98224
93.5317 28.3627 8.44421
62.5872 22.4247 8.0162
89.509 28.5749 8.72375
121.854 42.9478 14.8102
84.0563 22.7957 6.61647
57.434 22.5133 8.60446
101.269 35.3077 11.9222
95.3803 28.5731 8.71734
48.2997 21.7711 8.67615
56.1579 16.53 5.48428
86.1695 27.4982 9.23915
46.0266 17.8162 7.4709
62.2395 22.5674 8.02951
85.0083 31.0057 10.9611
59.9367 20.6485 7.01725
45.0291 18.3625 7.87097
74.2736 25.9036 9.17436
103.535 39.5816 15.3604
66.7745 22.9856 8.32804
70.0822 25.4537 9.15029
53.5343 22.2578 9.59922
43.4372 15.5977 6.13798
82.4189 30.664 12.0743
102.519 42.7454 17.031
163.792 51.6272 16.636
53.8349 24.1521 10.9097
55.6957 19.9421 7.81771
73.6507 28.9656 11.7482
63.5583 24.2744 9.34521
91.7909 35.3866 13.3664
56.4951 24.2595 10.4627
61.1689 24.0027 10.222
64.0558 25.2254 9.03028
66.1659 28.7617 12.9232
39.205 15.7696 7.21494
66.428 27.5307 11.1066
57.3893 23.2073 9.1168
82.9448 41.618 20.5498
98.2715 41.6355 19.1813
134.789 50.7864 18.3475
68.5923 28.3704 11.7103
80.7814 37.2862 15.2522
108.265 54.043 25.1233
76.2429 31.9422 13.9739
42.8694 19.4847 9.9412
47.0375 17.8551 7.58261
49.2075 19.5253 7.78044
56.969 25.7997 12.2209
67.2718 31.5036 14.0034
60.2778 26.5678 11.935
38.0005 18.9877 9.06644
93.104 38.8644 15.7251
48.0723 28.3748 15.3787
55.6959 27.8776 14.7703
91.1016 36.732 15.4281
77.0306 38.0218 18.2866
68.0125 35.0627 17.2706
90.1662 43.8421 21.7103
82.5578 36.0184 16.4185
74.861 38.7187 19.301
94.5891 46.1891 22.4972
67.4117 29.2818 13.4054
54.201 24.6634 11.2617
53.9061 26.4693 12.7756
87.7291 45.3022 21.8026
68.5673 39.0825 21.2158
56.1296 28.8772 15.1003
67.4571 33.6762 16.7935
69.7492 36.2257 16.1068
34.3491 23.775 14.467
49.2196 26.337 15.1498
54.732 23.3034 10.4438
30.1031 18.4368 10.725
50.8961 24.7341 12.4244
70.3158 38.1131 20.8044
57.0096 27.4913 14.7301
55.8422 30.1949 16.4953
70.7548 39.1142 21.244
89.2697 43.8481 20.9548
63.562 40.4598 23.464
69.6059 33.3706 17.2522
86.248 53.9254 32.0865
59.9288 32.4638 17.9113
59.4741 37.1601 22.8188
68.5464 36.4333 19.486
75.624 42.396 24.9278
118.501 59.0027 28.9047
40.1297 24.1674 14.7977
44.2078 24.1657 13.5296
54.7345 31.6598 18.7749
53.4154 33.4647 21.4434
66.3498 32.3741 15.9922
43.1451 25.3263 15.277
61.2808 29.7721 14.1545
63.2752 41.474 25.8992
59.569 33.6626 19.0482
35.9239 23.295 14.585
33.2385 19.2735 12.3325
64.5555 38.5158 23.8375
29.4919 16.8796 10.3695
39.287 20.5361 9.82491
49.1364 35.1714 23.2276
57.7964 33.4181 19.3478
33.6974 25.8036 21.7674
56.858 26.5988 12.5018
40.0695 25.9375 17.4588
55.1078 35.5002 22.2016
37.8962 24.9126 17.6551
37.7663 18.9184 10.2657
43.6365 27.1472 17.6761
79.0913 52.2445 32.7119
38.0462 20.0961 11.2371
23.4763 16.7697 12.8913
47.8856 28.9824 19.3157
61.9105 35.281 19.7864
33.6142 24.1024 16.2278
39.8097 31.5145 23.6525
34.3367 17.5559 10.1934
38.7872 25.1992 16.0993
38.0854 29.2788 20.2951
43.7152 26.2235 16.0571
38.5936 28.1355 19.5967
53.8821 33.9222 20.4298
32.184 23.4661 16.9231
44.7035 29.6785 20.8998
51.7921 37.5231 26.7224
56.0549 33.0465 20.0868
36.1763 28.0357 21.117
36.9952 23.1587 15.1855
30.8339 26.6231 21.6108
39.2303 24.294 14.3229
41.5094 38.7995 31.4264
47.6901 32.9922 23.7955
36.0924 27.1274 22.7987
42.2333 26.3275 17.5031
33.2935 24.0745 18.6262
44.2357 27.1097 16.8274
40.2672 29.2982 21.0072
45.5187 30.9841 21.12
34.1464 26.5434 19.591
35.9467 30.7926 24.3671
26.205 16.4012 12.1174
18.271 12.9863 11.1266
37.0523 21.0678 12.6874
26.5995 21.8046 17.7334
33.0229 30.045 27.7603
42.321 29.6025 21.608
53.2669 34.257 23.1352
40.2806 31.2651 24.3104
29.2765 19.2146 14.9249
40.1953 28.5637 19.2624
41.9663 34.2031 25.6943
36.9883 34.9603 30.4856
33.9383 22.8422 17.9226
26.7691 20.5574 16.9239
50.2999 43.1313 36.1029
41.1873 25.7887 17.362
32.7539 24.5323 19.5182
41.7953 32.4909 22.9796
34.8424 30.8615 24.8786
27.697 25.9161 24.663
42.5363 31.2115 24.614
49.4443 38.2611 28.4349
26.8453 24.2003 20.7921
36.7797 29.3231 23.4056
49.2237 47.0036 43.9984
30.2815 17.6181 12.1091
30.85 21.6635 14.3315
16.2921 18.8646 19.9908
28.7345 17.4831 14.5632
47.4973 35.2455 24.9678
37.4814 35.5417 32.6411
33.136 29.1698 25.4568
27.1277 21.2679 18.7337
35.3765 33.7085 32.647
36.9641 25.8181 17.9931
31.3004 30.9994 28.3291
36.1411 33.3705 30.4471
34.6889 30.2006 29.368
36.6394 28.1719 23.2797
24.9183 21.724 19.4878
21.848 18.6803 16.8218
26.3088 21.3118 16.7951
28.2436 22.2951 16.0943
20.1314 17.3623 13.6532
21.1058 21.0125 21.1355
22.6175 20.7283 19.6763
31.0309 22.845 13.9439
24.757 27.2675 24.0959
15.8361 16.2215 14.7694
20.1718 24.4797 24.4105
14.3153 12.34 12.5059
22.055 22.8064 24.0011
24.4179 19.02 16.7391
31.2675 31.5779 30.6693
38.8503 37.2883 36.7924
35.7838 26.3566 17.7622
38.7462 39.6934 37.0038
29.4686 27.3696 24.6708
9.53934 9.55594 12.2948
24.9343 25.5774 25.6866
27.6587 25.8284 27.6764
33.0925 28.1291 24.3954
31.1189 27.9886 24.1002
13.9615 18.2057 23.5282
37.6577 28.9433 24.5146
53.7557 57.8242 56.5961
27.8515 28.3472 30.0191
37.1218 39.7339 41.5875
33.7197 29.8276 28.0638
26.542 24.3904 27.023
40.6637 38.2361 34.119
28.5155 23.9202 22.5825
25.4215 26.0292 28.5649
50.9882 44.0764 36.1359
22.1771 26.8343 30.9302
26.3524 23.0315 22.2899
27.0288 27.0243 23.8204
13.1679 14.1349 15.2691
18.5739 21.8327 23.7576
21.932 23.0856 27.0078
30.0112 35.5081 41.2226
26.7971 20.5544 15.7926
23.2171 29.6876 33.9272
28.5938 28.1812 32.6044
39.6789 44.4078 47.0806
35.1152 35.2027 37.8992
28.8085 25.3519 22.6743
23.5661 25.9089 26.51
12.989 10.7999 12.1966
20.6219 20.996 21.8468
22.2616 21.9158 22.8328
29.4796 28.3658 26.1012
28.9496 35.0433 38.6636
14.7133 14.5517 15.4849
21.6343 24.8283 27.1379
41.519 49.9296 51.9016
25.3684 33.8169 45.1548
29.1326 27.2748 27.7975
13.4681 15.4988 20.9761
15.5213 15.5241 17.2887
22.5646 23.2029 23.4506
18.7185 21.0658 23.3897
11.2684 12.0673 17.2506
21.7246 27.5424 34.4577
20.4524 14.3071 12.2056
18.4615 17.9194 19.6092
33.8043 39.7918 41.8073
28.4275 34.7216 40.634
23.8327 25.8383 30.1734
37.3813 38.7263 37.687
22.2747 28.9972 32.0047
18.2038 20.2311 25.5065
24.2606 22.9555 21.5796
26.8897 31.9928 32.1915
13.6762 18.6393 23.5863
18.4869 25.5063 33.767
22.945 25.5618 28.7573
32.4301 43.7471 51.8784
20.6239 22.2522 21.9545
16.1208 21.6258 26.5391
14.1506 20.6677 29.8148
18.9483 24.0481 30.813
12.7076 11.3996 16.0413
31.3572 37.5932 40.0395
18.2617 20.8014 28.9548
29.5762 33.1881 35.565
17.4435 23.2157 29.6645
18.7356 21.8269 23.8957
17.0087 23.4916 28.3239
14.8978 21.4261 29.2595
16.676 19.7378 25.6988
28.4859 35.0045 41.143
18.0953 25.7794 37.901
24.8107 26.5208 30.4523
8.44565 8.58762 15.5761
26.3901 27.8078 28.2065
17.1617 22.9141 33.2974
19.8528 19.7193 22.4267
22.9403 26.0064 28.2525
21.8124 29.482 36.3528
18.1807 27.5787 44.0446
31.8391 33.0867 34.7107
21.7601 28.4598 34.4503
31.2272 39.1667 41.0122
16.1632 27.0164 41.8036
18.3877 25.9613 35.4524
13.1745 18.5975 26.7811
18.033 24.3445 30.7012
9.68444 14.3602 24.7304
19.6298 25.0843 34.3304
24.2762 33.4189 46.2536
33.224 40.6351 47.1671
11.0475 12.3042 15.7415
8.31939 11.5352 17.086
15.1897 26.735 44.1737
19.1191 23.2279 32.8863
20.2305 27.4412 43.2162
32.7474 36.7846 40.2733
21.4447 27.4831 30.7684
9.44931 12.8698 21.4737
16.7369 28.37 49.9711
31.4089 30.89 24.407
12.6323 22.1018 30.209
17.9973 27.715 39.1089
16.1221 22.0023 31.899
20.183 29.0415 42.6352
14.7507 16.7237 25.1717
22.5254 27.0327 31.0085
24.4839 35.194 40.1053
14.2413 31.6007 54.7333
14.7003 15.8895 26.071
17.3728 20.6195 28.5396
18.5039 25.6098 37.5495
21.5173 28.1794 39.9451
17.8585 22.0199 30.9127
25.8996 34.6021 44.9778
17.9989 25.2799 32.4557
20.2064 33.2431 48.9028
17.3416 18.6842 23.5562
8.87615 10.9698 16.2357
9.8782 12.2708 23.3755
30.2662 37.0458 37.8613
16.2258 30.1103 45.9109
11.1447 20.3034 41.6218
22.9166 29.1945 38.1316
14.0153 16.7275 22.9024
16.7288 25.971 40.1888
11.0954 13.4374 20.7864
14.5192 17.5253 19.5624
9.00488 16.7718 26.4858
14.1911 19.1635 24.2853
13.9827 29.4253 50.6278
12.606 15.2417 29.3203
20.7096 24.1542 27.5414
14.4255 22.141 27.9824
12.4815 23.8306 38.9813
22.5173 36.4153 57.3526
15.5964 20.0715 29.0986
14.2066 25.374 41.3362
15.1876 19.7399 31.0509
20.5212 33.5346 49.8782
17.6041 24.2726 29.7631
5.83936 10.4514 21.3049
7.85979 9.38015 12.527
11.5482 23.4112 42.2722
11.7709 12.9447 21.2764
18.3968 28.2 39.0701
8.1824 13.4226 28.6789
15.8307 21.4093 31.2726
14.9068 22.4932 35.2806
20.188 28.0879 27.089
7.83537 23.1732 48.0687
11.466 12.739 19.9183
16.731 28.7168 44.535
15.7175 21.9455 32.6636
11.3646 18.4133 34.7284
20.4621 33.2673 53.4803
21.3833 30.0269 39.0768
16.1721 31.4853 52.6007
10.2644 15.3724 32.3366
19.7243 28.0141 44.2332
14.5316 23.0691 38.7563
17.0144 27.3401 50.2338
22.789 30.7052 43.2931
32.4519 52.7512 70.1421
6.03233 11.8489 27.2656
11.84 16.7442 26.6344
14.3757 31.1305 62.5966
21.7275 29.5941 48.9775
18.8449 26.808 41.6222
21.2568 33.1211 41.3335
11.914 25.8079 44.5715
8.86736 20.8056 51.6903
21.269 25.2408 29.4382
9.65276 16.7417 34.9408
18.3996 30.441 49.0737
17.8805 27.8457 39.6302
14.6349 26.6869 46.1901
14.863 30.3081 63.9954
26.2713 37.3536 48.5227
12.7368 21.288 35.4569
5.96764 8.8866 22.3485
13.8499 21.4019 35.4561
14.1675 21.1992 29.2832
8.72549 16.6823 25.9756
8.26143 15.6114 31.0653
13.911 22.0104 32.0237
12.7951 28.7869 55.1253
11.1901 13.7029 26.3087
14.8691 24.5715 37.9386
17.0679 37.3569 70.8446
13.5391 19.7268 37.6715
9.66826 11.0458 16.9983
10.8475 19.268 30.8989
13.6362 24.6315 39.8028
8.30935 15.5959 30.9654
9.25652 14.3774 24.0034
13.1898 25.8072 45.9017
14.523 21.6776 34.2237
8.65502 15.9883 33.0949
10.9013 16.0697 29.36
13.4216 21.8923 32.5097
11.7261 23.8943 40.9256
9.57803 23.1277 62.3582
24.6505 36.9611 47.77
10.9129 24.1934 54.2888
14.7743 19.2747 23.6542
6.56582 16.0549 42.1424
14.0236 20.2963 31.3943
16.2112 30.78 49.3338
7.061 14.7771 40.1488
15.8592 23.8436 31.9358
8.87169 20.1749 42.3964
13.1345 20.237 38.5248
14.7341 22.9464 32.0652
7.81713 18.5445 37.3702
10.4075 20.6351 42.7659
17.0806 33.9217 60.3083
9.97988 13.4477 32.1569
22.1467 35.0009 45.4569
11.1883 29.3092 62.4882
11.5672 17.1988 27.584
8.07266 18.8967 43.2997
11.0872 15.5154 25.3954
5.9572 10.6694 27.4518
9.27536 13.3733 20.5717
9.41914 17.8808 33.6953
12.5412 23.3878 39.568
8.36554 13.7484 26.0553
15.7028 34.3843 65.3558
8.88326 10.0759 12.0285
10.6311 28.1079 50.2971
7.70284 17.0576 42.1742
10.7188 17.2296 31.2163
7.5984 14.2839 31.6782
7.81359 10.5308 18.3312
7.83098 13.9083 24.4583
6.66171 12.0009 22.1782
9.55965 23.1232 54.407
15.7474 24.1935 35.521
5.21627 10.8703 35.661
18.8622 36.7834 54.1183
7.75922 20.9832 58.368
12.5158 20.7937 33.6404
6.77628 15.7851 38.9332
11.3373 22.9961 48.7695
13.5638 24.7071 48.7769
10.2468 24.0974 65.009
20.8227 33.4495 48.8807
9.86538 17.2818 32.6819
8.95811 19.7043 44.357
13.2045 23.0853 44.7096
12.9261 22.6274 33.3768
5.79983 11.9299 26.845
11.5213 24.9063 48.6975
9.98668 15.23 29.7079
11.1671 21.6654 38.6417
12.9097 27.3646 47.0564
9.19746 19.9102 43.1373
14.0007 31.9713 60.5686
11.1863 23.9406 46.6321
6.87167 11.5574 22.64
5.5332 11.3447 26.2304
10.2415 27.7719 54.8313
8.94642 17.3769 40.1967
7.75456 16.719 45.7707
11.2595 17.2374 31.0508
8.45714 15.7377 37.125
13.9566 25.7499 37.3412
7.01061 18.5925 40.8
8.77954 16.5084 25.418
6.16592 14.0425 24.5232
4.44818 15.7499 40.7827
7.99331 13.6769 29.7181
6.94757 11.529 16.6046
3.56453 10.3066 27.0113
8.71795 24.582 63.4416
12.083 21.1785 50.5727
13.3373 24.517 39.43
5.95196 11.5461 29.4544
9.10557 18.8211 36.0712
9.5533 20.297 36.7104
5.80382 17.1664 45.8523
9.24567 16.9072 38.7439
11.6905 22.063 31.3705
6.52768 20.4366 53.8312
8.62001 15.3973 35.2317
12.509 29.8038 58.5855
6.04023 10.5709 30.461
10.5388 16.7588 24.784
9.46991 26.9421 51.7039
7.77728 17.8074 44.1569
8.2644 18.7522 42.8742
8.51834 18.8601 38.8129
7.85613 18.5292 42.9625
7.80091 13.9518 28.6935
4.90836 9.48008 23.8039
7.38379 15.147 27.1598
5.12958 12.3209 28.5555
8.2758 22.1871 46.3552
6.65026 13.6752 30.7909
7.18267 19.9953 53.1743
8.54418 15.4019 29.1856
6.85177 19.6161 66.5856
15.7564 27.4171 48.7476
11.3913 30.0996 73.1853
13.6751 22.9497 43.2604
12.4698 28.9045 55.5284
7.83359 15.53 28.9055
4.95295 12.7434 32.7652
8.77606 20.664 42.7627
5.04877 11.5274 33.4524
6.91729 17.4419 46.9344
8.28006 16.2193 42.5325
13.5182 27.8548 42.3648
4.62545 13.4853 36.3571
7.9167 17.1864 39.0257
7.74854 16.3953 27.1189
2.86707 11.3797 34.1048
7.93967 23.2772 77.7687
15.27 25.8928 45.4442
8.35446 15.0813 22.7484
7.87797 22.1282 47.1204
6.81105 16.7692 36.7405
4.80133 14.0648 48.3841
9.98038 16.9253 24.9073
6.17894 20.2104 53.971
7.01201 13.784 35.4322
8.58184 21.3348 52.2884
7.15684 12.4924 35.262
10.4939 22.9745 40.9834
4.71091 13.9654 38.8481
7.55634 16.7055 41.392
9.61913 28.1997 65.7201
6.83753 15.4284 49.6368
9.76896 13.8242 27.6752
8.56803 23.3065 47.3644
8.49045 20.3723 48.6031
6.02247 11.645 26.9282
5.73935 14.7682 30.4454
2.541 5.22959 18.0151
5.42991 14.1077 33.0808
4.26674 10.8699 43.8541
9.81322 17.5136 26.5005
4.59079 10.3031 28.664
8.22483 20.4707 35.8372
3.82622 14.2696 47.9607
8.08613 13.5148 24.2549
5.08738 13.8808 41.0481
8.3968 19.6566 43.2982
5.29312 14.0341 41.8482
7.36655 14.5833 35.8937
8.07072 18.6484 39.2842
5.7093 11.8932 23.6736
6.33981 20.471 53.5132
6.82951 15.7959 37.126
4.62812 8.96813 25.7822
7.76562 20.0645 40.4656
5.16403 13.0394 30.1709
5.2135 13.1202 24.1485
4.67737 19.5937 52.5834
5.94453 17.2475 69.6032
12.8602 23.1976 54.6823
10.9606 23.754 48.4605
8.34464 15.646 26.5017
3.33002 9.4972 20.4845
2.18233 8.49263 33.5401
7.87641 20.5516 36.6483
3.43967 12.355 41.9884
6.47662 14.3965 42.0557
6.71162 11.8151 25.5315
6.4696 23.1532 61.0706
9.2468 21.6971 58.7079
10.0565 20.2274 34.2623
3.35256 9.09665 30.4864
6.23175 18.8235 60.4221
9.57249 18.061 47.106
9.17269 19.6402 43.2813
8.63492 21.846 51.2756
9.96582 23.4091 32.7172
3.60648 16.9762 48.7826
3.76567 12.5452 56.3571
11.3711 28.2841 66.1334
7.53993 15.2554 38.5198
6.00682 14.4363 34.4746
4.5563 15.1926 48.6363
8.49867 15.0253 25.6631
5.23832 15.9465 40.4038
5.14896 13.5576 42.1788
7.62488 21.924 55.5496
5.85836 11.4553 30.0682
7.31275 23.4638 73.1491
8.67588 12.9738 33.4881
9.73539 25.534 54.4243
5.33177 12.7137 43.6167
9.4562 27.6793 66.012
7.25133 13.8313 24.8418
4.0784 14.5044 45.4251
7.55447 19.635 43.2743
6.82685 19.6471 46.3294
4.96444 13.8503 35.5095
5.79701 19.9887 59.158
5.43099 10.0729 29.1739
5.59133 18.0314 57.4219
6.4786 12.006 33.2183
5.86436 13.1176 25.5641
3.71437 10.046 38.569
8.04755 23.3547 69.48
10.8611 24.6786 46.8826
6.80091 20.4629 48.266
6.02846 18.2542 48.5198
5.85417 15.1837 38.5766
5.213 13.7595 32.9402
2.78824 10.3845 54.872
10.4095 21.5595 34.8969
3.2721 10.7041 29.9069
5.13625 17.9866 53.5474
6.23659 15.0073 48.3474
7.15366 15.6907 32.4521
4.14247 10.7333 26.528
3.38477 10.2045 28.3868
5.08323 15.7391 38.2203
4.78851 17.1347 53.6898
7.10887 16.3332 32.8182
3.52176 10.0569 32.8651
5.46571 15.588 43.6671
5.42189 19.1357 59.157
7.00357 12.7533 30.5332
4.76507 13.3407 34.1775
4.10919 10.9029 32.0298
4.37746 12.7647 47.0228
6.02056 9.92136 17.7738
4.12857 14.0072 45.0119
6.65079 20.0716 51.3866
5.25916 15.5955 53.5546
7.43722 15.9255 26.5738
2.48312 9.9443 32.2914
3.66493 10.8628 33.5399
4.39234 8.98101 22.504
3.36465 14.027 46.5984
4.87549 8.86391 21.5815
4.8359 15.8698 37.2089
5.03774 18.863 64.6412
6.05807 9.89743 28.9401
4.85293 13.9552 38.8133
5.7402 21.2568 87.61
11.5857 20.9267 33.0373
3.42504 10.2563 27.2092
3.44976 10.3669 35.5357
4.26242 10.8866 32.1902
5.35422 15.6811 52.4634
7.17483 18.7397 48.1967
6.78274 16.9434 47.8949
7.07898 17.8374 38.5415
4.13863 10.4596 24.6457
3.84164 12.1516 33.7196
3.68261 10.5613 44.4723
7.27869 18.0892 39.4955
7.04878 21.3114 43.2517
4.39191 13.3396 25.9841
2.26593 11.3765 41.4479
4.52721 12.259 35.4293
4.29999 11.4508 25.5063
3.1326 13.993 41.8643
4.9526 14.1722 37.3767
3.30283 9.84203 37.738
4.70462 15.807 40.7252
4.48312 12.1824 32.0268
3.13235 12.5674 46.4604
5.92515 20.5996 70.8653
5.46092 11.0026 45.8137
6.10323 14.658 46.3656
7.24387 21.6207 48.3445
5.22992 10.8295 19.0944
2.25847 11.0938 40.1398
4.28455 10.636 33.6247
4.63475 14.5986 41.3185
3.8275 9.92507 38.4248
5.25711 17.1833 50.16
6.01464 16.5562 61.9855
7.87861 17.0001 48.699
7.05823 18.2582 42.915
5.79754 15.9011 30.4651
3.38282 13.7298 40.5965
3.37049 8.42697 26.8938
4.48214 16.8577 51.8291
4.69038 10.0251 19.1126
2.16341 9.38263 28.4461
2.70023 11.2362 33.7112
2.0998 8.45907 47.176
6.61255 19.3191 41.5102
3.22666 9.40714 34.4135
3.68139 10.5567 34.7126
3.60505 9.14718 36.3557
4.52876 11.2414 29.1719
3.97075 14.7842 50.6741
4.59016 10.9105 25.6333
2.96939 11.0404 44.1248
5.26162 13.5467 34.7813
3.57746 9.13827 31.9171
3.81102 12.1158 51.6032
7.48454 22.9509 57.3719
5.47029 16.8665 46.5151
4.71312 16.2655 48.2647
3.52278 5.574 13.2994
1.98134 8.11057 25.0958
1.96511 5.2443 20.8446
3.03978 14.5935 70.8485
7.12113 17.1838 44.9441
5.49672 18.9473 41.4527
3.26486 9.63411 27.5633
2.91838 10.81 40.1501
4.76874 16.9041 50.0588
3.7135 10.7659 44.3158
4.65841 11.0577 52.0647
7.72744 25.3316 54.6983
4.41913 10.1124 23.4158
2.92208 11.0557 37.5093
3.87955 12.4524 38.2538
3.51091 9.93653 30.3227
3.40634 8.87274 21.7951
1.78907 6.43158 40.9745
5.76556 16.232 48.0544
5.91291 19.0266 49.8802
3.82563 12.1673 53.055
5.92519 13.105 29.3513
3.58155 11.313 35.012
4.72125 15.7878 45.46
4.7109 19.0505 50.4758
4.03678 12.5353 39.194
3.40646 10.259 29.5879
2.57567 7.93148 30.1474
3.68645 11.3518 34.9812
2.89972 12.0381 42.866
4.18271 10.6453 35.6056
4.48122 14.6708 34.9809
2.37161 5.99459 26.5618
3.38058 8.79404 26.1633
2.73346 10.5278 42.1059
4.39941 15.2783 39.7174
3.47575 10.1212 43.8683
5.42091 16.5344 48.8591
4.84677 14.9795 45.2164
3.68526 10.2262 31.8971
3.52051 15.127 56.1765
5.07421 10.9574 29.0059
3.15679 13.5094 50.607
5.38282 16.3244 43.655
2.8332 5.42996 23.0797
3.30529 13.0838 40.0427
3.74371 11.6739 32.3586
2.71785 7.9613 33.9866
3.84498 12.6904 46.4641
5.75628 18.0005 63.9049
6.5123 13.1864 25.4541
2.72213 10.1018 15.4313
1.84567 14.2258 61.9893
6.12389 18.7019 50.6219
3.68321 6.75914 27.8785
4.40302 14.988 42.262
3.57077 11.5507 54.0549
6.33983 17.9037 33.6847
2.43987 10.6776 36.2774
3.11247 8.7005 30.8413
2.6885 8.9418 38.4927
5.0095 19.4384 51.566
4.03753 10.2378 25.2002
2.61221 13.4254 52.2758
4.26294 12.6034 34.4937
2.12545 7.33459 48.0576
5.28637 14.7622 36.0348
3.53717 15.3212 56.336
4.74983 15.6619 41.6822
2.7032 8.7485 56.508
7.36193 24.1549 58.2729
4.68524 15.832 52.8073
3.74853 9.59565 41.722
3.87738 12.3187 35.1027
2.5893 6.6811 29.4206
3.3716 12.7298 40.9778
3.16456 9.30201 36.365
4.85428 21.7369 55.7101
3.16191 8.321 29.0357
1.47339 3.83977 38.7882
4.5536 10.851 30.3888
2.9628 7.70643 31.5885
3.31584 9.8935 24.5883
2.46833 8.38497 26.0263
2.63951 8.04958 23.2912
2.13369 9.6173 42.9831
4.9719 22.4475 81.0787
6.52575 14.7548 33.2845
3.15742 12.3228 41.5226
3.49785 9.04441 37.4055
4.23686 11.7486 34.6766
2.7281 8.65053 31.0422
3.51908 11.875 27.7564
3.07669 13.9764 42.7312
2.87873 10.2113 29.7171
2.31259 11.355 52.986
4.16323 10.9908 35.4136
2.98133 8.01914 17.9883
1.21134 7.74663 51.907
5.16615 13.999 56.1109
5.3698 15.3719 46.0981
3.93227 11.4012 33.0782
3.26248 10.161 27.873
2.73459 14.1019 52.8866
4.27669 11.9611 46.8067
5.32624 19.4391 52.8012
3.36651 9.51308 37.9883
3.55729 10.0154 20.3648
1.58468 8.27929 40.1474
3.80851 12.9407 38.8995
2.93251 7.26738 19.4059
2.74666 12.5662 32.0741
2.35619 14.6012 65.9806
4.09316 6.18886 34.0186
3.85008 11.8082 34.967
2.95204 8.13307 34.8959
3.34316 11.5716 57.3918
6.0084 17.2885 34.0441
3.49113 19.5399 61.1976
4.01425 10.701 46.0262
3.9408 12.593 32.8364
2.61968 10.264 41.7766
4.18112 14.127 32.9217
2.5907 14.2552 57.3704
3.21249 6.43481 41.235
4.99586 19.8523 44.4937
2.5152 10.7438 57.9935
4.96927 15.0966 40.0728
2.74414 7.41382 41.3879
4.87368 20.7968 53.2727
4.00942 12.7575 40.9686
3.8144 14.2843 40.1525
3.06575 12.9383 43.2907
3.00552 9.60268 47.5897
4.16451 10.7964 33.0151
2.67497 9.5015 43.5544
3.66971 10.1465 37.4194
4.11008 15.0866 35.3982
1.74718 4.95297 29.7699
2.72879 8.64636 33.97
3.84056 17.3235 29.0014
1.8624 11.5418 36.8196
2.24065 11.6717 52.4339
3.44616 5.78631 33.7887
2.86195 8.18771 27.8412
2.36816 9.13831 43.6656
3.7433 11.8142 34.1363
2.64687 8.22209 38.6724
3.058 8.61003 35.7862
3.96905 18.3715 59.3102
3.37687 9.15234 54.1662
4.78172 14.1074 42.7792
3.73928 12.6647 31.3384
2.09459 10.2 61.4994
5.338 12.4161 20.439
1.34688 5.79458 20.0995
1.86358 8.22272 32.6509
2.60963 5.22451 20.9986
2.43851 8.92166 26.9252
2.10595 7.59985 31.3079
3.04767 10.2186 37.9625
2.91073 10.2341 37.3428
3.33584 14.5094 50.2588
3.39138 6.29104 25.4778
2.6207 11.4815 32.4663
2.7474 9.35518 23.1896
1.11694 3.82064 21.0589
1.77553 7.83407 26.8485
1.92515 5.81225 23.1463
2.25281 11.3231 29.905
1.94424 8.28658 33.6362
3.05486 11.4768 34.8246
2.88462 11.4473 31.7858
2.69829 15.6144 63.6765
4.06897 6.48057 15.9031
1.97571 13.8587 48.0588
2.6282 8.7563 46.8894
3.46838 9.40711 37.5731
2.82724 8.08158 37.3447
2.96643 6.2508 35.241
4.65568 20.7246 40.335
2.53612 10.4663 28.3448
2.03642 11.633 34.3438
1.39977 4.73384 49.2595
4.1785 11.0231 18.4731
1.38397 10.7194 66.8408
4.64596 10.5773 41.2327
3.48528 15.4607 47.8569
3.35381 10.7336 42.2863
3.25341 9.55001 30.781
2.3115 8.40129 44.3918
3.10382 6.33216 30.9421
2.89973 12.8372 52.8833
4.47762 19.6094 57.3808
3.44907 10.1599 38.703
3.38142 14.9862 57.643
4.30535 13.0823 36.3836
2.95297 11.2109 45.2247
3.53375 12.765 29.5995
1.668 6.29593 49.0513
4.12292 7.89233 23.651
2.82706 15.4064 51.1604
3.94978 13.3711 35.3996
2.17702 8.68758 26.1861
1.71727 5.51233 25.7173
2.30658 10.3111 29.0315
1.60193 3.10381 12.8524
1.36534 12.4492 75.7324
5.98555 13.7566 20.0078
1.02169 6.65936 43.9319
3.1982 9.85199 43.9572
3.47926 9.68917 26.2237
2.34934 7.86112 20.4159
1.46018 6.30057 29.3571
2.42056 5.964 17.8203
2.28097 15.5784 58.0131
3.4337 8.46103 22.0605
2.14614 10.8487 29.7895
1.62618 9.16067 55.5623
4.00862 12.4569 51.1658
4.20776 14.5871 57.7693
4.05717 11.9712 39.0597
3.44758 15.5015 42.4324
2.63078 7.34374 27.5937
1.94178 7.57794 45.3159
3.53259 14.4807 50.2341
3.76238 12.892 34.7891
2.34551 10.8634 48.1364
3.58782 11.6242 34.1764
2.10548 7.58338 24.4105
1.66954 10.7472 51.825
3.63104 10.1777 45.5573
3.80851 11.3355 32.9374
2.61925 9.56608 32.7933
2.06097 8.42725 44.5554
3.74524 16.7312 57.9658
3.48713 10.7037 37.1107
2.67586 8.30269 36.2777
2.54232 6.76299 20.7485
1.48824 8.71501 22.9775
1.23705 6.50466 45.3143
3.62292 11.0131 22.3955
1.39318 9.65083 32.5827
2.0617 4.54987 19.5481
1.46194 8.87877 41.2711
3.05005 11.0316 41.5127
3.01988 9.52444 32.4311
2.37859 10.8042 48.0042
3.43303 12.3331 45.4112
2.77431 6.42238 25.2729
2.16741 9.45808 51.5852
3.92882 12.1028 41.1745
2.93951 10.9199 26.4776
1.82991 9.0414 49.172
3.0791 6.29844 24.6912
2.25756 10.2028 29.7917
1.84357 10.5691 63.7285
4.32614 9.58393 40.5903
3.3506 16.647 26.8203
1.53168 8.44311 44.3559
3.31628 10.4491 54.1712
4.56793 15.0087 28.3557
1.62695 6.1849 19.0436
1.40159 10.9506 50.3483
3.05468 5.61241 25.144
2.29923 16.186 65.9212
4.5349 12.7578 41.6041
3.19447 13.3497 57.8821
3.55332 6.59537 24.6027
2.16509 8.28335 27.7643
2.20156 8.93434 27.9578
1.9709 7.0367 12.2792
0.748721 7.45839 29.7166
1.83038 5.5498 39.7604
3.09449 15.3683 51.2071
3.15616 12.1108 69.894
4.6709 18.9088 70.9046
4.43336 9.77803 21.3506
1.7271 6.63943 44.127
3.36576 11.9828 31.5537
2.52492 11.7885 43.0361
2.62788 6.28472 33.1241
2.50526 8.04247 25.9785
2.12193 13.1734 40.9749
2.6379 11.3876 30.3085
1.85765 6.40568 30.0261
2.38227 11.435 30.1162
2.1014 9.92095 41.982
2.75216 7.88825 33.7766
2.35652 6.14365 34.7294
2.47962 5.80013 27.0719
2.1885 7.36734 28.6601
1.9664 5.55375 42.0295
3.83584 14.5464 38.9193
2.4284 13.9083 42.7981
2.91936 13.071 72.9334
4.89692 11.7722 39.1885
2.77813 14.143 53.6317
3.20959 8.13153 25.2711
1.7967 7.44953 21.9124
1.57654 6.75681 28.086
2.01004 7.24492 22.8618
1.60254 7.83758 44.6119
3.30452 9.45782 32.3515
2.25369 6.76003 23.2787
1.50552 10.5318 36.4604
2.47493 11.0874 32.0105
1.84617 2.52804 15.391
1.31482 8.30563 36.847
2.81502 9.86922 35.0671
2.26315 7.16291 31.2655
2.40966 9.60881 33.8103
2.212 7.97864 37.007
2.29689 7.57144 34.8813
2.63052 10.4406 30.1707
2.08256 9.2255 34.6144
2.35917 6.82239 17.1766
1.58664 13.3733 56.0451
3.6257 8.19553 44.4829
2.88238 9.14989 36.8569
2.40897 7.65946 25.6901
2.11405 9.26386 46.6459
3.25969 13.3144 40.302
2.60763 6.29468 23.5395
2.07479 13.276 63.3246
4.13025 12.1774 26.1442
1.74564 8.18169 25.0842
1.64255 9.24319 34.1993
1.88473 7.50994 43.5251
2.65763 10.6799 34.0675
2.12581 4.73645 19.4678
1.25016 6.15514 52.1147
3.70593 17.279 36.5053
2.59741 8.4369 34.9824
2.72674 8.95241 40.0309
2.66825 10.7913 39.3409
2.6808 12.8221 38.2161
1.85472 7.58677 50.568
3.41086 11.8343 49.7814
3.60052 16.4112 44.122
2.38212 8.97841 43.9458
2.91417 10.0464 49.203
3.01487 13.6426 54.0271
3.392 10.7656 66.3694
4.46539 16.1281 49.7354
3.18402 8.11232 33.2814
2.50548 14.2477 49.7537
3.26938 14.4232 38.2034
2.10442 2.34277 22.5129
1.63742 8.93787 34.8884
2.33634 6.76335 37.7524
2.49731 9.60573 43.0182
2.92786 9.08831 25.2771
1.74402 9.34043 23.7407
1.40755 5.72876 36.3424
2.72295 12.5302 50.9406
3.32101 8.69258 27.0689
1.8001 5.1377 28.3319
1.92037 9.26506 26.9541
1.79671 7.24776 33.9426
2.51845 11.7841 49.5973
2.91459 10.6487 34.7132
2.58446 10.9065 44.1752
2.77619 12.1966 33.6403
2.05352 7.43273 25.0823
1.97215 12.1423 63.2768
3.93169 7.57397 22.1519
1.44262 7.36009 32.5241
2.18708 13.5469 70.1183
4.49072 8.54256 27.7827
1.80464 7.41777 34.4948
2.58502 18.9201 81.694
4.94211 10.0761 26.4412
1.55564 5.47941 23.8016
1.51666 12.6044 38.4907
2.53636 7.18428 58.6115
3.9194 11.4862 28.9929
1.6795 6.07112 25.1727
1.76392 6.29909 38.0103
2.60565 15.5577 49.556
3.09095 5.73362 34.3607
2.36267 11.8876 28.1695
1.71167 8.49262 27.1228
1.77441 5.30079 29.2828
1.74791 7.67294 32.7118
2.51534 12.4006 40.9864
2.26016 9.71515 31.1461
1.74309 9.86616 57.2165
3.47156 9.74873 28.9103
2.10584 6.59057 42.3647
2.7793 12.0617 34.3623
2.46088 8.69163 35.9508
2.26713 9.64775 53.5044
3.51954 14.3514 42.3849
2.62556 12.5115 31.6247
2.24042 14.0731 75.3479
4.87762 12.6956 56.1418
3.98848 14.7562 44.0365
2.59691 7.99056 64.2166
4.26773 15.2559 45.3915
3.18749 7.73542 30.2834
2.17956 6.98426 27.7436
1.94112 11.2395 30.0969
1.69989 9.02771 45.5237
3.04926 9.55922 35.881
2.35021 8.09916 39.0511
2.40216 12.7067 52.4157
3.05117 14.59 50.7924
3.68841 15.0705 43.4099
2.79619 10.0822 37.1337
2.12228 6.41161 27.0214
1.82532 7.74237 56.0397
3.4023 8.81568 25.0905
1.43414 9.72811 34.2801
2.36026 6.08253 47.8438
3.39582 11.189 19.3013
1.06103 7.49178 48.3837
3.31158 10.6092 35.5476
2.086 13.8825 46.3149
2.72141 7.91187 46.5252
2.99763 15.8 50.6964
3.62812 10.352 38.33
2.16908 4.77189 25.0806
1.68436 7.47279 32.5739
1.91309 9.44269 33.2167
1.77451 5.27662 33.7151
2.14525 5.36236 26.1453
1.68364 8.42761 29.6353
2.02556 10.0299 33.9022
2.06733 8.66683 24.2564
1.63778 8.16219 58.7084
3.83763 14.5674 43.9394
2.6781 7.98731 43.8835
3.05721 7.9437 39.7279
2.84749 7.84501 22.6585
1.49679 8.25814 17.8261
1.20874 10.6776 38.2388
2.38475 7.81309 28.5039
1.8452 11.0105 52.635
3.24083 8.57807 33.5005
2.10867 6.05246 35.0667
2.11088 12.2754 30.6631
1.86847 5.76541 26.7147
1.73463 9.06663 29.5157
2.08372 11.1779 38.2604
2.40638 6.90829 30.9513
1.88982 8.60318 34.0221
2.04216 9.23123 55.97
3.66835 16.1149 98.4389
6.91325 19.1449 28.0764
1.81077 13.9742 49.9691
3.29593 6.33744 38.9735
2.6361 13.4809 52.4894
3.57761 8.54933 22.0338
1.43798 4.14377 30.7378
2.15224 12.8725 29.4059
1.83897 8.20089 56.9939
3.76302 8.03469 18.222
1.24973 7.40722 36.009
2.55159 9.56639 62.4096
4.24861 15.0062 37.1342
2.61974 9.42891 26.2515
1.71566 7.60223 33.5314
2.03331 3.35123 24.9354
1.67925 10.5619 28.7419
1.69856 9.18803 40.8735
2.56507 8.99315 30.1968
2.13327 10.4846 52.3347
3.67067 0 0