# pn-170911/RbIIR-56-RbIIR-1280-1959.psd
# Power spectrum* (dif=0,1,2) (really just |FT|^2)
# NOTE: only the first half! (symmetric)
# weeks: 1280-1959
# 4152 clock-days, 578 excluded
# PSD: 1441
2414.41 0.109539 0.0458843
49902.4 0.576996 0.0549696
360419 7.99702 0.053411
27458.1 1.01007 0.0563502
146749 11.2583 0.0555982
10451 0.995127 0.0548407
12466.1 1.83235 0.0534702
5488.05 1.02843 0.0539436
6806.82 1.86649 0.054752
3599.94 1.14817 0.0532829
3206.14 1.25035 0.0545275
2459.03 1.17243 0.0555236
2406.76 1.38724 0.0531537
1881.53 1.26057 0.0544257
1732.58 1.37864 0.0563332
1405.6 1.2724 0.0539133
1380.25 1.43597 0.0559529
1131.44 1.31094 0.0558995
1105.44 1.48288 0.0544354
962.496 1.40923 0.0563244
901.855 1.48436 0.0582754
836.308 1.53398 0.059392
842.058 1.71373 0.060987
746.681 1.63479 0.0605837
718.904 1.72785 0.05961
688.015 1.80469 0.0615449
659.078 1.89296 0.063076
628.882 1.96486 0.0629991
608.504 2.02809 0.0654054
580.455 2.08953 0.0657631
577.303 2.24637 0.063912
533.865 2.16923 0.0662589
522.824 2.29002 0.0663373
507.11 2.39808 0.0714867
516.753 2.58156 0.0736235
500.894 2.67303 0.0708167
458.91 2.58488 0.0674831
459.806 2.76852 0.074272
451.131 2.85255 0.0725896
444.758 2.95205 0.0802788
422.546 2.97299 0.0795901
419.068 3.08092 0.0832394
424.667 3.31736 0.0807434
417.805 3.415 0.0873173
408.194 3.49075 0.0860037
411.968 3.69029 0.0929656
388.025 3.66285 0.0940454
389.019 3.82431 0.0999262
379.429 3.88946 0.0999976
359.074 3.92701 0.103104
367.67 4.1054 0.106867
368.615 4.2779 0.107619
348.57 4.20689 0.106847
354.371 4.51288 0.117988
355.428 4.69177 0.122171
348.338 4.76629 0.128357
341.729 4.83286 0.132772
337.327 4.91824 0.13541
332.026 5.06981 0.142379
334.92 5.29231 0.147245
321.961 5.22821 0.145771
322.562 5.49085 0.155351
322.737 5.65836 0.161817
317.102 5.74098 0.164458
322.93 6.04146 0.173484
311.67 5.95886 0.176198
304.862 6.04278 0.18332
303.289 6.23317 0.189697
312.238 6.56599 0.19633
312.481 6.80957 0.21124
298.417 6.72123 0.21562
301.619 6.98819 0.221631
301.016 7.17295 0.233396
294.328 7.21512 0.239493
297.943 7.52673 0.254313
303.217 7.8698 0.267255
287.257 7.56191 0.268091
290.717 7.89945 0.277499
284.269 7.96201 0.28623
282.231 8.09961 0.29723
288.439 8.47577 0.313229
285.658 8.68747 0.333585
283.14 8.79822 0.338745
272.04 8.63219 0.34045
278.482 9.03596 0.363381
275.397 9.08294 0.36594
265.481 9.0839 0.380832
264.133 9.27085 0.387614
261.889 9.34353 0.399205
266.903 9.71261 0.425489
267.996 9.96916 0.441618
266.285 10.258 0.458254
264.875 10.404 0.47869
255.752 10.1903 0.468453
255.719 10.3534 0.490426
255.554 10.6743 0.510496
259.73 11.123 0.542982
251.992 11.0256 0.544025
247.816 11.0412 0.567554
251.371 11.3933 0.586962
248.865 11.5083 0.604208
244.779 11.5272 0.609394
237.656 11.4526 0.619045
242.035 11.9566 0.663351
234.779 11.7619 0.65064
236.39 12.0572 0.681863
232.659 12.1461 0.704995
234.158 12.518 0.737596
232.63 12.5248 0.745737
239.388 13.1295 0.783223
230.1 12.8979 0.798867
224.697 12.8758 0.810835
233.287 13.5469 0.857602
230.171 13.6645 0.878547
227.761 13.7465 0.902936
225.76 13.8683 0.92648
224.688 14.0111 0.948553
233.124 14.7378 1.01038
220.455 14.3446 0.998094
220.998 14.5861 1.03406
218.657 14.4845 1.04676
222.987 15.2035 1.11066
220.489 15.1673 1.11727
212.202 14.9654 1.13424
222.855 15.8606 1.20325
218.23 15.8552 1.234
218.372 16.0913 1.25489
207.85 15.5444 1.23984
215.208 16.3058 1.31417
211.01 16.313 1.33879
205.137 16.1581 1.35421
212.964 16.9857 1.42733
214.376 17.376 1.47761
213.493 17.5108 1.52168
208.941 17.492 1.53855
206.627 17.5424 1.56226
200.839 17.257 1.56663
202.803 17.6032 1.61393
203.876 18.0242 1.6842
202.936 18.1213 1.68209
196.912 17.9017 1.70795
197.941 18.2143 1.76676
194.577 18.295 1.80025
195.554 18.6403 1.85331
196.774 18.8427 1.89248
191.963 18.6703 1.8999
187.637 18.6224 1.92109
198.092 19.8487 2.09023
193.401 19.7035 2.0909
188.402 19.3517 2.06831
189.27 19.735 2.15191
192.038 20.2924 2.22555
184.835 19.8117 2.21705
189.597 20.5795 2.33602
190.301 20.9131 2.3952
189.583 21.178 2.45222
185.176 21.014 2.48058
180.299 20.6112 2.43215
181.369 20.9899 2.51231
189.331 22.3289 2.71289
179.42 21.3388 2.63642
180.225 21.632 2.68936
182.296 22.2781 2.80187
181.269 22.1733 2.83343
174.811 21.8486 2.8229
176.165 22.3411 2.90909
176.699 22.5675 2.97913
178.083 23.1527 3.10059
178.475 23.326 3.12728
177.507 23.5751 3.21521
172.171 23.1072 3.19137
170.288 23.152 3.24117
176.766 24.2916 3.40752
166.867 23.2477 3.32793
170.316 23.7986 3.42702
162.794 23.3033 3.43171
178.473 25.6045 3.76246
166.374 24.2121 3.63927
167.724 24.667 3.72077
169.127 25.2413 3.86078
164.894 24.8068 3.81072
164.616 25.0188 3.89515
161.975 24.8519 3.9526
165.594 25.6166 4.02922
162.065 25.6977 4.13436
160.881 25.5235 4.13027
163.683 26.291 4.3211
161.95 26.204 4.32553
161.768 26.6664 4.5049
169.139 27.8402 4.69746
161.411 26.8308 4.56239
157.2 26.6225 4.62375
157.849 27.064 4.73318
158.292 27.2828 4.80366
158.056 27.3842 4.8867
153.369 26.9989 4.82944
150.149 26.5693 4.80361
155.059 27.9378 5.1129
154.623 28.281 5.25939
153.487 27.9653 5.22328
153.114 28.3678 5.35262
153.649 28.7844 5.49581
152.486 28.9099 5.56231
148.62 28.3196 5.526
154.794 29.6091 5.78538
147.395 28.5973 5.66798
151.609 29.7749 5.97464
149.966 29.611 5.97008
147.662 29.4854 5.99626
143.946 29.262 6.01264
145.252 29.4664 6.1011
139.568 28.7763 6.06501
143.702 29.8248 6.30903
145.646 30.4901 6.4954
142.206 30.1521 6.5133
145.394 30.9569 6.71889
143.801 31.0033 6.78639
136.24 29.819 6.60563
140.447 31.0267 6.9821
137.135 30.3964 6.87013
139.804 31.0719 7.04765
140.056 31.7485 7.30735
138.33 31.4166 7.27807
139.503 31.8454 7.43172
137.414 31.8197 7.50634
136.216 31.6599 7.50013
135.866 31.8902 7.64339
136.545 32.3774 7.77481
137.279 33.0034 8.07476
135.848 32.7594 8.03917
135.192 32.9674 8.1487
133.765 32.927 8.24244
133.368 33.1238 8.34296
132.763 33.3613 8.48851
129.637 32.7153 8.43178
130.864 33.3133 8.62443
129.624 33.2519 8.62111
130.847 33.8552 8.9308
128.812 33.4816 8.83126
130.469 34.3487 9.14009
128.656 33.8479 9.02362
128.168 34.4826 9.39337
126.16 34.1176 9.36803
122.958 33.3638 9.20481
123.224 33.8716 9.47663
125.305 34.7964 9.79742
124.082 34.4962 9.73041
125.824 35.1177 9.99729
124.587 35.101 10.0036
123.858 35.3859 10.2719
123.443 35.4602 10.3242
123.449 35.5897 10.4645
121.833 35.4263 10.4672
122.586 36.0431 10.7819
117.648 34.6511 10.4109
120.46 36.1253 10.9395
123.877 37.1916 11.295
121.126 36.6142 11.2564
117.202 35.6211 10.9866
119.259 36.9801 11.5591
115.644 35.6581 11.188
120.621 37.7185 11.9507
120.706 37.8754 12.0723
112.27 35.7826 11.5331
114.279 36.5929 11.869
115.247 37.1921 12.1865
117.022 37.9082 12.3649
114.551 37.4286 12.4012
114.573 37.695 12.5958
112.444 37.1566 12.4306
110.481 37.051 12.6038
112.676 37.8918 12.8706
111.19 37.5786 12.8908
110.826 37.9443 13.1511
113.871 39.0149 13.5817
111.229 38.5884 13.5403
107.776 37.3499 13.1533
108.787 37.9748 13.3812
106.523 37.8635 13.6209
108.371 38.4462 13.8551
109.201 39.0105 14.0462
108.032 39.0105 14.1977
106.489 38.8902 14.3246
104.578 38.6037 14.3094
103.563 38.4215 14.5011
106.838 39.6552 14.9123
105.584 39.2902 14.8282
101.585 37.9648 14.4467
103.43 39.3158 15.0941
103.238 39.1155 15.0843
102.783 39.4177 15.3936
104.361 40.2008 15.6931
105.937 41.022 16.0522
101.67 39.8113 15.7613
102.819 40.5494 16.1635
97.2001 38.6436 15.5489
99.0211 39.3418 15.9166
102.147 41.1654 16.6202
96.743 39.1083 16.0647
99.5117 40.3511 16.5542
95.6599 39.1179 16.2019
98.4155 40.6801 16.9496
95.9152 39.8583 16.7408
99.2046 41.2678 17.3815
96.7177 40.6798 17.3403
98.5049 41.6488 17.7846
96.5521 41.1555 17.7485
96.9807 41.3643 17.9402
97.1224 41.7495 18.1313
95.8793 41.7038 18.3584
93.3257 40.4996 17.8983
94.2935 41.1691 18.2113
94.3074 41.4792 18.452
92.6208 41.3134 18.6389
95.9214 42.7391 19.2264
92.4282 41.6791 19.0603
94.5682 42.6827 19.4827
93.4166 42.4678 19.5473
92.4122 42.0621 19.4459
93.3374 42.8784 19.8141
88.0837 40.8811 19.2627
91.7649 42.6852 20.0636
88.0825 41.1164 19.4453
92.0077 43.7656 20.9288
88.8431 42.3271 20.3376
89.8437 43.1569 20.9034
87.094 41.7516 20.4122
88.5529 42.8554 21.0314
90.5899 43.7542 21.368
87.9176 42.9351 21.2261
86.6534 42.2263 20.8724
85.8812 42.7772 21.4626
88.2309 43.8302 21.884
86.676 43.2987 21.8976
86.0105 43.1071 21.7878
82.5911 42.0654 21.7963
86.015 43.6709 22.3413
86.0648 44.0318 22.6539
85.2741 43.9789 22.9304
84.8817 44.1272 23.0763
84.3402 44.0481 23.2886
82.5267 43.177 22.8808
82.7752 43.7177 23.306
84.4732 44.6385 23.7517
80.1102 42.5634 22.906
79.8888 42.7137 23.0563
80.2277 43.4903 23.7996
79.0705 42.7683 23.4095
80.0155 43.7639 24.206
79.4534 43.319 23.8621
79.791 43.8559 24.4718
79.8753 44.156 24.5922
80.8932 45.2523 25.4602
80.2427 44.9804 25.5042
77.8925 43.3002 24.4003
77.9458 44.2424 25.4475
78.9835 44.4286 25.2048
76.7588 44.168 25.6157
76.8624 44.1678 25.6606
76.5975 44.5343 26.1854
77.8375 44.9569 26.2731
76.0102 44.1787 25.9736
76.2845 44.814 26.639
75.3555 44.0787 26.0493
75.5548 45.3027 27.2956
76.8388 45.5529 27.194
75.7859 45.4935 27.3865
72.4222 44.1655 27.1672
74.5233 44.7409 27.2205
74.1544 45.0803 27.6947
74.1757 45.1203 27.7546
73.7858 45.5337 28.3933
73.5913 45.6536 28.581
74.3452 46.0439 28.7085
71.8839 45.2571 28.8725
73.3805 45.8975 29.1644
72.2571 45.3271 28.8704
71.1901 44.8744 28.6972
70.6455 45.1302 29.2331
71.0232 45.2403 29.1793
70.3359 44.4153 28.5578
69.0392 44.1093 28.581
70.6957 46.2114 30.2
69.9751 46.0778 30.6159
69.4747 45.1288 29.7166
69.2505 45.7799 30.4418
68.4122 45.3588 30.4165
70.0213 46.2862 30.8746
68.9192 46.326 31.4976
67.5822 45.0661 30.477
68.4144 46.4413 31.9206
70.0785 47.1884 32.1358
66.0367 45.3382 31.4272
67.9013 46.3107 31.8154
66.8046 46.019 32.1324
66.7146 45.3933 31.3596
66.5403 46.0316 32.0776
64.3768 45.2059 32.0695
65.5751 45.8261 32.4088
65.0654 46.173 32.9358
65.0271 45.7923 32.7606
65.2707 46.4024 33.2914
63.8138 45.4685 32.6885
64.5835 46.8355 34.1319
62.2386 44.8996 32.916
64.0294 46.4804 34.0748
64.4013 46.5106 33.7817
60.9458 44.6333 33.0106
64.097 47.583 35.4096
63.4202 46.9468 35.3591
62.3891 45.615 33.9343
62.095 46.1411 34.395
60.7891 46.1253 35.5181
63.1214 47.1676 35.6286
60.3473 45.4798 34.7444
61.7904 46.831 35.7865
60.9174 46.3539 35.7467
62.0325 47.0353 36.1442
60.08 45.8834 35.3469
59.1948 46.2966 36.5921
60.2184 46.7364 36.8281
58.429 44.8259 35.014
60.7626 47.7151 37.5334
58.6335 45.9421 36.4304
59.1796 46.779 37.4599
60.0668 47.2988 37.6955
59.7315 47.4073 37.8575
56.6499 45.2121 36.5031
58.2606 46.4758 37.4159
57.2359 46.2742 37.6213
57.3772 46.7568 38.3835
58.1775 47.1691 38.5196
57.7782 47.6835 39.2883
55.6739 45.963 38.4238
56.3991 46.288 38.5046
55.7559 46.0122 38.488
55.4399 46.1789 38.9257
56.1194 46.2835 38.7141
56.9272 47.7047 40.1624
54.4967 46.1244 39.3193
55.2931 47.0682 40.5472
57.1224 48.1005 40.8256
54.5935 46.864 40.6518
54.7664 46.452 39.9328
54.499 47.1623 41.0065
54.4504 46.6536 40.4148
53.8892 46.9059 41.0284
53.4819 46.6078 41.0534
53.2379 46.2682 40.6995
53.2379 46.7412 41.4619
53.4885 47.202 41.9232
52.3623 46.2203 41.5984
53.6713 47.2101 41.9708
52.0616 46.2775 41.5955
50.4441 45.8878 42.2725
52.1929 46.4827 42.0223
50.4721 45.5295 41.7625
52.1894 47.088 42.7727
52.0481 47.7455 44.257
52.14 46.9363 43.0373
52.5809 48.125 44.1798
49.6732 45.5471 42.4229
51.3413 47.2384 43.9664
50.3045 46.812 44.0318
50.0557 46.4305 43.5989
49.8415 46.3696 43.5795
49.4595 46.545 44.1548
49.4482 46.8657 44.9305
49.9485 46.7789 44.536
49.3125 46.6337 44.8357
49.0707 46.6178 44.8934
48.6989 46.9027 45.3787
47.9889 45.8333 44.279
47.9198 46.352 45.2281
48.24 46.442 45.2294
46.438 45.7112 45.6688
47.6877 45.6608 44.5365
47.5314 46.6954 46.3173
47.3705 46.2661 45.8181
47.5628 46.6978 46.0938
46.528 46.5329 46.9479
47.2389 46.9762 47.3927
47.1526 46.5761 46.7281
46.7142 46.4977 46.8884
46.7296 47.5943 48.8146
46.6421 46.5741 47.2928
45.1812 45.5232 46.3019
44.6632 45.2741 46.6378
46.3632 47.6774 49.4274
46.2914 47.2631 48.7777
45.5472 46.9266 48.9161
44.2849 45.1928 46.9573
44.3961 46.2254 48.8692
44.3865 45.2841 46.9631
44.0626 46.0153 48.3398
45.0623 47.7815 50.8743
43.8799 45.9504 49.1771
43.889 45.8066 48.6642
42.8154 45.521 49.2914
43.9914 45.541 48.0894
43.6002 46.4454 49.6532
42.8237 46.1417 50.1574
42.1899 45.2657 49.5376
42.4136 45.2555 49.1423
41.9717 44.9649 49.2194
42.5243 45.9454 50.5997
43.5592 46.8034 50.5735
41.7326 45.6941 50.3332
41.9163 45.8188 50.7123
42.657 47.3692 52.9527
42.5281 46.4271 51.2262
41.3889 46.1568 51.5121
40.7943 45.4132 51.5387
42.0521 46.7978 52.7206
40.9098 45.3417 50.7887
40.6558 45.7171 52.1146
41.3411 46.3976 52.4816
41.3272 47.1065 54.1339
40.8186 46.1695 52.8225
39.8639 45.1385 51.9269
39.3997 44.998 52.149
39.8857 45.8839 53.5212
40.5858 46.3987 53.718
39.5817 45.7301 53.1933
39.1151 45.5129 53.8085
39.4326 45.8938 54.1826
39.6587 45.3273 52.9936
39.737 46.5397 54.8821
39.5902 46.6201 55.138
38.7731 45.5075 53.7594
37.5438 44.6706 53.7188
38.0031 45.0153 54.3514
38.5148 45.7136 54.7548
37.6807 44.8077 54.0484
38.8307 47.138 57.1769
37.5399 44.816 54.6317
37.2014 44.4865 54.1514
37.6622 46.264 57.0734
37.8958 45.7346 56.1292
36.1766 43.8025 54.3325
37.8059 45.9035 56.6697
37.8463 45.5181 55.1328
35.171 43.5802 54.6664
36.6359 45.2004 56.2678
37.1887 46.0117 57.2726
35.3147 43.8205 55.5029
36.3165 45.185 57.2325
37.0097 45.8271 57.5965
36.4703 45.0554 56.816
36.1703 45.4712 57.3734
36.473 45.9287 57.8362
34.6725 43.9691 56.5566
34.5427 43.7078 55.9699
34.3415 43.4794 55.8314
34.8005 44.5194 57.4477
34.3774 44.264 57.7247
33.5477 42.8647 55.7305
34.5847 45.0879 59.019
34.2518 44.359 58.0584
33.7564 43.7869 57.5081
33.6396 43.437 57.1698
34.9974 45.5788 59.433
32.9102 43.0512 57.2373
33.865 44.7806 59.5406
34.8451 45.9995 61.221
34.1248 44.6981 58.8465
32.7108 43.891 59.2207
32.8393 44.1908 59.9496
33.0716 44.1437 59.6874
32.8976 43.8597 59.3248
33.4141 44.9097 61.1221
32.8403 44.194 60.6554
32.6982 43.7103 59.6491
32.952 44.5894 60.636
32.6355 44.4946 60.9652
32.5699 45.0651 62.6966
32.3227 44.1819 61.5841
32.7272 44.3171 60.5615
32.2122 44.5706 62.1057
31.6194 43.3801 60.5622
32.1451 44.9052 62.7415
31.5078 43.6893 61.9016
31.5128 43.5305 61.1099
31.001 43.1018 60.3984
30.4427 42.4043 60.1863
31.1068 43.4652 61.5188
31.0464 43.788 62.4898
31.1756 43.9246 62.8617
31.7855 44.805 63.4714
30.9226 44.018 63.3738
30.8452 44.1914 64.0838
30.2747 42.2916 60.3784
29.9633 43.4829 63.3467
30.5297 43.7894 62.9949
29.2516 42.033 61.6402
28.8562 41.1933 60.286
29.5912 42.7763 62.3052
29.1401 42.6767 63.1734
29.9646 43.1859 62.8899
29.0422 42.4782 62.2267
27.6478 40.9038 62.0546
29.2943 42.7377 63.425
29.7053 44.0271 64.8531
28.0662 41.7558 63.2322
28.9196 42.7974 64.4677
28.9791 42.4154 63.2771
28.815 43.3899 65.8575
28.5736 42.6373 64.3321
28.3402 43.2823 67.1592
28.4 41.8778 64.0671
28.844 42.54 64.1002
28.4482 42.8404 65.1468
27.7328 41.6723 63.9825
28.793 43.5303 66.0395
27.7414 42.7581 66.5317
28.145 42.2079 64.1719
27.3843 42.1542 64.6857
26.8431 41.9396 65.9365
27.1329 41.4097 64.6433
27.1781 41.9023 65.7047
27.3713 41.9685 65.8109
27.4393 42.6685 66.8739
26.8906 41.7995 65.9577
27.3717 42.9904 67.5286
27.0406 42.2131 67.1263
27.6234 43.7581 69.0818
26.3988 41.5253 66.6057
26.5304 41.741 66.3913
25.5319 40.0792 63.8529
25.7346 41.3395 67.155
26.0831 41.0781 65.8297
25.7351 41.2489 66.7497
25.4197 40.5616 66.2779
25.9326 41.3703 66.8314
26.2152 42.0783 67.8318
25.4561 41.0048 67.168
26.1578 42.8595 70.3941
26.3866 42.0913 67.5718
24.9637 41.0825 67.9993
25.3691 41.3269 68.7584
25.7881 41.8743 68.77
25.3255 42.0575 70.7387
26.1429 42.3808 69.2433
24.7521 40.9346 68.6022
25.5778 42.4813 70.5512
24.8222 40.8618 68.8247
24.6196 40.4702 68.473
25.1445 41.6759 69.1568
24.5545 41.1101 68.9666
23.9584 40.3948 69.2067
24.3496 40.9635 70.3562
24.7758 41.191 70.071
24.8606 41.7153 71.4195
25.4218 42.5756 72.1215
24.6581 41.1783 69.7472
24.2772 41.5852 71.1142
23.5551 40.375 71.0191
24.2371 40.8057 69.8525
23.6259 41.1227 72.3489
23.9398 40.1705 69.5192
24.051 41.2654 71.5184
23.3777 39.8069 69.718
24.0333 41.2276 71.0524
23.4316 40.2439 69.9831
23.2116 40.6699 71.6368
23.1587 40.2478 70.8176
23.0031 40.4091 72.0341
23.3587 40.5858 71.7921
23.2819 40.5618 71.4994
22.9742 40.4455 72.2538
22.6956 39.5938 71.5785
23.2556 40.2283 70.7157
21.9743 38.8345 70.4318
23.1365 40.4372 71.1069
22.2437 39.7508 70.96
21.8736 38.9201 70.5315
22.2244 39.9393 72.1016
22.0797 39.6352 72.304
22.2442 39.7027 71.6544
22.4795 40.8428 74.0741
22.0368 39.856 72.7746
22.1998 40.4457 74.2029
22.1755 40.0801 73.3615
22.0612 39.8277 72.557
21.4553 38.9809 71.8992
21.1937 38.7565 71.7684
21.3575 39.4595 73.9638
21.4596 38.9153 71.3882
20.8077 38.1735 70.8774
20.5008 38.2526 73.0269
21.5611 38.6696 71.4197
21.2156 39.4735 74.3031
21.542 39.4824 72.9617
20.3253 38.0937 72.7725
21.3209 39.795 75.5276
21.3574 39.2821 73.7513
21.3336 39.8858 74.9951
20.9636 39.1814 73.6684
20.3083 38.6323 73.9987
20.4966 38.7442 74.2939
19.8005 37.0914 72.2187
20.5409 38.2017 73.0066
20.3898 38.7524 74.2644
20.6442 39.0732 74.4025
20.2469 38.8098 75.488
20.6489 39.5 77.0231
20.934 39.5438 75.6084
20.0183 38.1898 74.139
20.2314 38.9982 75.1674
19.3748 37.3803 74.286
20.2984 38.8568 75.2202
19.9716 39.2473 77.7502
20.3879 39.5046 76.9339
19.5265 38.0567 75.4574
19.5341 37.7826 75.1102
19.8699 38.3328 75.4044
19.5896 38.269 75.8238
19.4491 37.7683 74.7636
19.2717 37.9644 75.5503
19.5115 38.5212 77.17
19.5286 38.4579 76.665
18.844 36.7048 72.8114
18.4819 37.6213 77.5961
18.935 36.273 72.8075
19.2035 38.6919 77.1678
18.9568 37.2878 74.6103
18.8867 38.0901 77.213
18.6285 36.8764 74.2846
18.2468 37.1788 76.7911
18.7024 37.1735 75.4309
18.7783 38.5555 78.8933
18.5276 36.568 74.1619
18.265 37.7411 77.7479
18.0438 36.4431 75.9785
18.375 37.1454 77.4616
18.7165 37.3359 76.7817
18.7352 37.5013 75.3849
17.5931 36.5956 76.8227
18.0463 36.7492 75.6242
17.4582 35.8653 74.6278
17.5495 36.3896 76.271
17.7124 36.5577 77.1861
17.6848 35.9669 74.812
17.4385 36.3004 75.3267
17.1145 36.3155 78.0482
17.5987 35.95 75.8275
17.6979 36.8209 78.2339
18.0438 37.3237 77.4258
17.0122 36.126 78.4239
17.6747 36.4842 76.6458
17.3747 36.8734 78.9299
17.449 36.6551 77.9906
17.0643 36.0729 77.9582
17.0393 35.5333 76.4559
17.2817 36.4799 78.8065
17.5502 36.6746 77.3846
16.7522 35.8009 77.6322
16.9371 36.3284 78.4813
16.6133 35.1406 76.4183
16.6589 35.1833 75.2367
16.1528 34.823 76.9234
16.9204 36.3827 77.8423
16.3004 34.8861 75.5404
16.0662 35.2299 77.4513
16.4391 35.7244 78.8506
17.0063 37.2361 81.1493
16.201 34.8116 77.8033
16.8129 36.3039 79.7061
16.5408 36.2866 80.329
16.2716 34.6267 75.9304
16.438 36.1116 79.1952
16.0444 35.3947 79.4298
15.845 34.0989 75.9275
16.1346 35.905 80.3738
15.993 35.1204 78.8195
15.9909 34.755 77.6271
16.1832 35.8601 79.7763
15.9673 35.2856 79.0743
15.8667 35.0075 78.4029
15.4502 33.8238 76.3658
15.8489 35.9183 81.2103
15.5346 34.3198 77.7716
15.6504 35.1422 78.5031
15.1131 34.5203 80.1605
15.598 34.6831 79.4934
15.4389 34.1537 78.038
15.4871 34.8029 79.0577
15.1299 34.0751 78.9073
15.5392 35.1893 80.6644
15.4755 34.7031 79.2945
15.0233 33.5275 76.2808
14.8383 34.2323 79.6009
15.1092 34.4616 80.161
15.1439 34.0096 77.8764
14.8944 34.0677 79.2093
15.4402 36.0915 83.5669
14.9115 33.8772 80.2434
15.2058 34.8068 81.2696
15.1912 34.4261 78.6437
14.4365 33.7747 80.1421
14.9241 34.6697 81.3467
14.7571 33.6599 79.2828
14.6014 33.5729 78.3966
14.5708 33.7 78.8745
14.4855 34.29 81.4388
14.5873 33.9502 80.3979
14.3123 33.2974 79.8266
14.6733 34.3373 80.8013
14.0392 33.0371 80.6471
14.6604 33.9926 80.6607
14.109 32.6777 78.4545
14.2554 33.6225 80.5999
14.5144 34.4717 81.8761
14.4831 34.4145 82.648
14.1812 33.0755 79.9563
14.4297 34.6541 83.1286
14.1103 32.9365 79.6812
14.0436 33.2993 80.5895
14.1936 33.5946 80.4893
14.101 34.3615 84.0973
14.0256 32.9013 80.6935
14.0499 33.3393 79.9555
13.6289 32.8502 80.9632
13.9519 33.5997 81.9424
13.6666 32.7006 80.6773
13.7222 32.5735 78.7225
13.4518 32.7673 80.5887
13.7141 33.265 81.2636
13.5509 32.6269 80.9102
13.6131 32.8467 79.9816
13.3051 32.7237 80.6941
13.3903 32.8861 82.1799
13.4498 32.8009 81.7717
13.5326 33.183 81.5525
13.2548 32.6091 81.8863
13.4081 32.4015 80.2048
13.2509 33.0116 82.7903
13.3909 32.5823 81.7229
13.0897 31.642 78.6
12.9082 32.2573 80.986
12.889 32.1964 81.9923
13.1107 31.9141 78.9574
12.779 32.3344 83.0176
13.3458 33.2963 83.2113
12.8988 31.8954 81.3497
12.9518 32.1071 80.7998
12.6846 32.4569 84.4154
13.3078 32.645 82.177
12.6816 31.6227 81.0248
12.7242 32.1908 83.1908
12.7586 31.8504 82.0614
12.8772 31.8627 81.228
12.4745 31.7602 83.0274
12.9812 32.5453 82.5258
12.6543 31.7085 81.5693
12.6599 32.6855 84.1664
12.8148 32.5381 83.1882
12.4861 32.1409 83.6832
12.422 31.3015 81.6043
12.5646 32.1218 82.4696
12.1707 31.0962 81.4311
12.0762 30.5946 81.1045
12.6728 32.709 84.6099
12.4946 32.3573 85.2778
12.4462 31.4067 82.6908
12.5029 31.8226 81.8723
12.0988 31.6418 83.2912
12.0707 31.0268 84.3088
12.6683 31.3763 80.5895
12.2114 32.1087 83.9626
12.064 30.8602 82.2287
12.2583 31.8385 81.9898
12.0481 31.7163 83.2564
11.9109 31.5208 83.5791
11.8725 30.511 80.9951
11.7535 31.1855 83.5899
11.7537 30.2526 80.2994
11.7486 31.0708 82.5439
11.8151 30.9671 81.6075
11.5875 31.5042 85.421
11.831 30.6507 83.5733
11.9379 31.3427 83.0441
11.5771 30.7374 83.5459
11.71 30.6312 83.0844
11.7416 30.9414 83.1468
11.7019 30.8878 83.3742
11.7316 31.1759 83.3064
11.2776 30.0565 83.3162
11.7564 31.3224 83.5649
11.3536 30.5487 83.4716
11.2679 29.6779 80.4922
11.1362 29.7864 82.037
11.3104 30.4481 82.1668
10.9864 29.2435 81.628
11.2827 30.4133 82.8494
10.9834 29.0295 81.2756
11.3202 30.2481 82.2162
11.0838 29.7629 81.9758
11.0523 29.2865 79.9129
10.9607 29.8514 81.0875
10.759 29.76 82.2927
10.8037 29.5306 84.383
11.1773 29.4971 80.6752
10.8566 30.0656 84.5496
11.1202 29.7451 83.1831
11.2608 30.8009 84.268
10.9006 29.4141 81.0129
10.5796 29.406 83.4548
10.799 29.3733 82.9013
10.9727 29.8801 83.2289
10.6772 28.8943 80.3466
10.5752 29.3906 82.1455
10.6041 28.7103 80.2912
10.5312 29.1971 80.1255
10.3683 29.3974 83.5725
10.6345 29.2127 81.7301
10.2613 28.3456 80.1997
10.3149 29.4461 84.4577
10.5134 28.6978 81.4926
10.5159 29.4202 82.7286
10.4127 29.088 82.6235
10.3837 29.0864 83.5967
10.4827 29.3955 83.9208
10.5422 29.6191 83.785
10.1739 28.8256 84.7573
10.5941 28.8513 81.4849
10.127 28.6369 82.3728
10.2812 28.7875 82.6608
10.1158 28.0738 80.8836
10.2408 28.8852 80.7944
9.7517 27.6118 80.6084
9.94286 28.1632 82.291
10.2121 28.9463 82.6165
10.117 28.957 85.0398
10.3326 28.9741 83.0305
10.1184 28.8035 83.1949
10.025 28.3069 80.0746
9.60407 28.3686 84.7639
10.0091 27.8246 82.3991
10.0221 28.24 81.4911
9.95338 28.9805 84.8554
9.90627 28.175 83.0677
9.94854 28.0826 80.4075
9.64125 28.639 83.8019
9.65594 28.0412 84.5984
9.99112 28.6797 85.9358
9.97455 27.5843 81.4346
9.86462 28.7817 84.837
9.80516 27.5381 80.8701
9.84409 28.9437 84.9081
9.76672 28.2541 82.78
9.57079 27.8405 82.4812
9.5782 28.0681 84.374
9.71985 28.0037 83.1077
9.56906 27.4433 81.2336
9.47005 27.6588 82.1749
9.47172 27.5141 81.9371
9.40399 27.5395 83.1499
9.59742 27.8515 81.4883
9.3079 27.5488 81.462
9.18894 27.3509 83.6313
9.48059 27.8929 84.6125
9.55244 27.9777 84.8535
9.50779 27.0835 80.5347
9.2155 27.5748 81.7123
9.05119 26.626 80.533
9.09233 27.2808 81.9824
9.08117 26.9272 82.92
9.4004 27.9071 84.3364
9.41537 27.7992 83.5383
9.25476 27.1459 81.4758
9.03935 26.8972 82.2992
9.16958 27.0344 81.1914
9.00656 27.0353 82.7048
9.14022 27.5042 83.7911
9.10026 26.5125 80.766
8.90537 27.0975 83.3171
8.99777 26.5904 82.2481
9.02737 26.95 82.9464
8.96889 26.9096 83.9616
9.09447 26.4743 79.0727
8.62352 26.3229 81.1641
8.7569 26.2085 80.6896
8.83655 26.9112 82.2605
8.65626 26.059 81.1347
8.76878 26.309 80.5702
8.45775 25.9385 82.1811
8.90676 26.4543 80.4548
8.41675 25.3319 79.3279
8.60151 25.9842 79.5485
8.4821 26.3524 82.3188
8.67875 26.1554 80.2941
8.33531 25.5743 82.1411
8.85903 26.7095 81.4558
8.5251 26.0524 81.4446
8.46855 25.4922 79.3843
8.34744 25.931 81.4416
8.45683 26.002 81.5757
8.43618 25.6662 82.6827
8.77506 26.3493 80.7638
8.34401 25.7314 79.6393
8.18324 25.4342 80.2878
8.23069 25.3226 80.6748
8.33659 25.7164 81.589
8.44301 25.8782 81.0175
8.28548 25.981 82.54
8.43588 25.9495 82.6539
8.49002 25.999 82.2721
8.27239 24.9308 79.1605
8.23923 25.5039 79.6673
8.1551 25.8969 80.6151
7.99487 25.137 80.5879
8.08846 25.1929 81.6888
8.31772 26.012 82.3489
8.25697 25.9769 83.2814
8.18938 25.2277 80.994
8.17039 25.9408 82.3574
7.94933 24.4758 79.2805
7.95023 25.0489 81.0645
8.1695 25.5096 80.8596
8.03274 25.5134 82.0168
8.05912 25.1894 81.2346
7.98759 25.0055 81.4189
8.02772 24.7937 80.3634
8.0169 25.3236 80.2209
7.83217 24.8456 80.8169
7.97867 25.1196 81.3074
7.82618 24.6289 81.3173
8.08969 25.3364 81.3792
8.03778 25.4275 80.678
7.89661 25.0848 79.5319
7.49108 23.7052 79.8563
7.87613 24.7078 79.8578
7.84196 25.2943 80.9065
7.62087 24.1977 80.1761
7.74849 24.9578 81.8954
7.79796 24.5939 80.6453
7.71004 24.506 79.2259
7.56494 24.653 80.5286
7.54557 23.7105 79.5539
7.68427 24.4352 79.2295
7.56897 24.2578 79.745
7.61879 24.3444 79.1444
7.49815 24.329 80.3056
7.56305 24.4883 80.7887
7.6086 24.7336 80.6451
7.40958 23.6589 80.3476
7.69242 24.8208 81.5228
7.53725 24.3455 81.0585
7.40939 22.8655 77.4208
7.52459 24.2709 80.0835
7.55412 23.9674 77.8019
7.34639 24.4996 82.2243
7.55674 24.0499 77.9641
7.25432 23.6971 79.1896
7.36225 24.1665 79.9231
7.35127 24.4226 82.9501
7.6105 24.3384 81.5181
7.53769 24.6415 83.0624
7.51526 23.4191 75.9392
7.1057 24.672 81.8574
7.26031 23.4047 79.4046
7.29832 24.0475 79.8692
7.18504 23.6234 80.2878
7.3424 23.7855 79.36
7.18853 23.4956 81.8145
7.58035 24.4969 80.0756
7.16602 23.389 80.0327
7.30237 23.6104 79.7673
7.28296 24.2253 80.4711
7.29668 24.333 80.5751
7.01843 23.1832 80.4901
7.22739 23.2954 79.6632
7.20185 24.0399 80.4717
7.12613 23.6054 80.8153
7.1044 23.4576 82.4092
7.42244 23.7483 79.2267
7.14779 23.8172 81.6482
7.28894 24.0596 79.6033
6.97256 23.3203 79.1233
7.05677 23.7585 80.7776
7.03078 23.1596 79.638
6.98861 23.2325 79.0735
6.98951 23.4725 79.7415
6.90346 22.9668 78.2347
6.79265 22.7893 79.4264
7.10417 23.9541 80.243
6.82594 22.8735 78.529
6.77803 22.9124 80.8742
7.05129 23.4709 81.4906
7.15046 23.9863 80.6959
6.85566 22.978 80.0041
6.9512 23.4408 80.5176
6.89378 22.8155 79.0297
6.8821 23.3435 80.0051
6.81406 23.268 81.8092
7.0382 23.6525 81.7556
6.8953 22.7306 79.3004
6.85647 23.3234 80.4177
6.81075 22.8336 78.149
6.64521 22.508 77.8434
6.64316 22.5488 78.3493
6.7134 22.9626 78.4837
6.64319 23.2502 83.4565
6.99504 22.9568 79.1789
6.69158 22.7262 79.1728
6.64957 22.5895 79.003
6.68701 22.8164 80.6022
6.80564 23.1879 80.1248
6.68698 22.5085 78.4344
6.70297 23.2309 77.9297
6.42806 22.4072 81.8118
6.80893 22.8648 79.3318
6.60583 22.4828 79.3188
6.66791 22.534 78.4525
6.54869 22.8671 80.2453
6.62551 22.4394 79.6455
6.70056 22.922 78.3388
6.42788 22.2477 78.7159
6.53456 22.5298 78.6751
6.37876 22.0978 78.9109
6.51591 22.1886 78.6857
6.46606 22.3995 81.8127
6.82735 22.9951 78.553
6.37205 22.1662 81.7636
6.80427 23.2582 81.7849
6.65162 22.5209 80.0573
6.60973 22.8922 78.2966
6.39449 22.3817 78.2999
6.37489 22.4684 80.8672
6.50513 22.3408 80.7037
6.57631 22.4617 79.6718
6.45337 22.2557 79.0851
6.43611 22.3824 78.6993
6.28758 22.3139 80.0733
6.44683 22.1198 78.6983
6.38068 22.3459 78.3525
6.2552 22.2012 81.3289
6.53329 22.4727 80.4201
6.43041 22.0649 78.9287
6.32694 22.1099 79.1805
6.31799 22.1741 81.0455
6.52413 22.5953 81.9243
6.55394 22.812 80.9343
6.45596 22.5807 80.3731
6.31696 22.3021 81.6413
6.44889 21.7648 77.8385
6.26275 22.2278 79.3709
6.32177 22.0116 78.8893
6.21626 21.9931 81.2534
6.45175 22.2632 81.4032
6.4797 23.0395 81.857
6.50624 23.2621 83.7122
6.54575 22.8493 81.9654
6.3486 21.6579 77.5891
6.07172 21.6653 80.4642
6.3345 22.2254 78.2579
6.13949 21.7281 80.4347
6.32888 22.3052 81.888
6.39519 22.0235 77.8692
6.05836 21.5788 79.035
6.15221 21.9198 78.0871
5.9919 21.4248 79.4837
6.15206 21.8113 78.464
6.05762 21.1807 76.1246
5.95412 21.9158 80.3707
6.12282 21.6752 79.676
6.15159 21.6581 79.1348
6.11031 21.6351 79.4796
6.0958 21.4514 78.5038
6.06752 21.4968 78.5358
6.01327 21.1728 76.6564
5.82998 20.7255 79.5336
6.1979 21.3466 77.1301
5.96821 21.4484 77.6498
5.88624 20.8329 75.8283
5.81987 20.6732 75.5241
5.77148 20.7669 77.4226
5.95755 21.3157 77.3398
5.90827 20.8995 76.6916
5.85367 20.8704 74.6825
5.60551 20.3664 76.7591
5.81991 21.0479 77.5917
5.84664 20.8948 77.2593
5.86394 20.6996 77.431
5.88667 20.8784 76.9926
5.81394 21.4747 79.2718
5.98084 21.7863 79.3468
5.88981 21.3335 80.2484
5.96455 21.1157 77.3973
5.8292 20.7571 76.6811
5.74001 20.9294 78.8563
5.87116 20.3514 75.1104
5.66181 20.6588 76.5372
5.75009 20.8781 78.0304
5.8234 21.1903 76.5167
5.68322 20.9297 77.172
5.64871 20.4065 76.7156
5.64699 19.8274 74.4855
5.62783 20.5313 75.8133
5.66295 20.4697 77.0544
5.70395 20.7751 77.0191
5.68652 20.6795 77.2513
5.71608 20.7588 75.8231
5.50696 20.3843 79.0235
5.85749 20.9804 76.3248
5.61025 20.613 77.4261
5.67622 20.4268 76.7903
5.67639 20.5221 75.0583
5.55581 20.8724 78.7294
5.73687 20.862 79.0756
5.76427 20.4832 77.4284
5.70233 20.9428 76.9059
5.59717 20.4266 77.6782
5.60096 20.104 74.9183
5.4964 20.2227 76.0352
5.57608 20.6525 76.6769
5.52928 20.0246 75.5871
5.51899 20.1144 75.8793
5.47261 19.8188 73.8923
5.38225 19.8047 75.9537
5.48347 19.9832 77.1325
5.628 19.9868 74.5325
5.49918 20.7493 78.0431
5.56256 19.9625 76.4597
5.55625 20.4849 76.6029
5.53084 19.9861 74.681
5.36021 19.5999 75.0583
5.45038 19.7672 73.6337
5.28326 19.7945 77.354
5.55863 20.2709 76.5911
5.51138 20.153 75.2368
5.417 20.3752 77.3324
5.52437 19.7806 74.1826
5.34151 20.6852 79.3384
5.64484 20.1575 76.2511
5.48638 20.1483 75.2598
5.38822 20.1244 74.9329
5.32113 19.954 78.4249
5.57957 19.7969 75.6682
5.37413 20.1998 76.3447
5.38512 19.9517 77.4466
5.50371 20.0386 75.8518
5.40888 20.4409 75.5421
5.34718 19.8194 76.9098
5.44651 20.1539 75.38
5.28298 19.6878 77.0275
5.41121 19.7336 75.9107
5.32768 19.703 75.368
5.37506 19.6583 74.9006
5.28267 20.2447 76.5376
5.33219 19.3991 75.5816
5.37374 20.0009 76.4893
5.41574 20.3544 76.9994
5.35388 19.5238 75.3887
5.33881 20.1224 76.5533
5.32357 19.7721 74.6648
5.23552 19.4382 75.9626
5.36397 19.9997 76.1755
5.30827 19.76 77.3933
5.39449 19.6369 75.0429
5.27203 19.7893 75.2883
5.22086 19.3051 74.0856
5.14759 19.4911 76.2344
5.29201 19.6727 75.2304
5.21804 19.1883 74.1574
5.16224 19.164 73.6392
5.14296 19.6277 76.2204
5.35581 19.508 74.4757
5.17174 19.4176 73.8748
5.08981 19.0254 74.1958
5.17518 19.4701 74.8816
5.25741 19.6177 74.1432
5.10958 19.1113 74.7923
5.21101 19.6122 75.5692
5.19022 18.9289 73.1893
5.09925 19.3161 73.8545
5.07821 18.6987 72.3534
5.05225 18.9164 74.8826
5.2232 19.4573 72.6409
5.00181 18.883 74.5576
5.16263 19.1482 74.8382
5.15842 19.5909 75.71
5.22696 19.3752 73.3286
5.01809 19.6417 78.1072
5.34728 20.0298 76.6878
5.23754 18.7929 74.1106
5.10142 19.313 74.2253
5.10791 18.834 72.6913
5.01151 19.438 74.7308
5.04456 18.634 74.354
5.09954 18.977 72.1269
4.92931 18.5331 73.1717
5.02079 19.0417 74.621
5.12287 19.3084 75.4094
5.14088 19.0582 73.1477
5.01131 19.2382 75.1042
5.07248 19.2522 74.3706
5.08045 19.4884 74.1914
4.99501 18.6185 73.5484
5.04011 19.3543 75.6067
5.09624 19.3404 77.7828
5.2984 19.8091 76.2763
5.1344 19.4482 75.2167
5.05124 18.6563 73.8572
5.04901 19.2836 75.2605
5.08699 19.265 75.4995
5.07533 19.0302 73.5462
4.88401 18.4687 74.2157
5.01341 18.7499 74.481
5.04387 19.5202 75.0371
5.04601 19.0419 74.3731
5.02573 18.7514 72.4834
4.8915 18.8412 74.1765
4.99974 19.0978 75.1143
5.01173 18.9325 74.4732
5.00493 19.2102 75.4529
5.06384 19.0104 74.4753
5.02796 19.5554 74.4192
4.96568 18.3194 72.4874
4.88256 19.114 75.6497
5.07892 18.8373 74.27
5.02404 18.8689 74.3816
4.97382 19.5974 75.909
5.04297 19.3286 75.3513
5.07838 19.0455 75.4982
5.04729 19.2226 76.2002
5.13225 18.9485 73.1586
4.9108 18.8624 73.0606
4.8488 18.2673 73.3804
4.90573 19.1309 75.0955
4.97676 18.502 73.2896
4.93712 18.9795 74.7111
4.97737 18.5061 73.1065
4.90561 18.8547 73.67
4.89535 18.893 75.9353
5.05326 19.3007 75.2414
5.00891 19.1308 73.6482
4.87588 18.7224 73.6227
4.89861 18.9901 74.4496
4.936 18.61 74.0928
4.88788 18.3446 73.8939
4.92362 18.5983 72.9732
4.85449 19.1289 73.7993
4.86847 18.3124 73.0604
4.85275 18.2756 71.8514
4.78757 18.5875 72.8359
4.81374 18.3229 74.494
4.96465 19.1682 75.6907
4.97211 18.8825 74.3266
4.88508 18.6589 74.0972
4.87735 18.5616 73.4864
4.86016 18.6903 74.209
4.91229 18.8361 74.5783
4.91478 18.2193 71.0556
4.73577 18.7607 75.0446
4.94904 19.2567 75.4004
4.94687 18.3586 72.7174
4.83241 18.3256 73.1797
4.8601 18.8877 73.4758
4.82 18.552 74.0115
4.87294 18.7224 75.7093
4.94911 18.5495 72.2606
4.75777 18.5741 75.0033
4.93206 18.3875 71.0303
4.66018 18.0332 73.1976
4.80617 18.6749 74.1354
4.90027 18.5463 73.4264
4.84822 19.1778 75.509
4.93186 18.6299 74.2013
4.84947 18.7187 72.8513
4.7783 18.3599 74.9115
4.90805 18.4109 73.1226
4.84354 18.6265 73.9974
4.83362 18.5318 73.3461
4.81761 18.3785 73.2214
4.80902 18.706 74.2017
4.88433 18.5105 73.6565
4.83387 17.8992 73.099
4.78369 18.7476 73.5148
4.81649 18.7303 73.4266
4.76669 18.4926 74.1124
4.83457 18.6515 74.6002
4.84953 18.7783 73.6562
4.79867 18.4472 73.122
4.77104 18.5284 74.9571
4.89851 18.8166 74.04
4.83899 19.2445 75.5746
4.87508 18.8091 74.4449
4.82899 18.8744 75.059
4.9041 18.3543 72.6798
4.71182 18.2982 73.6417
4.83579 18.8236 74.7066
4.85714 18.4879 73.5831
4.8167 18.249 72.2276
4.72599 18.0421 73.8409
4.82709 18.4945 72.7199
4.72872 18.4697 73.527
4.76098 18.1874 72.1517
4.69629 18.1906 71.8703
4.73747 18.345 72.8212
4.73723 18.0276 71.7237
4.70217 18.4306 75.5312
4.9571 18.5532 74.8964
4.87637 18.6815 74.4511
4.85582 18.4442 73.0756
4.76988 18.638 73.689
4.8009 18.4298 73.7792
4.80869 18.4947 73.3526
4.76868 18.2665 73.0083
4.72515 18.3249 73.0291
4.70751 18.2973 73.8996
4.82052 18.9718 74.7642
4.84775 19.0715 74.0252
4.80246 18.4178 74.6772
4.82909 18.3458 74.2401
4.82922 18.5074 71.8471
4.6553 18.0627 72.2625
4.65902 18.0444 71.2315
4.62117 18.0188 73.847
4.77038 18.7359 72.8344
4.73976 18.4419 75.2881
4.91799 18.5202 75.2137
4.88775 19.102 73.4769
4.78471 18.2552 75.0585
4.89857 18.4606 73.7492
4.79045 18.4632 73.6709
4.77011 19.2374 75.2949
4.89174 18.622 74.3186
4.83726 18.6361 76.3295
4.95069 18.4852 75.2549
4.90239 18.6394 73.3596
4.77883 18.5875 74.3102
4.79927 18.572 74.2521
4.8412 19.0521 76.1512
4.91758 19.1733 74.709
4.86237 18.5122 74.8044
4.83208 19.1346 75.9332
4.90698 18.973 78.0191
5.03291 19.2995 76.8789
4.99821 0 0