# pn-170911/RbIIR-51-RbIIA-1280-1959.psd
# Power spectrum* (dif=0,1,2) (really just |FT|^2)
# NOTE: only the first half! (symmetric)
# weeks: 1280-1959
# 4121 clock-days, 95 excluded
# PSD: 1441
3829.11 0.200921 0.0299166
516329 10.4141 0.0248863
1.62839e+06 31.1226 0.0248736
314920 10.1588 0.0265687
199101 11.6108 0.0257665
95936.3 7.30327 0.0256734
65559.3 7.57329 0.0261369
43775.2 6.76574 0.0259818
35987.1 7.09223 0.0261827
25970.3 6.38591 0.0274698
22301.2 6.60944 0.0273983
17562.2 6.26108 0.0278798
15057.5 6.38509 0.0281733
12696.3 6.29751 0.0304714
11026.9 6.54898 0.0319243
9569.8 6.41135 0.0306998
8681.59 6.64113 0.0328587
7617.69 6.60734 0.0331683
6928.49 6.70674 0.0341278
6058.61 6.62877 0.0359037
5789.34 7.00265 0.0386387
5266.51 7.08345 0.04012
4716.8 7.1229 0.040843
4346.51 7.12913 0.0418405
4156.56 7.5389 0.045281
3829.59 7.60721 0.0471038
3523.63 7.48175 0.0481443
3352.87 7.89222 0.0516347
3286.97 8.4031 0.0570112
3048.1 8.4253 0.0578137
2932.46 8.57786 0.0631478
2776.49 8.77188 0.0648738
2606.04 9.01907 0.0688565
2535.14 9.41872 0.0732196
2418.97 9.31035 0.0758759
2393.5 9.76793 0.0804247
2242.62 10.2336 0.0871223
2208.63 10.4857 0.0945267
2091.7 10.4482 0.0941675
1997.49 10.4605 0.101688
1980.27 11.3503 0.111333
1922.73 11.3611 0.114971
1836.77 11.5435 0.118749
1892.09 12.5511 0.134543
1757.04 12.384 0.138486
1699.6 12.3602 0.142016
1706.35 13.1928 0.155617
1655.48 13.3233 0.167289
1606.39 13.4094 0.172023
1509.74 13.74 0.182304
1493.77 13.9727 0.189105
1444.77 13.8067 0.197729
1466.25 14.8309 0.214803
1406.41 14.9206 0.225294
1391.36 15.1798 0.23498
1349.77 15.6475 0.25267
1363.6 16.1957 0.266184
1307.79 16.3717 0.276135
1247.56 16.0439 0.282676
1241.4 16.7991 0.302307
1211.01 16.8807 0.311601
1165.85 16.6036 0.318634
1138.35 16.9351 0.332655
1114.66 16.9704 0.347104
1090.94 17.1505 0.354495
1067.35 17.6622 0.378799
1064.67 18.2908 0.402677
1042.01 17.9473 0.407571
1020.59 18.4765 0.428357
1013.6 18.7958 0.451326
982.286 18.4682 0.454642
962.662 18.9871 0.475315
917.384 18.6323 0.486107
911.661 19.1652 0.512676
913.899 19.3439 0.532283
873.24 19.5738 0.550455
873.829 19.587 0.56
834.385 19.7691 0.581044
830.519 20.1603 0.608129
810.538 20.1063 0.62175
789.745 20.3296 0.637093
799.144 20.7594 0.671884
762.594 20.4195 0.672519
740.309 20.3176 0.685704
734.335 20.789 0.709949
733.626 21.128 0.745668
731.377 21.3941 0.774916
689.718 20.8056 0.776475
672.928 20.8156 0.781287
687.353 21.7441 0.838058
648.483 21.4676 0.855412
622.064 20.6266 0.836891
628.749 21.1438 0.875607
616.025 21.6925 0.908938
608.144 21.4184 0.9195
595.425 21.9304 0.96174
592.549 21.9903 0.988799
579.979 21.7476 0.987836
559.088 21.262 0.996523
563.147 22.0527 1.04314
539.102 21.8531 1.05596
536.256 21.5923 1.06518
531.348 22.0412 1.10519
513.576 21.948 1.12755
500.354 21.7598 1.14175
500.174 22.0879 1.1748
491.37 22.0485 1.20252
480.176 21.7369 1.20027
472.227 22.1098 1.23943
455.914 21.9669 1.26602
447.778 21.789 1.26608
435.132 21.5313 1.28584
439.314 21.8291 1.3153
424.157 21.6773 1.33667
420.941 22.0229 1.37379
424.644 22.6056 1.43203
407.791 21.9502 1.4211
400.677 21.9342 1.43218
389.716 21.9152 1.45295
387.684 22.18 1.50705
370.26 21.4111 1.47054
380.549 22.2046 1.56608
381.324 22.7186 1.62271
361.471 21.6748 1.5699
359.613 22.1119 1.63175
352.969 22.3447 1.67374
352.915 22.3024 1.69107
338.148 21.6469 1.67465
338.179 22.3263 1.75539
330.245 22.2193 1.76289
325.527 22.0904 1.78033
326.379 22.1841 1.81375
304.035 21.433 1.78008
313.988 22.236 1.88491
302.948 22.0791 1.89926
307.126 22.1289 1.92997
292.766 21.5041 1.89907
300.897 22.4372 2.01064
283.495 21.7663 1.97194
272.134 21.2157 1.96481
284.453 22.2935 2.08152
282.471 22.7076 2.15365
266.027 21.4713 2.05563
265.013 21.452 2.09564
261.266 21.5878 2.11709
255.032 21.3797 2.14145
257.239 21.6489 2.21485
259.147 21.975 2.2603
250.124 21.6594 2.255
242.798 21.4633 2.27759
241.366 21.5747 2.29753
237.807 21.5604 2.33476
237.623 22.0622 2.42127
238.389 22.3292 2.47244
228.77 21.8513 2.46421
231.775 22.1638 2.52615
226.057 22.054 2.55677
214.632 21.248 2.49422
226.653 22.5816 2.68122
219.118 22.4481 2.69293
215.062 21.822 2.65293
212.328 21.9403 2.71147
208.179 21.7898 2.70505
209.651 21.7274 2.72997
202.028 21.9236 2.806
198.639 21.3437 2.75876
193.224 21.5272 2.80653
194.44 21.6499 2.87895
198.786 22.5163 3.0217
191.493 21.7404 2.95431
187.312 21.5035 2.9281
185.457 21.7338 3.00698
183.149 21.5371 3.0111
191.526 22.6137 3.20993
182.556 22.1078 3.16883
179.907 22.203 3.20639
178.298 22.004 3.20203
176.891 22.114 3.27572
173.777 21.6328 3.23182
169.306 21.5802 3.27285
173.927 22.5777 3.46682
168.251 21.7379 3.36272
167.737 21.935 3.40779
169.215 23.032 3.65166
162.724 22.2393 3.55087
161.318 22.1754 3.60641
167.866 23.0614 3.74499
160.205 22.4833 3.70955
157.636 21.9171 3.66221
156.911 22.1945 3.72206
153.567 22.2846 3.79707
153.706 22.1835 3.82037
159.381 23.7214 4.1233
151.547 22.2048 3.86954
147.603 21.8681 3.87775
146.615 22.2326 3.96794
150.216 22.9827 4.15871
148.45 23.2067 4.22418
143.063 22.1704 4.08037
142.54 22.1099 4.11073
141.101 22.4015 4.2245
138.12 22.3697 4.25554
136.36 22.0287 4.22322
136.005 22.2606 4.31322
134.399 21.7421 4.25675
130.55 21.8379 4.32542
130.158 22.0855 4.40616
129.827 22.0254 4.42837
131.228 22.6799 4.57629
125.716 21.7804 4.4778
130.249 22.8128 4.70913
126.228 22.3486 4.66769
126.451 22.5196 4.73983
123.933 22.4171 4.7854
125.796 22.7199 4.89645
125.808 23.3298 5.04461
123.439 22.6168 4.92674
120.956 22.7754 5.03918
118.758 22.508 4.99681
118.722 22.661 5.09782
119.045 22.9695 5.17949
117.062 22.2694 5.06986
118.9 23.1045 5.35526
114.545 22.3849 5.20525
116.478 23.2738 5.44243
113.55 22.7026 5.35585
113.57 23.009 5.52736
109.861 22.7649 5.47918
108.978 22.4897 5.47763
111.906 23.4178 5.74053
111.59 23.7789 5.85018
106.806 23.08 5.75282
108.738 23.3147 5.83644
106.557 22.9922 5.83793
109.19 23.5512 6.01659
105.129 22.8038 5.86584
105.715 23.3933 6.07479
101.526 22.3834 5.88167
104.882 23.3165 6.14966
103.246 23.4369 6.23698
103.153 23.5988 6.34247
101.545 23.2351 6.31676
100.989 23.6273 6.45822
100.607 23.4057 6.44965
98.7589 23.3748 6.512
97.4663 23.2484 6.471
96.7936 23.3338 6.60013
99.7818 23.9181 6.78155
95.4594 23.4059 6.7058
96.8585 23.8901 6.86447
96.9573 24.2006 7.02344
95.0476 23.5611 6.90493
94.7293 23.8258 7.04811
93.1664 23.4194 6.98581
92.3938 23.7701 7.14037
92.6862 23.8433 7.1969
90.6516 23.7098 7.24952
89.9958 23.8047 7.32041
92.9794 24.7043 7.59822
92.8439 24.7674 7.71261
88.4332 23.7614 7.46782
90.6264 24.1174 7.55526
86.741 23.7885 7.6039
86.8744 23.9486 7.68324
84.7406 23.5201 7.62897
85.3945 23.3706 7.61558
87.3016 24.5384 8.04693
83.8123 23.4247 7.72589
83.371 23.596 7.87138
82.6587 23.6283 7.90545
82.8432 24.0464 8.17821
81.4363 23.558 7.96149
81.3134 24.1437 8.27842
81.1599 24.1095 8.40943
83.0615 24.6278 8.51313
81.3949 24.4651 8.58489
78.8253 23.9674 8.4938
80.1466 24.1862 8.53718
79.8849 24.8316 8.90738
78.4557 23.8112 8.49486
76.8045 24.0278 8.7434
79.9377 24.8048 9.03278
78.3142 24.9637 9.19173
77.0906 24.7294 9.1574
75.5755 24.1717 9.04695
75.7231 24.5137 9.24476
76.0908 24.494 9.24957
76.0864 25.119 9.51822
78.9588 25.6241 9.69833
74.7453 24.5431 9.45459
73.2819 24.8995 9.62316
73.0757 24.742 9.71469
73.166 24.6689 9.6874
74.495 24.971 9.89781
71.7185 24.6217 9.85481
74.0828 25.3549 10.087
70.876 24.5444 9.86628
70.1644 24.4866 10.0072
70.4067 24.6424 10.0989
70.3543 24.8911 10.2419
69.983 24.9925 10.336
68.8817 25.3061 10.5555
68.7389 24.6704 10.3214
68.8084 24.7989 10.4315
67.7959 25.3511 10.8088
68.1781 25.2735 10.8443
69.1752 25.3773 10.8753
67.9866 25.4291 11.0309
66.9521 25.3035 11.0573
66.2023 24.939 10.9116
67.8704 25.8349 11.28
65.3095 24.8193 11.0189
66.0569 25.4618 11.2784
65.0611 25.2025 11.368
64.6858 24.8976 11.2633
64.2226 25.348 11.4774
62.4587 24.7456 11.4331
61.9219 24.4761 11.2592
63.5394 25.0335 11.6007
62.7491 25.385 11.853
63.0414 25.6807 12.0141
62.9813 25.8463 12.2096
63.3534 25.4462 12.0072
60.9117 24.7274 11.9204
61.827 25.1838 12.0163
61.7281 26.0025 12.5832
59.7046 24.6248 12.0183
60.866 25.7032 12.5007
60.4852 25.8904 12.7769
60.7112 25.8327 12.8361
59.0301 25.0393 12.4159
59.9736 25.8743 12.9704
60.2889 26.0676 13.058
58.6099 25.5543 12.8659
59.4773 26.3277 13.5011
58.5917 25.7579 13.1757
57.3052 25.7008 13.1758
58.9907 26.2328 13.5644
58.553 26.1804 13.556
58.0236 26.4986 13.9217
57.0335 25.7412 13.5536
57.6979 26.5253 14.1166
55.7352 25.5813 13.5027
56.0752 26.1252 13.9697
55.9197 25.9118 13.8785
55.6582 25.815 13.9811
54.7922 25.6449 13.9515
53.5557 25.5729 14.012
53.976 25.3344 13.9971
55.2999 26.4011 14.4591
54.9012 26.6239 14.8359
53.1511 25.789 14.3781
53.711 25.9745 14.5774
53.3576 26.0108 14.7466
52.7279 26.0113 14.7176
53.7104 26.6057 15.2918
53.281 26.5862 15.2143
51.5196 25.9758 15.0778
51.102 25.3737 14.6923
50.9016 25.7151 15.122
51.2368 25.5484 14.9332
51.9241 26.2147 15.4323
51.4852 26.4558 15.8031
51.1043 26.0201 15.447
51.0528 26.6514 15.9441
50.1444 26.1317 15.757
49.8995 25.8803 15.7217
51.2379 26.9194 16.3218
49.1259 26.1918 16.019
49.1964 25.7919 15.7191
48.4225 25.9935 16.0798
47.6005 25.6601 15.9634
48.2634 25.9907 16.3667
48.8384 26.5086 16.4349
47.1966 25.9211 16.3905
47.5553 25.7341 16.3202
47.3848 26.3241 16.7207
48.6647 26.2687 16.6616
46.2786 25.8525 16.6301
46.7109 26.2512 16.8858
46.3485 26.1867 17.2331
46.578 26.1864 17.0989
46.7577 26.4728 17.3344
46.3315 26.6134 17.5018
47.4764 27.0885 17.7104
45.275 25.9414 17.4919
45.3141 26.2953 17.5991
46.4542 27.2541 18.1581
44.0194 25.8747 17.4981
45.0337 26.7002 18.2347
44.9506 26.3975 17.9201
44.3348 26.4223 18.1482
44.8908 26.4511 18.0183
42.4829 25.8363 17.9933
43.4043 26.4622 18.6014
43.528 26.0817 18.0511
42.721 25.9011 18.2685
43.4501 26.2483 18.4373
42.2655 25.6968 18.2275
43.5507 26.8216 18.9183
41.31 25.7781 18.534
41.6362 25.8287 18.5813
41.9425 26.0978 18.9202
41.9641 26.4686 19.2028
41.7494 26.4732 19.2344
42.061 27.0388 20.1329
42.5474 26.7485 19.6082
40.9993 26.2184 19.2433
40.8645 26.2196 19.5398
40.0074 25.7286 19.0171
38.926 26.0044 19.7309
40.2778 26.4809 19.9668
39.149 25.5956 19.2831
40.8221 26.7385 20.316
40.194 26.2954 20.2732
41.5326 27.3905 20.844
39.65 26.0741 20.0393
38.5687 25.8533 19.9465
39.0109 26.0681 20.3043
39.4925 26.3471 20.5357
38.7479 26.3339 20.4737
38.6497 26.3248 20.6573
38.3811 26.5656 21.3354
39.1524 26.489 20.8292
38.4594 26.646 21.2964
38.7667 26.4222 20.9311
38.9261 27.6071 22.1809
38.0231 26.5273 21.4226
37.4707 26.2879 21.5068
37.9546 26.794 21.8173
37.4675 26.8904 22.1697
36.74 26.0124 21.2743
37.4323 26.597 21.9786
36.8237 26.8623 22.1648
36.3981 26.5996 22.2333
36.3683 26.0832 21.6654
36.8719 26.7253 22.3637
35.5929 25.7166 21.8584
36.6803 26.8693 22.7409
35.4224 25.5047 21.499
35.603 26.3444 22.6629
35.4781 26.2628 22.4745
36.0157 26.8301 23.0734
35.1171 26.678 23.0019
34.9306 26.3236 22.5817
33.7008 25.2117 22.2395
34.3927 25.9625 22.6035
34.7573 26.0171 22.7546
34.0647 26.0157 22.9861
34.9356 26.7207 23.5628
34.5101 26.563 23.6958
34.3357 26.6649 23.8254
33.9268 26.3598 23.6719
33.5708 26.5182 24.04
34.0033 26.5773 24.1038
34.6166 26.9562 24.4042
33.6079 26.0983 23.4974
33.8496 27.0911 24.7458
33.2321 26.2649 24.3683
32.9175 25.861 23.6478
33.7122 26.7994 24.9185
32.1451 26.0871 24.5418
33.0784 26.3016 24.2044
33.0183 26.6771 25.0925
33.6071 27.1141 25.4896
32.1603 26.2494 24.8942
31.3323 25.7264 24.2761
31.4138 25.8067 24.5736
31.565 26.8353 25.7625
31.7974 26.5578 25.5084
31.6297 26.6023 25.655
31.6819 26.4319 25.6546
31.4366 26.266 25.4318
31.8424 26.4685 25.6974
30.8738 25.7743 25.2472
29.9686 25.1323 24.8428
31.0039 26.0615 25.6197
31.2348 26.4517 25.8603
30.0458 25.654 25.6538
30.0441 26.1033 26.4941
33.1481 29.0443 28.5036
29.9635 26.3935 26.7442
29.7993 25.8989 25.8569
29.9482 26.0741 26.5096
30.2455 26.5962 26.8834
29.6187 25.8317 26.389
29.699 26.212 26.6187
29.2278 26.1666 26.898
29.2939 26.2845 26.9688
28.7911 26.168 27.2829
29.7825 26.4128 27.4767
29.1671 26.3075 27.6271
29.4248 26.1906 27.0497
28.775 26.255 27.3633
28.3812 26.4169 28.0648
28.7606 26.3819 27.8307
28.5407 26.4092 28.3978
28.7096 26.5339 28.3288
28.6237 26.3956 28.1328
28.0702 25.6331 27.2465
27.854 26.2975 28.659
28.3672 26.3514 28.4431
28.4977 26.7519 29.0219
27.6861 26.0364 28.5838
28.0362 26.3612 28.4571
26.303 24.9485 27.6036
28.2453 27.1767 29.8697
27.1276 25.7946 28.4614
27.944 26.6957 29.5523
28.1328 26.6505 29.5289
26.705 26.1042 29.2392
26.9999 25.8311 28.6427
26.428 25.4966 28.7768
26.7599 25.7575 28.8046
26.662 26.0043 29.4186
26.4076 25.7953 29.014
26.0661 25.8104 29.7042
26.3759 25.8021 29.5452
26.3378 25.5292 28.919
25.4149 26.3462 30.7925
25.908 26.1182 30.2399
26.0734 25.7411 29.8856
26.2838 26.4129 30.403
25.1636 25.7838 30.2071
25.8665 26.2902 30.7121
25.5037 25.6407 30.0447
25.0598 25.6062 29.9304
24.9097 25.8632 30.8919
24.8931 25.5042 30.801
25.5646 26.6213 31.4165
25.2523 26.0393 30.9891
24.6566 25.5823 30.7858
24.7342 25.729 30.6888
24.2406 24.9754 30.2313
23.9948 25.098 30.7453
25.2822 26.3093 31.8042
24.524 26.3706 32.2193
23.6013 24.8605 30.616
24.1896 25.5809 31.5252
25.34 26.5962 32.3983
24.2855 25.9574 32.0774
23.7943 25.3339 31.2234
23.4632 25.3185 31.6521
23.2063 24.7993 30.992
23.9146 26.1477 32.8431
23.7943 25.563 31.8701
23.0966 24.6255 30.5963
22.98 25.626 33.0309
23.8203 25.4747 32.1955
23.2996 26.1456 33.3322
23.2613 25.9776 33.1577
23.8123 26.2853 33.6859
22.9874 25.0792 31.9286
22.9493 25.7767 33.4705
23.1446 25.4054 33.0231
22.9758 25.4829 32.6376
22.7518 25.6589 33.3732
22.7305 25.6838 33.6058
22.7649 25.2995 32.881
22.2757 25.4155 33.3306
21.7066 24.6732 32.8012
22.5008 25.8186 34.2732
22.4105 25.3386 33.5498
22.4094 25.5971 33.8263
21.9716 25.0187 33.1472
21.7519 25.4319 34.3691
22.2965 25.3709 34.0653
22.1644 25.4062 34.1613
22.2589 25.6857 34.3718
21.203 24.7495 33.4428
21.4365 25.3765 34.2542
20.9654 24.4794 33.5795
22.1354 26.159 35.6568
21.6906 25.3871 34.4438
21.4747 25.8788 35.8143
21.4801 25.7768 36.2593
22.636 26.3897 35.5128
20.9132 25.2022 34.8072
20.9276 24.7005 34.6228
20.9306 25.2789 35.6782
21.2126 25.4477 35.707
21.1118 25.7539 36.142
21.0092 24.8224 34.773
19.8908 24.1465 34.3387
20.6722 24.8237 35.2803
20.714 25.6114 36.2329
20.4966 25.0384 35.9827
20.367 24.829 35.1387
20.4227 25.176 36.1298
20.6961 25.406 36.5098
20.1818 24.6683 35.4363
20.0563 25.0685 35.7311
19.8158 24.5435 35.4718
19.6064 24.6603 36.0924
20.2556 25.5102 36.8185
19.4291 24.4101 35.7
19.4004 24.3509 36.0314
19.5965 24.5749 35.9251
19.6245 24.6521 36.3074
19.5438 25.0091 37.1688
19.6993 24.9657 36.5894
19.0114 24.0762 36.2122
19.2212 24.5055 36.3826
19.2939 24.772 37.4677
19.1458 24.211 36.0536
19.1747 24.5554 36.6134
18.2407 23.9183 36.7559
19.4377 24.9498 36.9839
18.2685 24.0047 36.7711
18.6578 24.5436 37.7793
18.8515 24.3719 37.1076
18.6321 24.4208 37.83
19.2876 24.8651 37.5869
18.5981 24.6193 38.1074
18.554 24.3282 37.6414
19.2813 25.5657 39.336
18.7705 24.4351 38.0203
19.0302 24.9347 38.2857
18.509 24.8033 38.9863
18.9511 25.0458 38.4969
17.9144 24.0654 38.1311
18.2982 24.1729 37.8441
17.9482 24.1459 37.7812
17.6688 24.4101 39.2464
18.2627 24.2036 37.8558
17.406 23.5944 37.4315
17.4856 23.9309 38.3766
17.6107 24.2149 38.5107
17.0355 23.5352 37.5373
17.7246 24.2424 39.3457
17.6942 24.0241 38.8991
17.658 24.562 39.2921
17.2556 24.2366 39.4071
17.8178 24.5941 39.6632
17.8183 24.9474 40.5873
17.457 24.1896 39.0511
16.7385 23.3679 38.9476
17.1044 23.6539 38.598
17.2014 24.2307 39.7512
17.1191 24.2176 40.2599
17.1469 24.2613 40.2839
17.5241 23.9289 39.6337
17.1335 24.0633 39.652
16.6607 23.8719 39.9545
16.6692 23.7297 40.0079
17.0015 24.2542 40.3418
16.4329 23.6759 40.1608
16.6865 24.4733 41.6582
16.9091 24.3205 41.0079
16.5892 23.7031 39.8836
16.4611 24.0538 41.3898
16.7117 24.2043 40.8769
16.536 23.6473 40.4314
16.6033 23.9557 40.4467
16.3423 24.0373 41.1314
16.1021 23.9522 40.7329
16.1331 23.5655 40.5442
15.9887 23.5837 40.7818
16.6395 24.737 42.1048
15.8537 23.3733 40.6562
15.7081 23.1234 40.5136
16.1409 23.9742 42.1512
16.3493 23.9914 41.1047
15.4768 23.04 40.8388
16.0856 24.1402 42.8168
15.8052 23.7926 41.7493
16.2727 24.3424 42.1691
15.3201 23.2529 41.6909
15.6711 23.8385 42.3364
16.0072 24.3446 43.5012
15.5954 23.3397 41.8884
15.6075 23.5306 42.5656
16.3014 25.0215 43.5667
15.334 23.5276 42.4076
15.025 23.0519 41.635
15.2023 22.8272 41.0981
15.1749 23.6795 42.7719
15.2646 23.1071 41.9068
15.0593 22.9005 41.5824
14.8805 22.8164 41.8618
15.3337 23.8405 42.6971
15.0818 23.5352 42.9263
14.9028 23.5542 43.1253
14.459 22.6622 42.3735
15.1462 23.4954 42.9944
14.8887 23.4828 43.1237
14.3811 22.5485 42.4507
15.0969 23.5987 43.6072
14.8659 23.107 42.8174
14.4512 22.8434 42.6813
14.6242 22.9206 42.8663
14.4129 22.9957 43.668
14.4118 22.8411 42.5944
14.3523 22.5037 42.4968
14.1935 22.5039 42.0803
14.3385 23.2751 43.7397
14.2656 22.3775 42.9731
14.3084 22.8153 43.3257
14.375 23.0926 43.5135
14.1095 23.4846 45.5038
14.3405 22.8285 43.7855
14.2556 22.6154 42.3781
13.7844 22.5977 43.4879
13.6665 22.2206 43.1209
13.9989 23.2532 44.7927
13.9577 22.947 43.7381
13.774 22.6524 44.6687
13.7696 21.985 42.4659
13.7161 23.1239 45.0781
13.5448 22.2655 44.0486
13.7048 22.2266 43.3507
14.1127 23.3545 45.1078
13.6211 22.6398 44.4539
13.4505 22.8837 44.8549
13.7694 22.8649 44.7331
13.2155 22.0651 44.1498
13.5428 22.547 44.6943
13.2658 22.4216 44.4892
13.5584 22.74 45.494
13.4 22.2951 44.3044
13.3563 22.6246 45.3633
13.4809 22.4581 44.3457
12.7238 21.5475 43.6886
13.0074 22.1721 44.596
12.9712 21.8695 43.9169
12.9897 21.7842 44.2094
12.94 22.2559 44.6235
13.1671 22.8715 46.3964
12.8829 21.9918 45.1863
12.9905 21.863 45.1859
13.1083 22.1958 44.0759
12.4925 22.371 46.0176
12.8451 22.6538 46.9456
12.7587 21.8742 44.8547
12.3017 21.458 44.5217
12.4114 21.7369 45.4629
12.774 22.3422 46.2846
12.7524 22.3174 46.6572
12.862 22.3878 45.8753
12.7037 22.0149 45.4329
12.2982 21.9183 45.4946
12.409 22.0814 46.4739
12.4745 21.5565 45.8776
12.5701 21.949 45.818
12.3856 21.4979 44.8637
12.2176 21.8611 46.7104
12.4127 21.9725 45.9694
12.2407 21.5661 46.3273
12.5092 22.376 46.6715
12.126 21.8298 46.2135
11.9369 21.4403 46.0589
12.2467 21.7176 45.7167
11.7783 21.556 47.008
12.1444 21.7179 46.7736
12.1981 22.3576 47.4895
11.9548 21.4077 46.0738
11.9242 21.511 46.2047
11.6721 21.3564 46.1509
11.7444 21.516 47.2172
11.8468 21.3887 46.2199
11.9039 21.8879 47.4043
11.8266 21.778 48.0003
11.7032 21.2684 46.8893
11.6827 21.0443 46.1675
11.5097 21.3778 47.3434
11.673 21.1509 45.8172
11.7125 21.1697 45.8917
11.3864 21.4976 48.6734
12.2707 22.6432 48.4894
11.3458 20.7814 46.6086
11.9138 21.6491 47.3332
11.5 21.589 47.1938
11.0908 20.5594 46.4318
11.2739 21.1105 46.1771
11.1235 20.9098 47.4898
11.5715 21.7474 47.875
11.1077 20.9036 46.8732
11.1898 20.9817 47.0246
11.1899 21.3992 47.9425
10.762 20.5472 46.9851
11.2475 20.9709 47.8659
11.1736 21.2253 47.5836
11.0647 21.3933 47.7687
11.2285 21.1329 48.5071
10.8169 20.8722 48.0741
10.8202 20.521 47.7235
11.1944 20.6841 46.9201
10.9926 21.019 48.2815
11.0083 20.7398 47.1469
10.7541 20.6674 47.7747
11.082 20.8023 47.0913
10.6133 20.5333 47.1349
10.9324 21.1893 48.6856
10.7387 20.6861 48.1287
10.7481 20.6367 48.0372
10.9057 20.9836 48.3213
10.7462 21.0648 49.0962
10.5898 21.031 48.9949
10.4984 20.5018 48.7657
10.6655 20.4684 47.7215
10.4992 20.4689 47.9522
10.3805 20.4627 48.746
10.5943 20.6233 48.4445
10.5419 20.3322 47.5418
10.3812 20.8986 49.3373
10.5107 20.323 48.3891
10.4323 20.7642 49.1024
10.3474 20.7965 50.2077
10.5345 20.4407 48.3368
10.3431 20.4577 48.8625
10.4021 20.7476 50.2306
10.2666 19.9386 47.145
10.2617 20.7419 49.4721
10.2962 20.6599 49.8227
10.3963 20.4492 48.8641
10.2671 20.4492 48.9601
10.2817 20.3917 49.1544
10.0884 20.418 49.8842
10.4531 21.0562 49.6891
9.84627 20.4577 50.884
10.0304 20.2607 49.2467
10.0905 20.4312 49.7974
9.9047 19.7557 49.15
9.84983 20.3677 50.8031
10.288 20.183 48.5584
9.96481 20.1551 49.4523
10.1189 20.521 50.2639
10.1246 20.5158 50.8455
10.0078 20.1953 48.7456
9.54338 19.5774 48.9577
9.7445 20.0346 50.0979
9.84102 20.1641 49.0163
9.72754 20.1954 49.7197
9.76328 20.0493 50.3615
9.81095 20.3424 49.5571
9.3707 19.4725 48.7012
9.49909 19.6979 50.2082
9.76534 20.0825 49.6534
9.39292 19.8668 50.2189
9.75623 20.0452 50.0284
9.56014 19.6126 50.6346
9.85621 20.4803 50.9677
9.5309 19.9089 50.9475
9.55982 19.5784 49.8198
9.6455 20.3631 50.6652
9.67837 20.0659 50.2986
9.35869 19.6159 50.2348
9.43655 19.8101 49.9517
9.32467 20.0181 51.9032
9.64916 19.9967 49.9312
9.26265 19.3623 49.918
9.33995 19.7413 50.8063
9.2865 19.9978 52.0175
9.42488 20.4178 52.3868
9.32269 19.8212 50.7621
9.24819 19.746 51.9028
9.20266 19.473 51.0544
9.32418 19.7063 50.2184
9.07418 19.4959 51.3918
9.40755 19.7844 51.0372
9.34831 20.1581 51.8394
9.00655 19.5586 50.9778
9.22861 20.1906 53.5422
9.22831 19.7256 51.8857
9.44292 20.5714 53.6764
9.35272 19.9059 51.6101
9.04178 19.8115 52.619
9.20064 19.6317 51.6487
9.18623 19.8633 50.9781
8.97663 19.9544 52.9296
9.15197 19.7084 52.155
9.10119 19.975 52.3703
8.99838 19.5994 52.9241
9.23427 19.9384 52.2235
8.9982 19.7204 53.0624
9.13749 20.1279 52.8308
8.79643 19.1653 51.3545
8.9393 19.7522 51.5864
8.69481 19.3814 52.7057
8.89777 19.8309 52.4209
8.85491 19.5552 51.7738
8.62578 18.9138 51.669
8.78837 18.8899 51.5658
8.85775 19.1407 50.7214
8.51946 18.8703 51.4611
8.6834 18.7726 51.0281
8.62083 19.2416 52.0733
8.51418 19.2081 50.9631
8.50655 19.3843 53.2297
8.62548 19.2555 53.1719
8.83941 19.1331 51.5651
8.42152 19.1626 52.4622
8.61993 19.3308 52.2352
8.42813 19.1679 53.0392
8.52473 19.1328 52.1439
8.29807 18.3194 51.1235
8.51383 19.506 52.9596
8.56302 18.9269 52.305
8.436 18.9406 51.8753
8.22227 18.5467 51.7249
8.29984 18.6791 51.9389
8.41348 18.8952 51.2476
8.15224 18.5808 51.3387
8.47474 19.2336 52.8109
8.42018 18.8545 51.8462
8.21079 18.8714 52.8365
8.09765 18.3807 51.3408
8.082 17.6854 50.2829
7.99509 18.1293 50.8037
8.15204 18.9588 53.1999
8.08835 18.845 53.4473
8.31037 18.6036 52.3715
8.30912 19.0332 52.2562
8.09215 18.9779 53.0004
7.90996 18.164 52.9581
8.39929 18.9069 52.8325
8.1341 19.0541 53.1223
7.91895 18.424 52.7677
8.05436 18.6077 53.2762
8.08748 18.5441 53.065
8.06543 18.5362 52.6697
8.02873 18.7066 52.8905
7.9008 18.3149 52.8027
7.97487 18.6358 52.4417
7.84596 18.3907 53.0353
7.95504 18.5664 52.9586
7.90438 18.5434 52.8332
7.80768 18.0944 52.3243
7.78462 18.5404 52.466
7.81934 18.344 52.4958
7.81997 18.6575 53.7173
7.96784 18.8635 53.9653
7.71533 18.3 53.0638
7.83667 18.2055 51.8413
7.53886 17.8292 53.4217
7.94359 18.651 54.3653
7.82659 18.6429 54.1786
7.6371 18.3593 53.9232
7.8424 18.2219 52.5294
7.65236 18.0549 53.4293
7.79441 18.2478 53.8721
7.77452 18.174 53.7299
7.83211 18.5063 52.942
7.63357 18.3263 53.5761
7.60419 18.2249 53.305
7.57635 18.2139 52.5914
7.36857 18.0862 54.032
7.65023 18.4403 53.7074
7.51581 18.1338 53.7266
7.54428 17.9535 53.4568
7.47472 18.186 54.4334
7.5816 18.3448 53.6682
7.45107 17.6825 53.0184
7.48137 17.9061 52.7835
7.5754 18.4956 55.223
7.5208 18.1796 53.9389
7.55183 18.1101 53.8829
7.40477 18.1127 53.2284
7.36378 18.3441 54.9341
7.50022 18.0641 54.4097
7.55721 18.5299 55.3055
7.50682 18.0293 53.4367
7.1581 17.383 52.9609
7.4331 17.5559 52.5849
7.16988 17.6882 55.3419
7.56605 17.9457 53.0662
7.16354 17.2978 53.2795
7.40966 17.6572 51.9815
7.07422 17.6955 54.0191
7.32354 18.3766 55.1097
7.37982 17.9996 55.5079
7.17919 18.0743 55.0814
7.32141 17.7481 53.1267
6.99094 17.4192 53.7217
7.18771 17.5458 53.2541
7.01875 17.5419 53.1587
7.06523 17.8253 55.6046
7.24301 17.8361 54.5823
7.13808 17.8825 54.476
7.30079 18.0291 54.4891
7.25502 17.9164 54.8743
7.1503 17.6395 54.2178
7.03844 17.8482 54.5228
6.91693 17.0092 53.5759
7.13961 17.4269 53.9013
7.04368 17.3909 53.9255
7.01818 17.3961 53.4503
6.97456 17.1953 52.978
6.95663 17.803 56.196
7.19949 17.5646 53.9139
6.90598 17.7824 55.6029
7.02971 17.5046 54.6869
6.94021 17.1718 53.7587
6.9149 17.5627 54.5524
6.85449 17.2805 54.332
6.85915 17.3396 55.4118
6.99997 17.5948 54.6605
6.96378 17.4092 54.1523
6.9991 17.8463 56.0309
6.93027 17.5216 55.7902
7.02299 17.7462 54.5759
6.83875 17.2038 53.2544
6.72897 17.3004 54.7542
6.84083 17.2335 54.3735
6.73771 17.2877 55.8409
7.00337 17.1098 54.4836
6.88048 17.7627 55.7873
6.82036 17.0891 54.7662
6.83339 17.4243 54.5297
6.72851 17.2982 54.9883
6.80466 17.3872 54.991
6.86719 17.294 54.7274
6.7833 17.099 53.8392
6.59987 16.9791 53.8944
6.54068 16.6784 54.5384
6.78049 17.2911 55.4713
6.70325 16.9808 54.7325
6.62445 17.0028 54.3557
6.62907 17.252 55.8409
6.67969 16.8634 54.5413
6.65627 17.0405 54.4713
6.56394 16.5194 53.3851
6.58638 16.8741 54.2683
6.58543 17.4182 55.6755
6.57693 16.981 54.7024
6.46932 17.2652 56.8095
6.68214 17.3754 54.8032
6.52636 17.0687 55.2224
6.57072 16.79 54.446
6.49484 16.971 56.5947
6.63845 17.2438 55.3725
6.55736 17.3818 56.0394
6.46118 16.4118 54.9559
6.6024 16.7759 53.978
6.49131 16.8524 53.8339
6.39382 17.4222 57.2452
6.40141 16.4875 54.6564
6.5281 16.6759 53.4542
6.24418 16.8537 55.9432
6.45135 16.5543 53.7796
6.25863 16.7594 55.6381
6.4852 16.8998 55.6073
6.39336 16.5888 55.2697
6.47053 16.9036 55.2966
6.3456 16.9096 55.1246
6.33807 17.1123 57.8714
6.58275 16.9248 54.0614
6.23313 16.9123 56.1907
6.41668 16.6254 55.3791
6.28327 16.3601 54.3899
6.27318 16.5548 54.9841
6.42717 17.01 55.4362
6.16641 16.0832 53.8252
6.14415 16.2078 54.4266
6.18666 16.0553 54.5726
6.324 16.9842 58.1128
6.51241 17.1507 55.8166
6.32882 16.8602 56.3628
6.36984 16.9943 55.9232
6.28665 17.0422 56.6963
6.2549 16.2464 54.0622
6.05673 16.4585 56.0127
6.22036 16.093 54.4909
6.25279 16.7662 55.1293
6.16816 16.3176 54.5674
6.01306 16.3776 55.4885
6.14508 16.459 54.4962
6.0989 16.6638 57.1643
6.27546 16.8235 56.7786
6.21105 16.5065 55.4285
6.20782 16.6261 56.5008
6.1734 16.4619 54.8787
6.02258 16.6975 57.3083
6.17315 16.6193 56.7765
6.21397 16.2167 55.0568
6.03519 16.2065 55.0329
5.99487 16.1095 55.636
6.03879 16.3977 55.4022
6.02294 16.1151 55.2588
5.92721 16.0958 56.3742
6.15348 16.7175 56.3545
5.9478 16.0597 55.5261
6.01551 16.5173 53.8085
5.80197 15.4566 54.087
5.97221 16.5679 56.0299
6.077 16.7531 55.7886
5.80657 16.2014 56.3776
6.11845 16.042 54.974
5.74872 16.0272 56.1296
6.04413 16.5038 56.3531
6.02174 16.2569 55.6227
5.82819 16.1142 55.5343
5.81728 15.8284 55.9512
5.95784 16.5956 56.7938
5.98166 16.5085 56.841
5.95548 16.5488 57.3514
6.00052 16.3484 54.8926
5.86699 16.5132 57.4754
5.85695 15.6423 56.5507
6.05192 16.3369 55.4117
5.78666 15.6019 54.2858
5.79701 16.247 57.0621
5.89819 16.2243 56.5442
5.87562 16.0915 55.834
5.80807 16.1025 55.3258
5.71807 15.8172 55.5125
5.84578 16.4279 57.1181
5.89981 16.4772 57.5262
5.83921 16.0767 56.7103
5.83486 16.0506 54.9153
5.74475 15.5761 54.2936
5.62807 15.6622 55.0765
5.76321 15.8152 55.6117
5.78321 15.9529 56.0941
5.78306 16.0358 55.557
5.55009 15.7709 56.4609
5.83831 15.9367 55.4891
5.73228 15.8654 56.3019
5.80357 16.1123 55.771
5.75144 15.883 56.4852
5.81406 16.0806 56.1748
5.66896 15.8087 55.4962
5.66898 15.4864 54.4767
5.5559 15.866 57.0666
5.79108 15.8287 55.7122
5.62116 16.1625 57.0729
5.71996 15.8684 57.241
5.77857 15.8458 55.7328
5.6277 16.0443 57.2498
5.77705 15.8582 56.2705
5.72613 15.9178 55.5621
5.57038 15.6414 55.2714
5.51951 15.3501 55.9193
5.69681 16.0077 56.6732
5.67151 15.552 56.1084
5.61776 15.7866 56.655
5.65946 16.2204 58.1079
5.7653 16.1514 58.0762
5.64932 15.7327 57.37
5.68359 16.2223 56.9792
5.69693 16.074 56.8666
5.62632 15.7326 57.3118
5.70515 15.8074 56.982
5.59019 15.7196 56.5313
5.62333 16.3621 57.8118
5.57379 15.8029 58.361
5.83631 15.8066 54.8132
5.50719 16.0183 58.3174
5.58752 15.743 57.5043
5.69701 16.7252 59.2403
5.72182 16.73 62.1401
5.8513 16.8706 61.285
5.88023 16.5769 60.4742
5.88098 16.422 58.8273
5.74337 16.0845 57.6875
5.60834 16.5531 59.9035
5.63824 15.7391 56.6898
5.47722 16.0507 57.4493
5.62255 16.1368 59.1175
5.68187 16.1034 58.4148
5.51022 15.8954 59.2892
5.81835 15.4525 54.343
5.3706 15.7416 57.2274
5.44512 15.4379 55.7404
5.38016 15.5299 57.8718
5.56457 15.7966 57.4997
5.43859 15.6343 57.0189
5.36215 15.1724 55.6352
5.46282 15.9265 58.8766
5.46907 16.0664 58.6834
5.55182 15.6174 56.3329
5.35869 15.6333 57.3937
5.50925 15.7284 58.3741
5.51596 16.2636 59.1227
5.53584 15.7761 58.5563
5.58102 15.8747 57.6091
5.49877 16.0242 57.879
5.37205 15.7831 58.6116
5.40055 15.5266 57.5721
5.42828 15.7315 57.369
5.37708 15.6713 56.5172
5.32967 15.4702 56.9665
5.20024 15.2332 56.5685
5.3132 14.9476 56.2409
5.29625 15.5068 55.7133
5.2437 15.7489 56.3327
5.21723 15.2028 56.6207
5.29109 14.9631 56.643
5.21045 15.0132 56.2689
5.31056 15.3446 57.569
5.36563 15.5277 58.7102
5.45062 15.595 56.4302
5.2535 15.6419 58.2721
5.32758 15.5164 56.4384
5.25927 15.8195 60.0209
5.48632 15.4608 56.927
5.29673 15.2752 55.3556
5.1372 14.6791 55.9266
5.22896 15.3825 57.3842
5.25107 15.7215 57.8065
5.2692 15.468 58.3659
5.33767 15.3319 56.7567
5.22079 15.2133 56.472
5.25014 15.1139 57.9349
5.39454 15.4479 55.2357
5.1312 14.8206 55.8866
5.1205 14.7733 55.5579
5.15536 14.8165 57.079
5.19273 15.2481 56.9212
5.21427 15.314 57.8064
5.18355 15.2263 56.7342
5.12139 15.0936 56.6443
5.20373 15.3001 56.4312
5.16215 14.9057 56.6246
5.06254 15.1027 55.8124
5.05646 15.1644 56.4366
5.09178 15.0253 56.7496
5.15596 15.0565 56.5096
5.11202 15.09 57.1856
5.16762 15.2212 58.5603
5.33718 15.3755 56.6895
5.06045 14.979 57.5052
5.23013 15.0277 57.6508
5.24991 15.3622 57.491
5.2035 15.2801 57.1088
5.07787 14.8153 56.1024
5.13033 15.1066 56.7117
5.0708 14.9665 58.0731
5.18786 15.5178 56.836
4.99252 15.1773 57.796
5.0854 14.7218 56.4214
5.0957 14.9114 56.5983
5.13166 15.4611 57.7741
5.15684 14.9494 57.424
5.1119 15.1142 55.5008
4.91886 14.3847 55.5223
5.06373 14.559 55.8644
4.98603 15.0705 58.9067
5.15422 14.8073 56.4882
5.04903 15.1599 56.5448
5.0649 15.0476 57.5554
4.98446 14.5395 56.2869
4.93535 15.2409 57.7394
5.07007 14.9236 57.3847
5.03025 14.8059 56.8048
5.03302 15.3323 57.2098
4.99479 14.7725 57.5772
5.09239 15.172 59.7361
5.26181 15.5705 58.0468
5.0468 14.7463 56.474
4.97121 14.9717 57.2748
5.01796 14.8009 57.038
4.9529 15.0935 56.251
4.86903 14.6113 55.7668
4.95216 14.3661 56.1825
5.0047 14.9213 55.379
4.80306 14.2018 54.8042
4.84554 14.7492 56.2327
4.93876 14.6892 58.0567
5.0336 15.0261 57.5296
4.93961 14.9424 57.1126
4.9451 15.0527 57.8825
4.951 14.8191 56.8459
4.97554 15.3883 56.8964
4.91183 14.3491 55.798
4.86263 14.7189 57.4707
5.05244 14.929 56.9361
4.84942 14.7092 57.4346
4.94456 14.7014 57.4475
5.02136 14.8721 57.2401
4.96555 14.8331 57.0061
4.9474 15.247 57.8001
4.94476 14.686 56.9766
4.91111 14.8142 56.961
4.88895 14.4969 56.5849
4.96495 14.764 56.8444
5.00093 14.6623 55.2374
4.79476 14.1415 56.7607
4.90435 14.3763 55.9504
4.8434 14.6208 56.8046
4.83289 14.8503 56.1923
4.92744 14.8262 57.4173
4.89793 14.5644 58.072
4.9126 14.5654 56.9681
4.90044 14.7389 56.771
4.8402 14.6125 57.3578
4.91508 14.747 56.2676
4.83093 14.693 58.0366
5.01658 15.0188 55.911
4.81533 14.4411 56.3281
4.86871 14.5575 57.9157
4.9288 14.8595 56.7196
4.85077 14.554 56.5831
4.83785 14.0309 55.5487
4.76488 14.4544 55.7408
4.8269 14.7103 58.0837
4.99462 14.8036 54.4365
4.58536 14.2626 55.8493
4.71273 14.3167 58.2854
4.89238 14.5925 56.2029
4.7591 14.481 56.8867
4.73021 14.6598 56.0338
4.70222 14.0906 56.0153
4.78012 14.375 55.4911
4.66323 14.7013 58.5782
4.96742 14.59 56.6623
4.81508 14.4768 58.0302
4.95868 14.895 57.6006
4.80741 14.4736 57.4066
4.86507 14.5281 57.5271
4.91814 14.9427 56.8711
4.77582 14.3985 57.7124
4.87297 14.6939 57.1913
4.72656 14.8447 57.6716
4.83365 14.6207 57.5738
4.90944 14.7266 57.3395
4.83769 14.6157 57.6636
4.83732 14.7435 57.6431
4.79762 14.4694 55.8764
4.70057 14.8246 58.0231
4.82527 14.7236 57.7933
4.77716 14.703 57.9995
4.86333 14.5062 57.4856
4.88575 14.9177 57.3265
4.7443 14.3197 57.7917
4.86029 14.6076 57.8966
4.86134 14.6313 56.2639
4.63106 14.4428 57.4951
4.76702 14.372 56.9785
4.77736 14.3597 56.0685
4.71298 14.2203 58.05
4.96262 15.0102 56.6403
4.70186 14.326 58.1923
4.83462 14.816 58.3978
4.90643 14.9416 58.4724
4.83858 14.7595 58.0018
4.80833 14.7999 57.2272
4.74422 14.179 57.1482
4.78447 14.8539 57.0565
4.70596 14.104 57.5732
4.7803 14.3517 56.6731
4.70198 14.5208 58.0419
4.92166 14.5907 56.8773
4.78749 14.7812 60.0786
4.88569 15.0462 58.4007
4.77872 14.7237 56.38
4.67271 14.4951 57.8674
4.68211 14.5282 57.4047
4.86707 14.4369 57.6151
4.77106 14.3654 56.4424
4.63503 14.5311 56.3857
4.61015 13.862 56.5946
4.7316 14.2004 54.5332
4.61059 14.5717 57.2578
4.76814 14.1095 56.2501
4.68923 14.3253 57.8933
4.76525 14.256 56.934
4.7424 14.819 57.9161
4.79521 14.3273 57.0772
4.687 14.4918 56.67
4.6117 14.2323 57.0744
4.66041 14.3286 56.8247
4.70557 14.5228 57.7685
4.70886 14.401 57.1591
4.63951 14.5035 58.1164
4.73084 14.3455 57.3577
4.76043 14.4073 57.5195
4.78342 14.2622 56.4809
4.63938 14.408 58.2767
4.81711 15.0373 59.5445
4.84036 14.5595 55.2616
4.55809 14.3153 59.3473
4.78555 15.1991 60.5339
4.88912 14.8564 56.4972
4.63637 14.3088 57.6821
4.62479 14.354 57.6785
4.72801 14.6273 57.8377
4.75146 14.2989 57.0662
4.57795 14.5422 56.578
4.64846 14.4643 58.315
4.79809 14.3754 56.5652
4.71567 14.3986 57.2926
4.73703 14.4823 57.1716
4.6663 14.299 57.6737
4.63463 14.5435 57.5977
4.74634 14.5181 58.2127
4.74147 14.4106 57.9463
4.74178 14.5829 57.8512
4.72 14.2811 56.856
4.67134 14.3168 57.0515
4.65855 14.8029 57.9872
4.6593 14.3013 57.466
4.69941 14.7759 59.552
4.78404 15.0394 58.3074
4.65552 14.2095 58.0723
4.66266 14.5728 58.325
4.72943 14.5381 57.3417
4.76701 14.4409 57.405
4.67074 14.4779 56.5172
4.63273 14.2184 57.2934
4.64391 14.0892 56.1491
4.56738 14.5594 57.8039
4.65623 14.6266 57.5403
4.76505 14.1385 57.0657
4.66266 13.9998 57.1304
4.63454 14.2894 56.5465
4.66263 14.3509 57.1027
4.672 14.1145 56.0789
4.5992 14.378 57.7771
4.64564 14.3045 57.4383
4.64798 14.3156 56.8954
4.68091 14.1991 56.6585
4.59756 14.2749 57.4012
4.64467 14.3302 57.6952
4.65405 14.5991 58.9122
4.79064 14.6235 57.7779
4.74595 14.4925 57.4988
4.73479 14.1942 57.8815
4.71064 14.3966 57.4865
4.65678 14.6116 57.3616
4.64094 14.2241 57.448
4.67824 14.6442 58.2048
4.80756 14.4179 58.6569
4.70067 14.3793 56.9702
4.56816 14.3477 57.6848
4.68919 14.3952 57.1377
4.64513 14.3279 57.0556
4.65742 14.3478 57.3766
4.68651 14.5255 57.8681
4.72061 14.8107 58.0827
4.67795 14.3745 57.7945
4.58969 14.63 58.1654
4.81951 14.7671 58.8446
4.70229 14.5104 59.5722
4.80189 14.9306 58.6338
4.7206 14.772 59.2112
4.7353 14.7279 59.6028
4.84097 15.1248 61.7353
4.90018 15.914 61.4682
4.88561 14.9916 60.8302
4.97063 0 0