# pn-170911/RbIIR-48-RbIIA-1280-1959.psd
# Power spectrum* (dif=0,1,2) (really just |FT|^2)
# NOTE: only the first half! (symmetric)
# weeks: 1280-1959
# 2837 clock-days, 47 excluded
# PSD: 1441
8764.77 0.262557 0.0328
628466 13.0168 0.027696
1.97571e+06 37.3222 0.0284611
374469 11.9489 0.0301479
224179 12.5968 0.0297252
115030 8.26532 0.0290977
75600.7 8.46287 0.0305808
51490.2 7.50342 0.0313302
40747.4 7.53223 0.0299514
30706.2 7.22352 0.0302426
25587.8 7.18388 0.0319536
20805.3 6.90376 0.0324748
17326.1 7.01151 0.0337078
14447.7 6.8939 0.0343792
12654.1 6.98406 0.0345088
10603.5 6.51508 0.0351292
9885 6.98591 0.0369923
8436.01 6.77315 0.0362852
7531.15 6.63439 0.0394092
6454.3 6.44477 0.0380404
6088.53 6.7877 0.041569
5643.71 6.80843 0.0415493
5106.23 6.95559 0.0446859
4560.67 6.76569 0.0430672
4326.82 6.74322 0.0459465
3909.31 6.7777 0.0480499
3538.3 6.42291 0.0491449
3302.12 6.65556 0.0503202
3196.05 6.92554 0.0542428
2950.16 7.00245 0.0556097
2812.7 6.99052 0.0588052
2652.68 6.97858 0.0605292
2431.46 7.03458 0.0623899
2293.41 7.13444 0.065355
2173.59 6.80961 0.0670227
2063.33 7.06609 0.0716898
1975.31 7.32894 0.0756372
1882.55 7.38517 0.0768378
1758.32 7.2923 0.0774424
1674.21 7.29817 0.08236
1619.18 7.37872 0.0864023
1521.1 7.3758 0.0868021
1458.94 7.5466 0.0940196
1464.09 7.80926 0.0991117
1363.97 7.63173 0.0992867
1320.32 7.74768 0.101601
1260.93 7.91075 0.109725
1257.13 8.15826 0.115411
1211.55 8.27087 0.120932
1168.42 8.42276 0.125193
1097.13 8.20166 0.129103
1074.38 8.36543 0.133117
1028.45 8.58918 0.136349
1025.79 8.80393 0.148656
998.246 8.78339 0.151786
957.452 9.09859 0.160082
947.705 9.21558 0.165393
920.327 9.12075 0.168357
863.856 9.11308 0.176811
845.712 9.15279 0.178387
877.549 9.92999 0.195845
812.187 9.59095 0.197531
791.716 9.74058 0.20853
780.583 9.80933 0.216876
763.024 9.7613 0.220367
740.396 9.98596 0.22932
713.944 9.99853 0.235162
704.891 10.1671 0.245514
662.061 9.99263 0.251596
687.956 10.7897 0.275899
657.197 10.1151 0.266249
643.435 10.5102 0.282536
623.478 10.6555 0.294863
599.852 10.4289 0.295386
615.893 11.0103 0.318399
601.443 10.9803 0.321291
581.387 11.0005 0.332012
571.842 11.0913 0.339542
550.898 11.1836 0.355978
534.236 10.8614 0.349368
539.871 11.4666 0.378126
527.686 11.3783 0.383592
534.878 12.2092 0.424007
511.263 11.7666 0.416096
497.611 11.9829 0.428616
484.292 11.8618 0.436951
469.658 11.7736 0.445246
466.978 11.9029 0.45375
458.77 12.0692 0.472668
444.754 12.0439 0.479108
454.875 12.7344 0.516012
447.362 12.6587 0.519241
426.549 12.6642 0.534154
438.78 12.8683 0.55878
417.951 12.5794 0.555149
415.817 12.9561 0.58555
462.635 15.0611 0.68745
409.74 13.4231 0.626496
377.265 12.5701 0.599741
386.907 13.3566 0.64621
382.985 13.185 0.654489
384.575 13.4838 0.678898
378.301 13.8091 0.706823
368.8 13.5254 0.703801
363.952 13.6804 0.730272
365.144 14.1957 0.765111
351.745 13.8101 0.765774
334.335 13.5972 0.768938
335.812 13.9548 0.797482
344.202 14.2785 0.834757
334.773 14.4232 0.861984
329.316 14.0327 0.848865
317.117 14.1677 0.86912
317.143 14.5657 0.906378
326.664 15.3507 0.977863
307.358 14.6444 0.950764
305.828 14.6299 0.950865
299.937 14.7512 0.982541
299.603 14.5513 0.982984
296.581 15.0178 1.04277
298.197 15.2789 1.05932
290.849 15.4679 1.0979
278.599 14.7136 1.06105
282.743 15.4084 1.12587
293.655 16.3608 1.22315
280.152 15.6738 1.19585
274.261 15.5666 1.19703
267.298 15.1544 1.17484
255.656 14.9678 1.1899
269.585 15.7473 1.2537
257.53 15.4212 1.26469
257.291 16.1417 1.34879
249.313 16.0922 1.35195
248.548 15.6893 1.33262
249.041 15.932 1.3764
243.235 16.1185 1.42608
245.252 16.4822 1.46766
235.608 15.7982 1.42669
240.066 16.6368 1.52069
231.05 16.2037 1.50877
239.965 17.1217 1.62158
233.689 16.9177 1.62433
223.466 16.5338 1.597
227.906 17.0618 1.68122
224.581 17.2683 1.71748
219.332 17.0584 1.72713
215.731 16.8219 1.72491
216.112 17.1041 1.75989
216.714 17.4725 1.83334
218.946 17.7995 1.89515
220.881 18.3188 1.95621
210.17 17.3165 1.86613
205.868 17.4321 1.92421
213.136 18.7809 2.10432
205.402 18.1063 2.04893
210.593 18.658 2.13705
198.414 17.9629 2.09159
198.369 18.0922 2.11287
201.962 18.5584 2.20276
189.715 17.8492 2.14736
195.179 18.3643 2.23784
191.896 18.5168 2.30534
187.623 18.2697 2.28494
195.682 19.2007 2.43172
188.407 18.727 2.38098
181.859 18.3115 2.37409
181.279 18.8316 2.46173
186.184 19.6792 2.60335
173.164 18.1896 2.45071
178.843 18.8421 2.53878
174.45 18.7952 2.5856
180.184 19.5682 2.71967
171.719 19.4436 2.73019
168.555 18.9897 2.69666
170.493 19.242 2.76914
172.729 19.7408 2.85691
166.947 19.5611 2.85361
165.81 19.4155 2.88533
169.185 20.012 3.01094
163.743 19.9228 3.00923
162.457 19.8267 3.04596
157.041 19.4594 3.00476
160.507 19.4463 3.05948
157.237 19.5761 3.13689
160.833 19.9866 3.18581
156.12 20.4008 3.31977
159.901 20.747 3.36356
154.609 20.4488 3.35634
156.243 20.9107 3.50577
155.2 20.4924 3.42481
152.47 20.6174 3.51892
149.518 20.5425 3.55181
172.889 25.1598 4.35893
144.109 20.1479 3.52309
149.406 22.0091 3.91559
142.609 20.832 3.75277
143.059 20.536 3.69988
147.205 21.8625 4.00997
142.432 20.9459 3.88567
142.241 21.0866 3.91366
131.509 19.9671 3.79855
140.631 21.3071 4.03648
137.524 21.1492 4.03424
133.111 20.9169 4.07462
139.742 22.523 4.38613
135.855 21.6942 4.30082
137.504 22.0685 4.36259
134.074 21.8023 4.39821
132.346 21.3565 4.32637
132.141 22.1518 4.56344
133.111 22.119 4.59079
129.197 22.2567 4.65044
123.705 20.7033 4.361
121.385 21.0413 4.53005
125.885 22.1864 4.78669
128.017 22.5057 4.88022
129.187 22.9721 5.01357
123.913 22.7858 5.0295
121.071 21.8591 4.89209
120.538 22.1493 4.9743
122.765 22.342 5.09238
118.549 22.0462 5.05217
122.775 23.2069 5.36227
121.033 22.6742 5.26803
116.219 22.5702 5.30232
118.021 22.8986 5.42907
119.577 23.4454 5.60083
115.384 23.5169 5.7058
122.119 24.0578 5.8809
118.225 23.4994 5.76687
112.513 22.7539 5.57404
111.878 22.9186 5.71485
113.389 23.1421 5.80033
114.168 23.7747 6.05318
114.843 23.7684 6.02753
112.329 23.6559 6.11286
108.594 23.6366 6.15966
107.697 23.0443 6.04069
110.625 23.7373 6.27874
107.155 23.662 6.31654
109.289 24.0313 6.43928
106.125 23.4688 6.36721
106.815 24.2083 6.62875
106.663 23.983 6.62658
102.397 23.564 6.5085
105.849 24.3733 6.81456
103.405 24.0822 6.79797
105.001 24.8713 7.10337
102.95 24.3188 7.00218
101.275 23.6344 6.79948
103.09 24.9253 7.2238
101.394 24.6918 7.25939
98.9837 24.5037 7.22327
103.313 25.396 7.63092
99.7277 24.8739 7.40727
97.186 24.476 7.44745
96.6718 23.9823 7.27416
98.3487 25.515 7.86409
95.428 25.0672 7.74045
96.589 24.9368 7.75096
96.1933 25.2305 7.96625
97.8675 25.2135 7.85304
93.3071 24.8078 7.9289
92.2552 24.8898 8.01868
91.4476 24.8514 8.04107
96.8024 26.0981 8.46812
92.3235 25.1945 8.22619
91.9096 25.1501 8.35144
89.3162 24.551 8.1682
87.1817 24.4616 8.17301
90.5383 25.3758 8.63144
91.3245 25.2596 8.46952
88.089 25.1147 8.64847
88.9731 25.0016 8.65592
88.5992 25.8422 9.03498
87.1159 25.1292 8.79344
91.8268 27.1648 9.53548
86.7943 25.5649 9.13435
86.1428 25.3139 8.99706
84.7021 25.5222 9.05469
80.4845 24.7902 9.11052
84.9928 25.8811 9.4145
83.8811 25.6057 9.39711
83.3436 25.4497 9.41638
85.8633 26.6851 9.94252
82.4586 25.8751 9.71265
83.1032 26.3161 10.0772
79.9771 25.592 9.8827
105.647 34.4517 12.7076
82.2195 26.826 10.3926
76.6643 25.3791 9.90968
79.9405 26.3123 10.3072
78.1418 26.0863 10.3022
81.3634 26.8919 10.5654
80.3514 27.294 10.9444
79.7864 26.621 10.6563
78.3459 26.4231 10.62
74.5533 25.4856 10.3983
76.1537 26.0846 10.5907
75.0393 26.007 10.8193
76.8612 26.2794 10.8186
75.329 26.4854 11.0728
75.341 26.71 11.195
74.5841 26.8794 11.3577
75.2307 27.0664 11.398
74.0232 26.4472 11.3703
75.6539 27.6335 11.7866
74.1995 26.7135 11.5116
71.7213 26.5904 11.6005
71.7135 26.4883 11.6654
72.7114 26.7883 11.8384
73.0736 27.2991 12.1674
70.1266 26.2975 11.7085
71.4121 27.2943 12.1858
71.3983 27.4396 12.3784
71.6104 27.4913 12.5208
70.7738 27.323 12.5132
70.7487 27.6784 12.5634
66.1587 25.6022 12.0068
67.1544 26.1746 12.2448
67.2801 26.3065 12.3487
67.8729 26.9505 12.6317
65.608 26.0544 12.3573
66.5507 27.0515 13.0312
66.7345 26.8676 12.7983
67.7184 28.0036 13.6005
67.6825 27.4409 13.394
65.9517 26.4342 12.849
64.8978 27.0664 13.4156
65.78 27.3861 13.4588
63.7952 26.9112 13.4607
65.3039 27.5378 13.6835
67.0477 28.6129 14.4535
63.9118 27.2222 13.8316
63.9427 27.0586 13.7618
65.8252 28.4446 14.4987
61.7066 26.331 13.5311
64.392 28.4162 14.7318
61.9413 27.2176 14.2339
62.491 27.9851 14.6579
62.9769 27.8359 14.5183
63.1225 27.9533 14.7375
62.4745 28.3444 14.9335
59.7582 27.4443 14.812
60.6806 27.7617 14.9612
61.1649 27.6727 14.9124
61.5196 28.0299 15.2333
61.1616 28.4402 15.6275
61.3118 28.4962 15.7254
59.3635 28.0106 15.4852
62.0906 28.925 15.9337
58.4083 27.5656 15.5381
58.8157 28.1757 15.8748
57.1734 27.0558 15.1763
57.6794 27.253 15.4544
58.9776 28.1374 15.9804
57.8454 28.1892 16.1987
58.672 29.192 16.8742
56.847 28.0473 16.1488
54.945 27.3422 16.0531
57.2665 28.6328 16.7923
57.8834 28.7146 16.8723
56.2666 28.5541 16.9156
56.6202 28.1228 16.7273
57.1881 29.1248 17.283
56.1807 28.8862 17.3587
52.9488 26.7937 16.3242
55.1262 28.5422 17.3741
53.5196 27.869 16.9035
54.7484 28.6811 17.623
54.1996 28.0187 17.3178
54.2562 28.7917 18.0284
51.3969 26.8048 16.813
52.3272 28.0566 17.5796
52.7641 28.783 18.1587
52.1117 27.6732 17.5026
54.6433 29.5933 18.8279
52.4556 28.7128 18.4366
50.7936 27.5165 17.604
51.2711 28.535 18.5063
50.4654 27.9533 18.2762
49.5392 27.0966 17.6971
50.9313 28.3584 18.7531
51.5772 29.1202 19.6341
63.8436 37.8169 24.0365
50.4254 28.5911 18.9704
50.1263 29.1132 19.5273
50.0875 28.6947 19.3578
49.7671 28.7102 19.3919
49.6026 28.1413 19.1351
49.7438 29.0564 19.9698
49.4381 28.55 19.5982
48.9925 28.2673 19.2307
48.276 29.0011 20.1899
46.8088 27.0855 18.9242
48.5716 29.2013 20.3948
48.0493 28.382 19.9197
47.0827 28.1404 19.9377
47.1442 27.9053 19.7399
48.185 28.6361 20.2637
47.9404 29.889 21.4522
46.0202 27.8836 20.0001
45.2295 27.4226 19.7916
46.5043 28.3146 20.6399
46.9376 29.226 21.1222
46.5986 29.7731 21.8378
46.051 28.6673 21.0408
45.2555 28.3638 20.9358
47.0669 29.4101 21.6862
45.3504 29.0121 21.7096
44.9021 28.2443 21.213
45.7586 29.0814 21.8718
45.2442 28.9313 21.6535
44.6395 28.7106 21.9809
43.5811 28.2541 21.6753
44.3859 29.3639 22.4645
44.4096 28.9469 22.3631
43.5011 28.5917 21.9915
41.8934 27.7423 21.5568
41.6702 27.5936 21.7138
44.2428 29.4099 22.9479
44.2435 28.8989 22.4794
44.5239 30.1895 23.771
43.2743 28.6762 22.8503
43.0038 30.064 24.0174
42.066 28.8393 23.4954
42.7218 29.0665 23.0347
42.0552 28.9446 23.3587
42.3588 28.545 23.0465
42.3632 29.6058 24.106
41.2492 28.6881 23.6656
41.7336 28.3425 23.1637
41.7164 29.2251 24.351
40.9495 28.2335 22.9948
41.2372 29.4846 24.536
41.0057 29.153 24.3268
39.8334 27.8672 23.4718
40.456 28.9688 24.279
41.2307 29.2815 24.7107
39.5773 28.3499 24.2871
40.4409 28.887 24.6305
39.3197 28.6379 24.5403
39.0381 28.5605 24.7718
39.0927 28.4324 24.4623
39.0558 29.0165 25.0883
37.8209 27.7496 24.1864
39.4394 29.7512 25.9834
39.8287 29.5142 26.1254
38.1181 28.4275 24.9651
37.1552 28.2041 25.4161
37.6895 27.8767 24.6282
37.5467 28.6146 25.8405
38.6158 30.3695 27.4874
38.2567 29.4098 27.2799
41.5382 33.1848 31.2676
38.0396 31.6092 37.3095
120.17 96.5086 73.0444
36.667 29.4071 28.7334
42.223 33.7312 30.9372
36.6258 28.9312 27.1174
37.9501 30.0442 27.635
37.1586 29.5149 27.494
35.8232 27.7761 26.0372
36.0086 28.5745 26.9284
36.0051 28.2742 26.6541
34.7018 27.2918 25.7165
36.5154 29.676 28.2645
35.9466 28.8578 27.4875
35.3247 28.3639 27.2402
35.1836 28.9775 27.4445
34.7401 28.4485 27.7436
35.2314 28.585 27.4204
34.5452 28.1216 27.3377
35.2972 28.8529 28.028
33.3815 27.9598 27.6794
34.4511 28.222 27.6199
34.2145 28.328 27.9932
33.7291 27.894 27.5081
33.8341 28.7727 29.0986
34.736 29.3383 30.7233
47.0542 40.2729 37.3885
32.8046 28.0067 28.6793
32.5772 28.1169 28.9075
33.7997 28.8121 28.8203
32.7665 28.0039 28.4054
33.5544 28.7366 29.238
32.3832 28.4764 29.5185
33.6092 28.8896 29.224
32.8236 28.5159 29.351
33.1147 28.7944 29.8066
32.488 28.8255 30.0322
30.9596 27.0538 28.2703
32.3341 29.428 30.7901
32.5868 28.8052 30.4582
32.6781 29.0248 30.4477
31.1194 27.6091 29.2155
32.0147 28.568 29.895
30.2404 27.3586 29.4394
30.6031 27.7391 29.7934
30.7265 27.5332 29.525
31.138 28.552 30.9472
30.4969 28.0255 30.3826
31.2942 27.9895 29.9819
30.3427 28.215 31.2396
31.1036 28.7073 31.0418
30.0466 27.5992 30.2011
29.6772 28.0385 30.9485
30.3855 28.2583 31.0733
29.6515 28.0654 31.2119
29.9472 28.299 31.549
29.3514 27.8105 31.4057
29.9226 28.17 31.2365
28.6105 27.3151 31.3003
30.4918 28.4413 31.3109
29.5313 28.2614 32.1364
28.8519 27.2663 30.9377
28.6955 27.3684 31.2512
28.7069 28.5491 32.7833
29.5336 27.7653 31.6223
28.587 28.0557 32.1842
28.6658 28.055 32.7617
28.9688 28.0935 32.4658
29.1469 28.3639 32.5916
28.0903 27.4846 32.1388
29.0072 28.2988 33.0652
28.9455 28.8155 34.0197
28.4937 28.552 33.9025
27.9499 28.0675 33.2281
28.8172 28.9651 34.2568
28.2557 28.0869 33.2506
27.9377 27.3551 32.6029
27.348 27.923 33.8176
27.6546 28.3492 33.9804
27.6431 28.2737 34.3025
27.7183 28.1176 34.0421
28.2568 28.3663 33.9519
26.2821 27.3575 33.8274
27.3216 28.0653 33.4111
26.3839 28.0805 34.9647
25.871 27.3443 34.2588
27.282 28.1126 34.7705
27.142 28.2492 34.6225
26.5526 27.9284 34.9311
26.7167 28.722 35.7839
26.8874 28.4525 35.6128
26.461 27.6608 33.9435
25.5626 27.6188 35.0332
26.3481 28.0061 35.4031
25.4979 27.3996 34.5396
25.8776 28.2283 35.7094
25.4836 26.9101 34.5254
26.0226 28.1096 35.5376
25.3186 27.7773 36.2279
26.0075 27.6503 35.0109
25.2238 27.8315 36.4181
25.1704 27.6847 36.2519
25.5371 28.08 37.1041
24.4618 26.6387 34.9941
25.4119 27.6641 35.8841
25.1362 28.0205 36.6458
24.8952 27.5509 36.3275
24.4017 27.0797 35.9639
24.5203 27.4609 36.3515
24.5628 27.7256 36.7806
24.0237 26.7058 36.5841
25.4202 28.3154 37.5741
24.8191 27.5355 36.6585
23.8179 26.8332 35.83
24.0077 27.2693 36.8314
24.2212 27.5996 37.1911
23.7092 28.1358 38.0856
23.504 27.1088 37.2987
24.1724 27.4884 37.4015
23.844 27.2791 37.6104
23.3344 26.9417 37.4333
23.719 28.302 42.0187
31.1175 37.3695 47.6071
24.1606 28.06 38.8169
23.6295 27.5106 38.3366
23.6353 28.1916 39.3887
23.6807 27.8539 39.2849
23.8524 27.7562 38.9359
23.1445 27.02 37.7231
22.1519 26.0822 37.0916
23.6982 29.0099 40.7775
22.6703 26.679 37.8098
22.1734 26.3904 37.2738
23.094 27.6593 39.1273
22.9579 28.0502 40.7098
23.0666 27.3393 39.3787
22.3039 27.0944 39.3252
22.4545 27.0695 38.5196
21.3697 26.6763 39.1523
22.3498 26.9882 39.208
21.6189 27.2872 40.173
22.0862 26.9844 39.5482
21.5531 26.0881 38.2205
21.622 26.4927 39.2106
21.8339 27.0331 39.8898
21.8096 26.904 39.8672
21.7198 26.1432 38.2634
21.6422 27.2865 40.0119
20.9007 26.682 40.719
21.2561 26.3081 39.5886
21.152 26.9106 40.171
21.6794 26.7937 40.5406
21.4622 27.3879 41.0348
21.3151 26.9286 40.597
21.3407 26.0449 38.9641
20.6855 26.69 40.8218
20.5375 25.6228 38.9878
20.5226 26.6306 40.7781
20.8921 26.4887 40.0175
20.1563 25.9476 40.5316
20.5672 26.4773 41.5093
20.7902 26.6386 40.559
20.3838 25.969 40.2884
20.3168 26.2959 41.2581
20.5317 26.3596 41.1043
20.7594 26.6727 40.9786
20.3277 26.705 41.6586
19.6471 25.6157 40.124
19.8759 26.5126 42.5222
19.4094 25.5317 40.7963
20.3982 26.9547 42.285
19.6599 25.7681 40.8498
19.1492 25.3814 40.6777
19.6821 25.8177 41.4006
19.4211 26.2098 41.2136
19.4975 26.3666 42.1785
19.3752 25.901 42.162
18.8562 25.4501 41.6652
19.7894 26.625 43.0565
19.404 26.5011 42.395
18.9632 25.9289 42.3696
19.0738 25.6405 42.2389
19.7191 26.7931 43.1339
18.6671 25.6062 42.3324
19.088 25.9264 42.9025
18.8624 26.1712 43.5382
19.528 26.388 43.2724
19.0783 26.4021 43.1789
18.337 24.659 41.0435
18.4348 25.5622 42.5027
18.6628 25.9652 43.3984
18.5212 26.6428 44.9572
18.9241 26.6932 44.9204
18.7374 25.9906 43.7953
18.7278 26.6148 44.9397
18.1379 25.3271 42.9764
18.5689 25.6793 43.7688
18.5523 25.99 44.1962
18.6666 25.7364 43.5449
18.156 25.8147 43.6094
17.527 24.8046 42.8245
18.1096 25.9622 45.1783
18.0441 25.8929 44.1866
18.0217 24.8481 42.9622
18.3613 26.7548 45.3942
17.8158 25.7382 45.1478
18.4084 26.2395 45.4727
17.5944 25.9376 45.3395
18.5769 26.7571 46.1943
17.4865 25.6705 45.8141
18.0219 25.3197 43.9949
17.5395 26.0072 45.4015
17.407 25.8704 45.5089
17.5665 25.5632 45.4771
17.5592 25.4139 45.255
17.1567 25.9728 46.3716
17.5548 26.0136 46.9123
17.069 25.7897 52.0145
24.2042 35.1132 54.7247
17.0867 25.3801 46.099
17.1423 25.5782 45.3487
16.4042 25.0134 46.388
17.2009 25.3964 45.0755
16.532 25.3426 46.5851
16.6209 25.2896 45.8701
16.681 25.222 45.6376
16.9275 25.4841 46.0245
16.5798 25.3441 46.124
16.5099 25.0624 46.864
16.5248 25.0245 45.3074
15.8329 24.6822 45.6779
16.2678 25.0499 47.6322
16.6989 24.6684 44.8195
16.3683 25.2158 46.8881
16.1443 24.523 45.7942
16.1951 25.2278 47.3813
16.3659 25.2226 46.6234
16.0452 25.1949 47.1809
16.0739 25.1904 46.8861
15.8649 24.6803 46.5474
15.7137 24.7642 47.1141
15.8944 25.0917 47.9567
16.0449 24.2678 46.0385
15.8637 24.5378 47.1035
15.8782 24.9605 47.1385
15.9379 24.8771 47.0509
15.7633 25.0572 48.5233
16.0353 24.6961 46.5026
15.3568 24.5927 48.1803
15.6895 24.379 46.6345
15.5539 24.9182 48.0103
15.3343 24.6559 47.608
15.8424 24.7408 47.8424
15.1349 24.1776 47.8012
15.6505 25.2981 48.2893
14.8018 24.116 47.9736
15.2344 24.2168 47.1154
15.3669 25.1069 49.3629
15.1435 23.7599 45.8706
14.8205 24.506 48.3844
15.0453 24.0499 48.4985
14.7339 23.3728 46.4355
15.4566 25.6559 49.5797
14.4476 23.799 47.927
14.6894 24.2056 48.2782
14.386 24.1121 49.3744
15.0024 24.1995 47.8564
14.8806 23.9342 47.9497
14.6238 23.824 47.8365
15.0017 24.7779 49.5248
14.526 23.5394 47.483
14.5443 24.2327 48.2021
14.5422 24.7852 51.4109
14.9001 24.0317 47.0264
14.5535 24.4908 50.3079
14.6049 24.4185 49.6196
14.3439 24.1717 49.5145
14.3688 24.4848 49.9824
13.9847 23.4315 48.7527
14.1845 24.0936 50.2644
14.127 23.5987 48.7594
14.2855 24.6131 50.3411
13.8932 23.695 49.1337
14.1871 23.8197 49.6165
14.2361 24.2359 49.4152
13.6141 23.3109 49.0391
13.9712 23.2899 48.5242
13.8421 24.1475 50.5185
13.7538 23.3848 49.4192
13.7179 23.9956 50.5121
14.3566 24.7804 51.4992
13.77 23.5689 49.6687
13.7646 23.9057 50.2431
13.4048 22.9463 48.7038
13.8254 24.2557 50.8567
13.1028 22.737 49.462
13.8869 24.0679 51.047
13.6934 23.0732 49.2974
13.5013 24.2078 51.0312
13.0929 22.6049 48.7374
13.4684 23.5331 49.9847
13.3384 23.4549 50.2055
13.163 23.7117 52.0344
13.6472 24.1852 52.1254
13.4105 23.3438 49.6378
13.1218 23.3176 51.0497
12.9993 23.0558 50.2024
12.5008 22.1983 48.9397
12.9476 23.3293 50.9724
13.1326 23.5283 51.2535
13.0236 23.2004 51.6234
13.0182 23.0409 50.9297
13.4312 24.1817 52.5228
12.5924 23.7663 62.0131
18.0048 31.6051 59.4903
13.0835 24.0462 51.5361
12.6384 23.0363 52.274
13.0858 23.3467 50.877
12.8377 23.6568 52.6137
12.6261 23.2445 51.9636
12.4966 22.8084 50.9222
12.293 23.0613 53.2688
13.0933 24.0686 52.9521
12.7522 23.0556 52.7618
12.9517 23.5793 52.4892
12.46 22.8955 51.2073
12.7772 23.4154 53.1884
12.4266 23.1235 52.5511
12.7942 23.4907 53.5924
12.7077 23.1258 52.443
12.3839 23.3778 53.0902
12.5644 23.4478 53.5925
12.5893 23.2773 52.8724
12.2478 22.9885 53.5965
12.23 22.0468 51.2503
12.2584 22.6023 51.832
12.2649 23.0875 53.3564
12.5243 23.4291 52.821
12.0112 22.612 52.661
12.4621 23.3585 53.5782
12.2814 23.1269 53.5095
12.031 22.2848 51.9694
12.2182 23.2646 53.3614
11.7839 21.9736 52.6621
12.1183 22.3323 52.6536
12.78 25.2039 58.2521
11.9808 21.9916 51.7865
11.7533 22.4317 53.3369
11.7585 22.1952 51.9154
11.7237 21.8552 50.7092
11.4617 22.3658 53.2572
12.0077 22.8367 54.0909
11.5726 22.1631 52.4409
11.0235 21.3637 51.7214
11.8167 22.9818 54.8971
11.469 21.7835 51.9277
11.583 22.6853 54.2585
11.4525 21.5187 52.0112
11.5409 22.1071 52.9987
10.9681 20.9658 50.3524
11.336 22.1782 55.1692
11.9967 23.0746 54.14
11.6953 22.9486 55.4659
11.3527 22.2052 52.6075
11.1799 21.8125 53.5535
11.6761 22.5002 54.0586
11.1273 21.6285 52.7976
11.3849 22.2053 54.5474
11.2713 21.7847 52.9599
11.2637 22.7094 54.9026
11.301 22.3767 54.1953
11.2448 21.6802 53.525
11.0288 22.4651 55.564
11.3982 22.2728 54.4435
11.2157 21.9429 54.7666
10.9566 21.3895 52.8501
10.9603 21.7092 53.4987
10.6866 21.2825 52.943
10.9193 21.7554 52.7446
10.9323 22.2728 56.8098
11.136 22.0439 53.0707
10.6779 21.5885 54.188
10.7477 21.963 55.815
10.9071 21.9376 55.2549
11.2896 22.7574 56.7033
11.0614 21.8521 54.2768
10.7847 21.8124 55.5496
10.9895 21.84 54.7448
10.6445 21.515 54.1316
10.5131 21.8741 56.0009
10.7088 21.5894 55.4094
10.8478 21.9567 54.5337
10.2134 21.5644 55.431
10.6176 21.2846 53.4243
10.3565 21.7098 56.4211
10.4536 20.9605 53.7667
10.525 20.6762 52.5596
10.2118 21.4228 55.7968
10.5292 21.1951 54.1527
10.6008 21.8348 54.5592
10.4345 22.2961 56.3727
10.2663 21.3124 57.2211
10.5162 21.3406 54.6726
10.3553 21.5375 56.0139
10.3898 21.8499 56.9942
10.5039 21.4035 54.8081
10.0658 21.2223 56.1945
10.4055 21.4406 55.8367
10.4889 22.2299 59.6621
10.7175 23.2123 71.3114
14.1307 28.5122 62.6032
10.418 22.0272 57.0617
10.3434 22.6568 58.2343
10.2222 21.7098 56.8106
10.1432 21.2172 55.6083
9.90355 21.2622 57.39
10.3019 21.6321 56.4814
10.0115 21.1719 55.6555
9.90583 20.964 57.5375
10.4226 21.7101 56.6087
9.77628 20.7642 54.3255
9.65267 20.8169 56.1018
9.71737 20.5558 54.5094
9.73537 21.2972 57.5991
9.88009 20.9802 56.1593
9.75739 20.9004 56.4845
9.78642 21.257 57.158
10.0922 21.4467 57.4254
9.51442 20.8426 57.0599
9.93388 21.1464 57.1428
9.9689 21.262 56.7755
9.842 20.631 56.0533
9.50079 20.639 55.5403
9.4939 20.7921 57.3126
9.98885 21.2385 56.2706
9.61969 20.9084 56.8673
9.46675 20.6809 56.0861
9.46624 20.432 55.9769
9.47832 20.1472 56.1038
9.58954 21.6939 59.2217
9.66075 20.7483 56.794
9.60108 20.4257 56.4832
9.5945 20.2946 54.9871
9.41305 20.481 55.9782
9.27009 20.4522 56.1143
9.27483 20.7916 57.4303
9.50578 20.9896 57.2739
9.21301 20.6557 56.6983
9.10349 20.6691 56.4173
9.1057 19.8685 56.1087
9.17513 20.2965 57.6563
9.38659 19.9799 54.3749
8.99311 19.9474 55.5206
9.02164 19.9754 57.6921
9.30563 20.1737 56.2328
8.96679 19.9071 56.1311
9.12965 20.7887 57.9247
9.26568 20.0359 56.4124
9.3062 20.7904 57.0527
9.10304 20.0977 55.2495
8.64155 19.6701 55.6877
8.9736 19.6481 56.0126
9.11661 21.0603 58.6519
9.11977 20.2783 56.3998
8.87047 19.9442 57.1644
9.00212 20.0841 56.3447
8.65635 19.4071 56.4346
8.89214 20.3553 57.8861
8.7899 20.1661 58.2341
9.01426 19.9142 57.5495
9.01877 19.7329 54.4956
8.48629 19.1336 56.8639
8.9984 20.3172 57.5445
8.84683 19.9081 58.2414
8.76509 19.9697 58.068
8.92718 20.4189 57.8796
8.56849 20.1398 58.4214
9.02039 20.6596 58.7703
8.64176 19.895 58.3587
8.72489 19.7279 56.7758
8.82715 20.333 58.5922
8.81904 19.9408 57.5889
8.51709 19.6024 57.9617
8.70574 19.9854 59.4094
9.06134 20.4298 58.2293
8.55788 20.0308 58.9451
8.60345 19.9185 58.1072
8.76117 20.383 59.4764
8.60443 19.6864 57.171
8.52456 19.7299 59.4241
8.90182 20.4868 59.9551
8.72038 20.421 60.3614
8.77738 19.7699 55.9668
8.40524 19.5784 58.2829
8.50837 19.9403 58.636
8.50302 19.8498 59.0438
8.4902 19.3492 58.0008
8.38932 19.4167 56.625
8.2092 19.4617 57.04
8.27363 19.3356 58.0437
8.31359 19.7764 60.1819
8.41791 19.7885 58.6394
8.349 19.4643 59.0908
8.55864 20.2636 59.6764
8.34321 20.0943 60.8845
8.43377 21.4319 80.7684
11.9679 27.2806 63.7409
8.06666 19.9166 61.6318
8.55765 20.2609 60.3874
8.45238 19.5056 58.5815
8.28311 20.0389 60.6172
8.5676 19.9941 60.1524
8.37897 20.3351 60.854
8.09669 19.3608 57.8296
8.14351 19.4022 58.5837
8.00725 19.3276 60.5472
8.544 19.6138 56.6445
7.8467 19.6032 60.3993
8.04749 18.9952 58.6609
7.86064 18.7949 58.7015
8.16599 19.4505 58.1996
7.79341 18.8404 58.2631
8.08182 19.9025 60.7389
8.20133 19.3889 57.9178
7.66426 18.9719 59.5705
7.97157 19.256 58.6884
8.06182 18.9192 58.8759
8.05718 19.2785 58.8488
8.03422 19.4068 58.7275
7.65095 18.3388 57.8478
7.79825 18.669 56.1685
7.66148 18.8271 59.8576
7.99756 18.7896 59.1596
7.89267 18.8341 56.8545
7.91399 19.9665 61.2054
7.70458 18.4127 57.9791
7.82687 18.5082 58.5377
7.78159 19.5958 60.4856
7.80504 18.9968 58.4389
7.75916 19.2429 59.7654
7.69082 18.4232 58.8088
7.83294 19.0828 60.1848
7.67251 18.6758 56.7691
7.53239 18.7287 59.5605
7.8856 19.3052 61.2073
7.91802 18.7557 59.0674
7.85419 19.2047 60.7129
7.81718 18.8877 58.4496
7.73418 18.974 59.3953
7.77184 18.6629 58.3395
7.61859 18.7016 58.8458
7.5134 18.6984 60.5133
7.80634 18.7836 59.2662
7.64516 19.0642 60.3399
7.71968 18.9149 59.5491
7.53873 18.9181 59.8441
7.71045 19.0014 59.1233
7.65681 19.0415 60.3269
7.56339 18.9842 60.8227
7.59442 18.7433 60.6954
7.58282 19.1317 59.886
7.44918 18.5622 60.507
7.38459 18.3536 58.8192
7.56983 18.6949 59.7654
7.40493 18.4362 59.9883
7.56795 18.6929 60.601
7.55441 18.7292 59.2457
7.36226 19.3537 62.4222
7.59203 18.9352 60.613
7.52353 18.9834 60.6456
7.40908 18.3205 58.4533
7.2194 18.6701 61.9658
7.52676 18.5952 58.7322
7.15413 18.8775 61.0313
7.3377 18.3279 60.4707
7.43839 19.0134 61.2328
7.19075 17.6429 59.0899
7.39856 18.4951 59.7554
7.35156 18.2493 61.471
7.56482 18.4453 60.2012
7.34228 18.6481 59.8239
7.26238 18.6208 60.7674
7.31915 18.7349 60.296
7.17557 18.435 60.214
7.24705 18.3818 60.5255
7.27811 18.3354 60.3096
7.37223 19.0618 61.4097
7.36858 18.0277 59.7223
7.32025 18.4142 60.4056
7.20809 18.5053 59.7569
7.1475 18.16 60.9304
7.26551 18.2659 59.2428
7.15774 18.2037 61.1897
7.19668 18.6466 60.8222
7.11233 18.0389 60.5585
7.10304 17.9265 60.8478
7.17632 18.3735 59.1091
6.94211 18.0111 59.8883
7.06028 18.3061 61.0522
7.11248 18.6732 62.0529
7.15316 18.6376 61.5772
7.15351 21.1184 89.5708
10.0989 24.3475 63.577
7.03426 18.8846 61.5176
7.14845 18.5346 61.4379
6.91778 18.2991 61.4548
6.90123 17.8322 59.2612
6.75399 17.9636 62.0859
7.14105 17.9919 58.8198
6.70987 17.4285 59.3017
6.89672 18.3227 60.2876
6.9245 17.8493 59.1293
6.68767 18.1209 61.1153
6.93269 17.9162 60.3666
6.9779 18.114 61.4929
6.87672 17.6702 59.6507
6.82479 17.9027 61.3783
7.01539 17.7764 59.4112
6.7738 18.6252 62.6653
6.93794 18.1002 61.8564
6.92874 18.2672 61.9923
6.77905 17.4367 60.496
6.85524 17.8462 60.5748
6.70298 17.8092 61.09
6.80251 17.7249 60.2731
6.85496 17.4588 59.7188
6.66749 17.693 59.9897
6.78201 18.0972 61.0907
6.66881 17.5536 61.9146
6.93671 17.6867 58.1106
6.61652 17.4767 60.3986
6.85207 18.273 62.0577
6.70837 17.6684 61.2046
6.81656 17.7981 62.9334
6.77086 17.8008 61.6141
6.99975 17.9692 59.7235
6.66311 17.2889 61.0578
6.79962 18.2366 63.6644
6.79881 18.0633 61.2167
6.59747 17.3696 61.2376
6.76354 18.0432 61.4374
6.70795 18.2344 62.6975
6.73069 17.7726 61.5983
6.74644 17.6707 59.8935
6.53323 16.9629 61.4064
6.74592 17.571 59.5198
6.49821 17.1306 61.4752
6.66158 17.1078 57.8429
6.45836 17.7308 62.0057
6.47472 17.3239 60.7814
6.58372 17.7215 61.0509
6.62256 17.6801 61.6266
6.67549 17.9692 61.5524
6.59373 18.251 63.3884
6.55255 17.0465 60.4555
6.56507 17.3501 60.1412
6.39869 17.343 61.8783
6.6781 17.6472 61.9432
6.65035 17.3739 61.4157
6.52837 18.052 61.4581
6.38914 17.406 61.1084
6.41001 17.2219 61.1598
6.49734 17.4411 61.6965
6.42071 17.2778 60.8215
6.33509 17.2468 61.9469
6.64431 16.9916 59.8923
6.32014 17.4379 61.6114
6.42458 17.3375 59.3345
6.32265 17.0967 60.2912
6.44163 17.5255 62.121
6.34956 16.942 60.6987
6.51564 17.3902 61.2363
6.30134 17.6221 63.4774
6.59666 17.7071 61.6812
6.53722 17.562 62.3611
6.34206 17.5015 62.5865
6.37586 17.2917 60.2416
6.13571 17.0214 60.8667
6.17546 16.5313 58.9919
6.20367 17.1645 61.2786
6.25885 16.6971 59.7506
6.27757 17.4525 61.7085
6.21348 17.3497 61.1246
6.30201 17.4931 61.862
6.32012 17.5247 64.1528
6.42155 17.0725 61.4145
6.38219 17.5264 63.0571
6.25536 16.7293 62.5317
6.61656 18.3987 63.7154
6.32748 17.2693 60.4599
6.23431 17.619 64.3258
6.49913 17.1503 61.9061
6.37227 17.8906 64.4953
6.28829 17.7165 62.7641
6.20274 17.2357 61.9877
6.3316 17.6637 64.3337
6.49387 18.4576 65.0463
6.41558 20.4861 99.2028
9.62791 24.1053 66.9633
6.45602 18.1597 64.2089
6.50288 17.7201 64.6555
6.49801 18.2637 65.2553
6.38399 16.9913 61.7209
6.2107 17.3611 62.3877
6.19524 17.1195 62.8898
6.3735 17.2471 63.1404
6.2388 17.3416 62.1407
6.13592 17.1674 62.563
6.18273 17.2458 60.9311
5.97615 16.7136 61.896
6.16014 17.0053 63.6526
6.30381 17.1898 61.9108
6.12916 16.5785 61.8886
6.2373 17.542 61.8016
6.06898 17.2676 63.4035
6.04583 16.6678 62.8033
6.13445 17.2632 62.6355
6.07798 16.9902 62.5369
6.07097 16.8093 60.8901
6.11147 16.8451 62.1101
6.06486 17.2937 63.3439
6.32047 17.0531 61.6623
5.98771 16.6462 61.723
5.95821 16.9895 63.2879
6.00345 17.0069 63.7077
6.1611 17.2576 61.8665
6.09471 16.5157 59.4784
5.97368 16.6552 61.8734
5.90067 16.4466 61.4511
6.03432 17.4408 63.2487
5.97148 16.4786 60.5165
5.89425 16.6308 62.1871
5.92133 16.4053 61.3233
5.96572 17.0067 63.0102
5.99296 17.0837 63.907
6.1631 17.2039 65.0363
6.15093 17.1693 61.4575
5.92433 17.4364 63.4919
6.02702 17.4138 65.1041
6.22881 17.2678 63.0776
6.08951 17.0982 62.1004
6.03466 16.597 62.4051
5.91707 16.3994 61.708
5.88396 16.3024 62.2226
6.05999 16.9444 61.9751
5.81895 16.7268 61.9787
5.79034 17.2526 64.9814
6.1552 16.983 61.9056
5.87885 17.3732 64.5785
6.01296 16.4439 62.2227
6.03949 17.0628 61.7013
5.80752 16.1889 61.2428
5.77371 15.8828 61.3959
5.82812 15.9562 60.2463
5.87094 16.4925 61.5093
5.82975 17.0933 62.8239
5.76195 16.894 63.5193
5.84726 16.8613 62.8144
5.91777 16.7637 62.6767
5.81334 16.3394 61.4089
5.73233 16.6356 62.7405
5.88069 17.0073 61.2559
5.59959 16.6311 64.1787
5.92872 16.1701 60.7421
5.76572 17.1666 65.908
6.06625 16.2784 61.0894
5.70907 16.7452 63.0348
5.83373 16.4042 62.5498
5.86735 16.7815 61.9894
5.77353 16.5812 63.7456
5.92474 16.6481 62.706
5.84515 16.2217 61.3627
5.77708 16.4192 62.3975
5.77855 16.8948 63.6722
5.85423 16.4725 60.9427
5.58945 16.2164 63.9971
5.79249 16.4617 60.5001
5.61571 16.0714 61.4818
5.63071 16.0506 59.3424
5.56946 16.2957 62.8949
5.72117 16.2165 61.6553
5.66178 16.4299 62.6377
5.69402 16.1445 61.6394
5.71829 16.8394 63.4332
5.8845 16.3906 61.2689
5.70342 16.6079 63.4674
5.79005 16.4126 63.603
5.79203 16.203 61.9718
5.64332 16.915 63.3857
5.84328 16.7703 62.5507
5.62036 16.5836 65.205
5.8326 17.2401 64.1519
5.74033 16.5349 62.1818
5.71183 19.1021 98.7507
8.2054 21.8542 64.3443
5.75831 16.6144 63.4704
5.73663 16.5689 62.0813
5.68493 16.5724 62.9821
5.67498 15.6246 61.8942
5.63939 16.5607 61.0814
5.54605 16.2554 62.72
5.6883 16.7034 64.5163
5.69204 16.4199 61.643
5.60873 15.8906 59.6091
5.38129 15.974 64.7224
5.86549 16.4142 62.0841
5.61434 16.3036 61.9738
5.55096 16.1878 62.625
5.59487 16.3022 61.7039
5.61036 15.9285 61.5104
5.5546 16.3153 61.7023
5.53292 15.8132 62.2366
5.63579 16.4249 63.6198
5.57792 16.4715 64.6862
5.66118 16.0499 61.2222
5.54037 15.9328 61.5749
5.54832 16.1258 62.0312
5.55593 16.4713 62.2778
5.58873 15.7505 62.0942
5.58729 16.4176 62.9038
5.60633 16.4669 61.4902
5.53155 15.6582 62.7795
5.65413 16.1447 61.0443
5.43088 16.1706 63.5404
5.52877 15.5774 61.8751
5.46464 16.417 63.3131
5.59478 16.163 62.838
5.71497 16.4916 61.6006
5.53399 16.3089 62.871
5.52271 15.8201 62.3462
5.52058 15.9714 61.2295
5.33238 15.6005 61.2945
5.52668 16.155 63.9931
5.56664 16.1084 63.0368
5.69564 16.3936 62.6165
5.58555 16.0054 63.5794
5.50656 16.2248 60.3379
5.32075 15.6514 62.3507
5.56697 16.325 64.3545
5.56539 16.0792 63.1725
5.55584 16.0794 61.3798
5.40149 16.3002 62.5582
5.40559 16.2005 66.0403
5.59274 15.9092 62.9826
5.57624 16.2606 62.4101
5.40656 16.5689 62.5806
5.33454 15.7496 62.8249
5.66213 16.0158 62.1923
5.42255 15.8455 60.5116
5.30175 15.7131 62.4798
5.43859 16.4459 61.3983
5.43712 15.7433 62.4977
5.50301 15.2802 60.7749
5.4262 16.0097 62.3403
5.52469 15.9803 62.4909
5.45707 15.8646 62.0205
5.5105 15.7663 60.7962
5.36535 15.6625 63.3566
5.51611 16.3134 63.8068
5.40853 16.2868 62.4548
5.39315 15.7599 62.9606
5.55688 16.0999 62.5645
5.4007 16.1209 62.4284
5.31468 16.0515 63.4142
5.47572 16.0074 63.9336
5.51196 16.1524 60.4031
5.35673 15.6435 62.2487
5.36238 15.9139 62.661
5.4029 15.8939 62.0863
5.40851 16.1492 63.8354
5.53431 16.068 63.1719
5.51569 16.4257 65.3865
5.68027 16.0082 62.1301
5.28448 15.7922 64.0231
5.4478 15.4517 60.9566
5.36293 15.8753 62.6839
5.43789 15.8187 63.8007
5.49311 16.2045 61.2901
5.3571 16.1354 64.6932
5.48002 16.1124 63.1875
5.43439 16.2044 63.1057
5.3806 15.9292 63.6601
5.44153 15.5141 60.7905
5.14506 15.4231 62.7469
5.36468 15.8874 61.8806
5.37761 16.0198 62.5916
5.41658 16.4407 63.503
5.3308 16.14 63.2872
5.49123 16.11 61.7249
5.34309 18.6821 99.2037
7.80913 20.2551 63.1165
5.34863 16.3854 61.5067
5.34153 15.9722 62.1947
5.18583 16.1127 65.3402
5.56619 16.1139 62.9691
5.47763 16.0285 61.7866
5.30637 15.0788 61.6206
5.25688 16.2424 64.2148
5.48116 16.1031 62.5604
5.37301 15.4305 63.5552
5.45491 16.1451 62.9061
5.37987 16.0966 63.6063
5.35113 16.331 63.6474
5.43016 16.1698 63.5635
5.39724 15.5749 64.5235
5.46792 15.8348 60.9229
5.17276 15.8508 61.6953
5.22159 15.1746 61.2101
5.17416 15.8179 62.6807
5.28253 16.0039 61.8347
5.25738 15.6463 61.33
4.98019 15.2029 61.6482
5.28655 15.9376 62.6738
5.27352 15.6037 63.4348
5.40849 15.8211 62.2479
5.39202 16.0244 61.7203
5.14513 15.2729 62.119
5.17523 15.6258 65.1334
5.5083 16.0554 62.4813
5.24609 15.8113 63.1054
5.35943 15.753 62.7816
5.26302 15.4447 60.4223
5.13457 15.5736 62.869
5.31356 15.6868 61.0388
5.00394 16.0844 64.2996
5.39644 15.9661 63.0334
5.38515 15.7049 64.1998
5.40114 15.9861 64.5304
5.38218 16.0138 64.0926
5.41548 16.0635 65.1162
5.38937 16.2304 62.8492
5.33381 16.0816 63.4297
5.48707 15.6474 62.2508
5.28292 15.7893 62.0677
5.28032 15.7995 62.7524
5.26742 15.9098 64.7438
5.41996 16.6398 64.2839
5.30295 15.9535 65.599
5.44448 16.259 64.9824
5.46099 16.2093 64.8149
5.34793 15.9747 62.1643
5.23463 15.4068 62.3869
5.38399 16.0123 61.4606
5.15126 15.4408 62.7543
5.28939 16.0749 62.189
5.23191 15.266 60.6813
5.16996 15.2812 63.6737
5.24143 16.4443 63.6304
5.39921 15.7761 64.5225
5.43348 16.393 63.4668
5.31283 15.8412 65.451
5.41987 15.8551 62.5667
5.21811 15.8526 64.3409
5.44669 15.8672 61.3102
5.21094 15.7009 63.8137
5.30837 15.4895 60.8927
5.19339 15.6917 64.7122
5.45913 15.9757 58.7365
5.00696 15.2372 62.7435
5.35406 15.8605 63.9544
5.36983 16.1071 63.4747
5.34945 15.6822 65.4342
5.48484 16.4715 64.2228
5.20973 16.1489 64.7414
5.40825 15.7802 64.0819
5.44178 16.3138 63.3994
5.30254 16.2553 64.3099
5.29288 16.0362 62.8416
5.27326 15.8608 65.7612
5.45167 16.1167 64.3359
5.32349 16.1192 64.0843
5.34128 15.663 63.0769
5.15073 16.21 63.3254
5.29187 15.7846 61.9312
5.32218 16.218 63.5285
5.2372 15.929 64.6852
5.49534 15.6072 63.5057
5.13326 16.2464 63.1166
5.2743 15.5152 63.228
5.25308 15.7415 65.4864
5.45181 16.8233 66.6746
5.48517 16.5202 64.2035
5.19951 16.1301 66.3906
5.4824 16.6614 65.1178
5.46073 17.076 65.6133
5.46369 18.518 90.4041
6.82417 0 0