# pn-170911/RbIIR-57-WTZR-1280-1959.psd
# Power spectrum* (dif=0,1,2) (really just |FT|^2)
# NOTE: only the first half! (symmetric)
# weeks: 1280-1959
# 17 clock-days, 2 excluded
# PSD: 1441
2010.52 0.0923428 0.0605544
34079.9 0.69894 0.0653083
191701 3.80634 0.0563807
11078.5 0.524748 0.0595662
63193.9 4.58622 0.0548276
6053.94 0.31522 0.0642882
5687.69 0.731364 0.0603606
2022.73 0.326646 0.0419877
2485.56 0.664216 0.0472797
1835.03 0.495328 0.0590615
1282.72 0.432283 0.0548115
1389.41 0.695181 0.0354616
1296.66 0.5033 0.0426428
672.496 0.504306 0.063514
691.083 0.545505 0.0515802
767.474 0.439035 0.0573841
740.242 0.857072 0.0497927
508.36 0.55714 0.0651276
773.004 0.921318 0.0559682
396.084 0.361607 0.0692437
319.968 0.712995 0.0545763
559.185 0.766816 0.0555502
293.985 0.636529 0.0667367
543.802 0.966697 0.060914
527.145 0.806568 0.048062
468.445 0.770645 0.0504425
300.293 0.821444 0.072501
366.603 1.20935 0.0456098
308.393 0.805139 0.0484765
236.108 0.603261 0.0658262
324.292 0.971677 0.0428495
487.582 1.9033 0.0400666
279.579 1.33369 0.0618676
320.615 1.89415 0.0698714
405.838 1.43523 0.045025
322.275 1.73871 0.0556985
350.436 1.55278 0.0932105
337.041 1.76235 0.0811091
255.109 1.96405 0.0599518
290.009 2.35306 0.090232
335.752 2.52067 0.084808
207.337 2.00119 0.061874
383.769 3.06512 0.0850353
379.467 2.71448 0.0776658
192.453 1.65986 0.064014
297.329 2.42266 0.0696458
301.207 3.08559 0.105818
335.698 3.18766 0.0524936
224.173 2.04516 0.0601157
237.683 2.8073 0.0808964
252.521 2.36532 0.0768489
171.814 2.28005 0.0662238
333.154 3.38909 0.135756
220.643 3.42768 0.0813788
240.778 2.63515 0.0670005
286.745 4.12824 0.120627
188.214 2.7758 0.0837054
215.791 2.86115 0.074615
284.718 3.91064 0.12577
218.005 3.57083 0.127013
274.563 3.93962 0.124748
175.602 2.7281 0.0984031
310.553 5.09437 0.114238
148.517 3.34001 0.135098
215.396 3.79168 0.120212
287.088 5.73606 0.167219
223.42 3.75082 0.152749
273.427 5.96621 0.207448
145.362 3.25537 0.0986451
184.538 3.71625 0.107306
259.74 5.60019 0.168268
215.104 6.04173 0.161629
196.263 4.37625 0.212097
197.526 5.0204 0.207824
147.861 3.55549 0.156347
272.618 6.9029 0.24221
294.948 7.91254 0.31225
193.99 4.89029 0.182831
196.269 5.71151 0.212909
158.176 4.26321 0.241592
220.025 6.76421 0.227125
161.489 5.10588 0.29881
193.496 5.68132 0.187363
267.243 8.83018 0.365847
175.132 5.62021 0.241253
175.411 6.25624 0.272377
213.962 7.95071 0.264498
176.405 6.06971 0.253805
129.649 4.09946 0.244908
170.555 6.45132 0.303942
228.507 8.23318 0.343198
246.408 8.06621 0.325963
210.278 8.96656 0.436243
122.614 3.93907 0.2403
156.778 6.3174 0.241228
147.312 6.273 0.348002
238.068 11.4106 0.587471
180.406 6.84905 0.39762
135.902 6.73225 0.399915
195.2 8.62816 0.4179
179.884 8.45168 0.507276
155.275 6.65414 0.388871
291.391 13.6312 0.679822
119.951 6.02192 0.375922
140.151 6.65205 0.329926
77.3579 4.07322 0.282603
132.754 7.35078 0.359509
220.741 12.4767 0.64283
119.384 6.2029 0.479692
159.517 9.25514 0.605195
145.334 8.27807 0.511956
239.854 12.4491 0.922989
179.549 9.84037 0.552809
143.869 9.87594 0.655621
129.661 7.69085 0.627257
157.196 9.71481 0.613134
100.647 7.15463 0.429388
131.694 9.83804 0.691159
124.703 7.9935 0.688003
168.632 10.9407 0.757504
89.889 7.23113 0.535549
194.181 13.7813 1.20022
168.12 11.2661 0.863355
107.587 7.53281 0.52247
95.8476 6.38186 0.412047
205.045 13.253 0.997133
172.136 12.3006 0.967255
100.112 7.61091 0.626876
177.719 12.0373 0.895171
212.753 14.7881 1.33298
182.807 13.8165 1.28943
154.166 12.6344 1.12458
121.472 9.3735 0.988782
141.5 11.0061 0.877237
152.227 12.7904 1.12019
156.672 13.9151 1.34568
132.98 11.9322 0.999397
169.233 15.5067 1.57737
132.249 11.7561 1.05869
94.0391 8.26599 0.853275
123.157 10.5336 1.02252
103.453 9.8489 0.969218
67.9581 6.84479 0.727557
134.939 13.5649 1.41907
141.474 14.3611 1.31954
119.938 11.3718 1.16808
142.885 15.1674 1.55393
74.8852 6.52478 0.788885
135.01 15.4881 1.6486
97.6736 9.74981 1.00496
131.618 12.9668 1.32594
66.0905 6.49522 0.797087
92.8501 10.2002 1.05929
95.2858 10.4885 1.1778
95.8605 10.1127 1.17968
92.3511 9.20437 1.06878
140.487 16.3965 1.95918
110.852 14.2183 1.69105
120.539 14.0915 1.7511
101.249 12.7522 1.74274
155.385 16.6282 1.88099
104.839 12.8583 1.5121
122.469 14.1183 1.56822
135.736 19.2509 2.34889
112.49 15.7225 2.16462
73.3944 10.239 1.33099
121.413 16.2906 2.22662
62.6043 8.05387 1.11841
74.3915 9.96363 1.41465
66.5959 9.19646 1.26491
95.2466 11.4954 1.70237
96.5717 11.2174 1.4477
106.832 14.5393 1.98157
93.4147 13.9097 1.90397
115.242 16.9766 2.21239
120.538 17.0378 2.6295
114.171 15.5016 2.4351
58.4593 8.65931 1.18191
144.758 20.7418 3.15634
109.607 16.4926 2.59046
81.8809 13.3204 1.9634
75.0492 12.4675 1.92329
102.703 15.4256 2.41786
98.9356 15.5075 2.58442
133.204 23.0545 3.71913
98.1365 15.7391 2.54013
84.7744 12.3965 1.86994
95.0268 13.9584 2.14937
111.593 15.7457 2.53077
84.7707 14.1949 2.81981
107.34 16.5637 2.78658
68.2116 12.7676 2.40481
153.472 26.6916 4.16979
101.959 18.8417 3.15024
158.542 29.6995 5.11626
69.3664 13.4167 2.76279
81.5015 13.7543 2.21502
79.8933 13.8739 2.51914
84.8477 14.9997 2.88012
72.9919 11.5886 2.23956
94.7226 17.0518 3.14899
111.867 21.51 4.34785
71.9625 11.6036 2.11321
73.6874 13.3761 2.39641
117.261 22.5598 4.67478
89.13 15.9569 2.88932
83.4183 17.8369 4.14989
156.523 29.422 5.69504
63.0495 11.7044 2.74399
80.0164 15.3026 3.30586
112.008 22.0732 4.61368
74.4482 14.9048 3.01179
57.4357 11.5891 2.51065
67.1619 14.9092 2.99382
77.6363 17.346 3.62673
107.971 25.3212 5.8172
98.1491 19.2337 4.10767
103.931 24.201 5.44575
86.8682 20.2944 5.0171
88.8826 18.9796 4.18823
117.137 24.3133 5.65583
80.1848 20.3094 4.82672
108.173 23.4122 5.01509
61.4449 14.0378 3.43972
75.8598 18.6157 4.69625
101.566 21.6605 4.65127
80.8325 20.3876 5.03247
78.1996 18.3548 4.59142
78.9575 17.4055 4.2258
59.4063 15.2559 3.78739
39.2599 8.65455 2.10059
99.2508 23.486 5.59121
63.3824 18.5074 5.13503
129.987 31.4874 7.62232
70.0911 19.2066 4.77373
77.2806 21.2434 5.21445
75.8956 19.7727 5.76133
89.8468 23.2228 5.77962
62.4889 16.133 4.31381
62.0349 15.7785 4.01074
93.9943 23.269 6.12843
60.18 17.4816 4.942
85.3151 23.7845 6.56228
76.4499 18.8123 4.99729
75.9162 20.9626 6.06875
115.411 31.2508 8.88501
52.5318 12.9562 3.9005
67.4867 16.8955 4.56929
91.1394 28.2012 8.04503
62.5606 17.2972 4.85088
75.4303 24.3167 7.9454
85.9565 23.3234 6.37083
97.1223 30.1594 8.75887
80.4547 24.0312 6.63609
70.1188 21.4472 6.68473
66.4462 19.1435 5.50236
74.3718 22.9391 7.82578
60.9675 17.2835 4.99667
109.791 30.9871 8.81425
91.1334 30.5993 10.2765
49.3852 15.1579 4.7066
52.7469 18.2896 5.84004
61.3399 19.9196 6.40467
94.7679 29.1064 9.31824
80.3492 23.4017 7.73345
69.5378 20.9224 6.97494
75.0996 22.4174 7.15509
61.6273 21.3169 7.2994
59.9231 22.1645 8.05364
104.881 32.482 10.1962
66.9124 23.3028 8.50016
65.1996 20.2947 5.83145
74.591 27.0674 9.80025
84.3727 29.7804 11.0386
73.9583 24.4364 8.17539
69.017 25.0733 8.91514
60.4725 19.8754 7.08249
46.0748 15.5328 6.11443
105.153 36.2755 12.1986
64.4831 21.97 8.40018
67.3356 24.5806 8.69174
78.9683 25.9501 8.19446
61.3099 23.2942 8.72606
86.4758 31.6083 11.4483
51.7725 20.7127 7.74562
40.9077 16.8414 7.16054
88.279 33.2571 11.2137
68.8314 25.9455 9.79674
72.5055 26.5343 9.35783
101.315 41.3987 16.364
72.4427 30.4516 12.9596
89.405 40.3667 19.3108
220.922 86.2647 34.2069
166.438 59.2775 20.6751
128.325 50.9359 19.3025
122.042 56.8338 26.0086
295.822 120.254 46.8493
120.561 41.876 15.7827
52.9906 20.0469 7.35326
117.879 64.8486 33.6995
179.684 62.5736 20.6982
36.6955 16.1426 7.94631
78.7888 33.4979 14.8424
83.4913 31.0821 12.4294
81.9701 32.8386 12.9459
68.8574 29.3617 12.0088
55.5039 20.6501 7.84668
45.476 19.1512 8.63202
58.3645 23.4113 9.6673
41.5164 20.2243 9.69941
56.2144 22.8927 10.1043
60.137 26.4482 11.8484
48.594 19.6487 8.95575
73.8083 28.8624 11.8457
37.1553 16.4543 7.07239
74.4519 36.9272 17.1824
48.381 18.2402 7.83718
49.0365 21.6344 8.86905
37.0923 19.7074 10.7207
88.0555 38.5229 16.9424
63.2818 28.9856 14.2744
38.7607 17.1129 8.4484
42.3783 17.8815 8.58432
58.604 30.9488 15.9436
59.6812 25.9459 12.7102
45.7534 16.1349 6.2609
45.1422 22.5767 11.4528
57.5965 23.5384 10.0046
57.108 24.4027 11.521
71.1765 34.5687 16.759
116.087 53.5963 25.336
48.6451 24.3695 11.9071
51.8103 28.3148 15.5377
61.9748 29.7404 15.3637
76.3955 37.1412 17.0358
35.6232 17.853 9.80604
36.793 20.8244 11.7062
51.1121 28.5595 15.2226
39.0533 16.7553 9.26024
63.7388 34.4972 18.1748
64.6098 32.7048 17.4417
58.5764 30.2783 17.4271
50.7457 26.2901 14.0758
58.9244 28.6413 13.7648
37.8562 20.6071 11.6218
61.0635 32.053 17.1907
37.8369 17.9511 9.5274
37.6482 19.5648 10.9177
66.0198 37.8369 22.3066
51.3885 24.3792 12.5189
40.2242 21.0224 11.6292
43.6272 23.4147 13.9928
40.279 23.259 13.288
44.9947 21.858 12.0346
44.5476 23.7114 13.5279
42.6322 24.9101 15.2278
68.5242 34.2569 17.7471
40.0005 21.5355 13.6394
72.6972 43.5802 22.7588
36.5523 24.7355 16.7825
37.8815 17.3917 9.91469
52.4019 27.165 14.2749
51.0978 33.1965 19.9294
64.1641 35.3838 18.6688
31.7287 19.0613 12.2828
59.0209 31.7511 18.4363
57.934 32.5012 19.5682
69.1477 41.9402 24.6253
58.1499 35.1513 20.9871
43.1041 28.6274 17.9152
29.9593 19.7588 14.4105
69.7545 42.4499 26.4003
40.8638 25.1477 16.253
56.1397 34.1908 21.4599
52.5304 30.1802 19.1834
77.596 47.1737 27.1152
31.5078 21.9487 14.2622
45.1772 28.0296 17.7044
31.4004 20.2929 13.9797
33.4936 25.9678 19.194
47.5093 27.9958 16.0651
26.9356 19.5462 15.9159
79.9228 47.0184 27.1315
42.8658 31.709 21.7834
42.938 29.99 21.4791
54.6753 33.1061 21.2512
34.1865 22.1669 15.2367
54.1191 37.0472 24.5176
19.6267 13.8846 11.5835
54.5859 33.0972 20.2305
39.8481 29.9662 23.4454
44.1122 27.5285 17.9945
40.7185 24.4682 13.7714
30.5639 21.9621 15.5246
53.7556 37.6876 25.6412
40.8753 24.7529 16.161
55.1749 37.4778 26.6952
54.1638 34.8442 23.0711
35.4991 23.7409 17.5586
40.2715 28.1432 18.8152
46.0256 32.2269 20.7697
29.9463 27.6942 23.0281
25.8915 20.0159 15.6823
35.5929 26.7326 20.0731
39.9882 25.9738 16.6366
22.6769 19.3386 16.9626
38.4089 24.7299 17.9886
30.8739 23.0995 17.6341
41.962 29.2372 20.3618
19.7059 14.8107 11.6961
26.8665 21.6894 15.93
34.545 29.3526 26.0655
33.6797 21.8679 14.0163
34.4697 28.3983 22.4695
56.6362 39.5793 30.4953
34.9609 25.0651 18.3891
42.2669 32.2416 23.6791
22.7671 15.4183 11.9015
46.7996 36.9802 27.7041
30.5115 23.4104 18.167
30.1891 24.9458 20.5883
44.2003 34.3471 26.3645
36.6212 31.9032 24.5549
28.2814 21.9857 18.3299
38.88 31.3611 23.3362
51.9231 40.2187 30.8724
33.4518 29.7984 25.659
32.4134 22.8698 18.2129
29.4933 27.1852 23.7757
33.51 27.0235 22.7038
39.6489 31.7017 25.4218
33.9189 22.6563 16.0441
14.8467 14.6098 13.813
23.8832 19.8746 17.1531
34.6366 27.9873 23.1559
26.7248 22.3685 19.0639
42.6576 34.4579 27.8435
41.4706 34.0837 26.7531
30.7056 28.3489 26.4965
22.9452 18.8041 17.9862
39.9422 32.7008 25.3757
17.0606 15.3849 13.8361
23.1286 20.9897 20.5809
28.2814 24.0332 23.9303
40.2868 24.9166 15.4712
31.3645 23.8286 18.4444
27.583 25.6931 24.0042
35.4309 34.7338 27.6854
24.2823 25.089 25.9215
30.2038 28.0553 25.0368
49.0727 43.6032 37.3202
33.4301 27.6118 22.5305
46.6597 48.2631 46.1867
36.291 28.6938 24.2484
28.0458 23.3277 24.9912
40.9771 30.6058 24.8001
40.2651 37.0476 32.5816
24.1649 21.3635 20.2156
24.1564 23.7873 24.4469
31.1659 29.5779 25.7139
19.6042 16.4015 15.801
23.1187 22.2605 24.7823
43.9454 33.671 25.1402
29.3309 28.9851 28.2969
27.4898 25.4158 24.0812
27.2303 24.7258 24.0259
26.2646 24.9831 23.9592
33.867 31.8177 28.7373
28.1652 21.0002 17.1285
29.8238 31.1556 30.7625
16.3332 18.972 23.3811
42.7187 37.0421 32.3044
33.0794 33.3471 32.8845
28.9649 26.0665 24.7414
29.8725 30.228 29.8072
42.2393 45.4303 43.4482
21.1558 22.0241 21.8903
20.4227 18.3066 17.0651
19.4354 22.1732 23.1968
17.1678 17.6047 20.4912
24.1903 23.9357 25.7536
23.2054 18.3848 17.0598
15.7815 16.6668 21.2014
33.8445 28.8106 24.9333
18.4553 21.3111 24.9158
30.2884 27.9148 26.9451
31.9518 29.8346 28.522
23.2809 22.402 23.2042
18.5439 17.7128 19.0629
26.3017 27.647 27.9777
22.1679 21.045 22.515
30.1719 31.2475 30.4222
44.138 56.2154 65.3168
42.6276 34.2115 31.0809
32.3681 32.7914 33.1031
17.9683 16.4524 17.6974
22.6893 26.544 32.4016
22.8989 23.0948 25.3161
24.7481 25.0079 28.5163
46.8395 48.9903 42.8098
20.4794 20.8085 22.168
19.8007 23.9876 28.4521
33.7629 35.4877 39.095
29.6649 30.2997 32.4949
27.8483 30.7732 35.4845
34.1726 40.4123 44.6985
20.0854 17.1548 16.1528
23.1773 30.0967 37.9233
31.3183 29.2714 25.5394
20.2764 22.6343 21.5503
20.0013 29.5836 40.2152
33.7301 33.9284 33.4796
30.5924 34.461 37.3972
25.7913 28.9818 35.0493
37.8156 43.7906 45.9793
30.3347 36.1204 41.0992
25.3807 29.6187 37.1925
23.3032 25.5948 29.5895
21.2529 24.9854 31.9586
26.0704 26.2478 27.7876
25.7938 31.2422 36.0561
22.3106 23.8054 25.5551
24.7481 33.6669 43.6039
24.9493 26.3713 26.5387
15.9696 23.5563 34.7017
29.4626 30.3718 37.7748
23.5999 21.672 23.0368
25.0886 26.9383 26.2713
14.7426 25.2636 38.7549
22.2563 25.276 35.1447
28.4398 28.8176 32.2294
23.7264 23.4631 25.0192
22.6321 26.2901 28.2241
17.5391 23.2672 31.0365
24.3547 25.6367 27.5618
24.2495 33.5083 42.7024
24.2973 27.1222 31.9858
26.6065 36.2308 45.221
15.7278 19.0809 31.2308
29.8294 25.6825 24.6345
26.5202 31.8803 33.9469
26.8814 29.9219 34.1082
25.2839 26.9247 31.3242
15.1847 20.7083 28.1805
21.5115 31.8735 46.8108
23.6137 26.219 32.5673
16.2061 18.1833 26.7235
18.6957 19.7279 23.5091
23.2446 27.591 35.6516
25.4733 29.9499 33.5166
27.2092 33.0615 36.0827
23.2263 36.3194 50.4458
15.0231 13.763 17.6332
18.6454 25.2463 37.2917
27.2597 28.3547 32.5823
24.2191 35.1912 44.9299
22.2682 30.8049 47.9836
41.0467 49.7214 58.4212
26.5677 25.4249 22.6115
19.6907 29.301 39.3026
21.4108 29.208 37.0297
16.912 25.8863 39.5144
17.4761 18.794 26.6187
24.9273 33.8187 43.2851
21.14 26.9774 34.4957
18.0467 22.4577 31.7447
30.0648 43.1601 53.6561
11.4982 15.93 27.4237
24.398 34.7863 44.9973
22.5037 31.3528 45.1955
21.2986 27.6567 43.0266
24.9294 21.3378 21.3954
20.2567 26.4988 35.7731
20.8253 23.665 25.8475
21.9551 40.0821 59.4269
18.7651 25.732 42.5099
31.3846 37.0087 40.6082
13.2921 20.4747 29.119
15.808 21.8307 34.0002
21.4059 30.1141 38.2075
14.5552 23.169 37.7811
17.6043 20.7335 32.0626
23.2881 32.9039 44.9413
16.2118 21.7522 35.0407
25.3647 30.2432 38.8147
15.225 21.2025 36.5638
29.2591 34.855 40.8382
14.6446 20.8904 30.261
16.7286 27.9052 40.3143
20.3719 30.8344 45.2906
15.1279 19.4229 24.9434
9.91638 20.5856 41.0722
23.8998 29.0448 40.8063
20.052 23.1607 30.5473
18.5072 24.3328 31.2217
21.742 29.8174 35.8378
17.4384 32.3588 54.0765
23.4616 31.6067 42.6379
21.4032 31.3785 41.8728
11.9354 16.0498 25.1984
17.9764 31.0782 45.6183
13.4478 22.6675 37.6527
13.0939 16.6433 28.3007
22.8212 32.5034 47.8539
15.6059 23.3193 37.4914
20.3232 30.6311 46.1038
18.48 28.749 45.0801
19.451 29.9954 46.4925
26.0162 42.709 66.838
19.3246 26.9505 47.061
19.4332 22.5785 26.748
14.8431 20.8853 35.5856
23.117 35.5417 54.5669
24.54 34.8514 44.2653
16.8087 31.8923 51.4713
15.5254 28.8328 53.6097
20.802 29.9997 52.3214
23.5971 31.5369 45.8812
12.8479 18.8304 32.5034
15.5952 21.405 38.6457
27.7701 36.6028 43.523
23.8068 41.0323 60.6381
15.7889 25.9296 48.4487
19.5087 25.2343 32.9595
12.31 23.4647 41.1648
13.5515 21.9868 37.8402
18.0044 28.8913 50.55
21.4724 30.274 39.9212
16.954 25.0589 34.9304
10.9397 18.7943 31.1744
15.2366 30.0606 53.9604
18.4541 24.7718 36.367
15.9608 24.1177 38.0375
18.6618 32.3644 50.0778
15.0512 21.8757 32.9408
8.49387 15.3502 34.0245
19.5653 30.7236 38.9416
14.5028 23.5484 30.5176
13.9097 33.5285 62.0061
14.8723 24.7383 47.4371
21.95 33.5478 59.3284
19.7794 24.3661 32.906
13.8509 19.8434 30.9112
12.0591 19.1628 33.9109
18.6761 29.0114 43.6356
14.6302 23.4396 37.4223
11.7843 22.8466 45.8357
16.6324 24.3475 39.2879
12.4913 19.5449 33.071
14.0293 25.2192 45.9253
19.6386 34.7284 61.0891
14.9591 20.8286 33.4575
11.6363 17.2298 31.2318
15.2619 26.2258 43.9132
11.1795 17.6547 33.314
11.6084 19.6454 35.4281
15.3078 25.6481 43.886
18.6037 26.0712 35.947
14.6399 31.8775 54.3358
10.5065 17.8289 41.5993
15.4775 22.4046 33.7325
11.6031 19.4951 32.5616
14.6812 26.2162 49.5395
19.1336 30.0195 43.4125
14.3159 27.9955 53.0023
13.0165 22.7169 36.2998
14.5509 26.959 53.7796
17.4471 28.3927 49.7384
16.0619 27.7835 48.4685
12.3538 19.9714 35.0414
10.8887 19.9601 34.8206
9.46786 19.6078 47.2494
20.3047 30.8729 46.4457
11.6572 21.5113 36.8137
14.5914 30.7328 61.5246
19.2871 34.2342 55.8889
14.6395 24.9171 36.8214
5.76386 14.2405 36.6405
15.007 21.1484 33.4075
12.7513 26.5762 54.3522
13.9393 23.1014 46.1595
14.2724 25.3431 45.9746
14.0535 27.2445 46.7162
13.4024 22.0011 35.6531
6.501 16.3011 38.7337
13.1019 23.8041 46.7234
11.419 21.0794 44.1142
13.6505 23.6657 39.7333
10.8848 16.8904 31.6735
15.1055 33.7362 59.3058
15.4201 29.0576 52.7463
10.0553 18.8558 50.5519
13.3088 15.5401 22.9842
9.79291 17.5004 34.0996
17.7003 36.9341 64.5942
12.2658 15.6485 26.9852
11.1338 24.7301 46.2156
9.17014 14.4757 29.8103
16.1817 26.5088 36.6704
13.3749 29.9338 55.2227
12.3616 19.854 30.7811
11.2018 33.1559 75.7041
12.4106 15.3185 25.5389
13.9788 32.5566 69.665
13.777 21.5697 42.0962
14.5835 29.9004 60.5363
15.606 26.7133 44.1357
9.35532 15.7684 33.0484
10.4716 19.2114 35.921
12.4906 28.0168 47.585
13.3317 29.966 61.8866
14.3098 24.2272 43.3883
11.5799 26.0047 57.9262
19.5951 42.2127 83.8764
15.785 23.8867 41.1269
11.0709 23.5034 49.9301
11.4643 18.9479 33.8064
9.39014 19.3993 39.4706
10.7921 20.0556 42.7687
12.1777 23.9139 39.8433
6.46752 19.9201 52.4998
14.6895 26.7286 55.3964
13.6981 23.9998 42.5549
10.1483 16.9913 35.6217
10.4183 20.9548 37.0197
8.45329 18.3637 44.0021
12.9424 23.6414 49.0868
13.8287 25.0833 48.5722
11.7002 22.1521 40.7638
14.2554 33.0381 65.5695
11.8601 20.0595 41.3313
8.02341 15.5697 36.3944
10.4088 20.8898 50.647
13.4359 28.0752 59.084
11.9272 19.3272 35.7375
9.20701 19.445 43.967
10.1863 18.7953 41.8223
11.5043 19.4874 31.7437
9.44879 22.1671 41.6572
7.2497 13.939 34.8598
11.7262 24.9485 51.9269
14.49 29.6519 63.725
14.5787 26.583 43.751
8.35443 19.0769 50.5337
10.6169 16.7716 31.2728
7.80086 17.1619 35.3204
9.2273 19.7911 46.9024
10.7497 24.3033 57.7663
14.0961 32.0947 63.5074
8.22696 11.833 22.2031
7.77738 14.6314 32.7017
10.8952 23.3766 48.5189
8.93305 19.5546 41.5636
8.67736 13.8841 22.7421
9.86273 31.8427 72.1599
11.9136 24.4446 54.0001
13.201 24.0541 43.0927
7.68251 18.0333 42.0642
8.77634 23.8173 60.9059
9.20545 17.7854 46.175
10.7235 19.7425 41.0301
9.27761 18.7979 45.1195
11.3066 21.5645 38.8457
8.31842 21.8043 56.692
12.8109 27.0122 50.3793
8.89401 18.1135 48.3199
10.0457 18.5314 37.9814
12.3748 32.3236 77.8634
13.6112 23.9644 44.6125
9.10202 22.3379 61.9435
9.72725 14.3034 38.2907
11.4188 24.7733 41.0823
8.59077 19.6518 46.6163
13.1547 26.2728 46.4221
7.84374 19.2728 38.5124
8.91608 17.746 45.5415
12.7828 29.5526 54.8567
9.64044 24.4736 66.2599
11.6057 26.3173 61.6643
12.8352 27.3491 62.5285
13.1181 22.0869 32.0716
6.44116 20.8111 55.2236
10.454 23.1531 50.4508
8.46423 18.0445 49.2738
9.87388 19.3154 38.9504
8.01902 17.7842 37.0058
8.47524 22.3737 51.7642
8.50484 20.7478 65.0579
16.8095 36.4049 79.5234
23.027 65.1216 166.579
30.4474 60.3372 101.457
8.22773 16.4788 57.3957
18.5487 39.8093 75.8212
10.0533 22.7561 51.3684
8.34038 18.1847 37.4007
5.48217 15.1719 45.6469
10.7997 28.475 68.4815
9.90501 16.271 39.1212
9.98832 22.2225 43.0003
5.80109 14.6251 39.3323
5.59061 16.0694 51.4261
12.2284 25.5061 64.0834
11.0847 18.5531 40.1133
10.7559 18.1318 26.6716
5.64552 14.9488 38.7743
6.59301 19.0854 43.8795
8.23406 20.6031 51.7434
9.20625 18.6885 45.1873
9.37271 21.1638 49.7023
13.4195 33.8875 62.847
6.9502 19.5543 54.5647
8.77988 20.0758 47.931
10.3582 24.561 55.6447
8.8687 19.0427 45.8607
10.3198 25.3556 59.1639
8.93523 17.0427 42.1525
6.91132 17.4721 44.1744
6.77027 15.3685 31.5548
8.40171 19.3986 48.3201
8.61579 22.9138 45.9328
6.02824 13.6776 35.6546
7.58496 18.7843 40.3186
7.27678 15.2836 30.7427
6.4081 25.5747 78.8945
10.6856 24.5353 61.4673
10.6402 25.1441 65.0168
10.3496 23.7456 51.7016
7.80553 15.6555 38.3676
8.55674 21.9627 48.9861
5.99629 14.7332 39.2111
7.70748 22.4924 59.5985
8.98339 20.8975 52.4416
8.58355 20.841 56.3274
10.9828 32.2201 73.6672
8.58729 22.298 67.0253
7.79874 11.752 30.747
5.18865 10.8422 37.202
10.1248 20.8023 43.3863
7.91502 18.5422 45.8307
7.44892 18.104 43.7325
7.64733 16.323 35.6547
6.78718 18.6301 45.2853
9.0896 23.0926 51.5841
6.23802 15.5203 44.2697
8.73418 24.7284 61.4482
6.94925 13.3585 37.4648
7.34749 22.9856 64.5075
9.76392 19.8366 48.9157
7.00225 16.4819 44.4435
8.76581 23.1445 54.8806
5.87157 14.2009 40.4699
8.72805 19.98 44.1215
6.8649 15.6138 36.3061
8.96727 31.653 86.2314
11.1586 19.8014 41.6118
5.87822 17.5662 65.2732
10.5287 21.3759 52.6267
9.62685 22.099 48.7141
8.75185 20.0692 41.4518
5.20211 15.0998 51.7668
11.7544 27.8859 54.875
8.02024 22.8446 49.6784
6.39111 20.6237 61.8699
8.02491 23.1301 76.4734
10.9096 20.4301 40.0046
8.27749 26.0062 65.4525
8.50856 22.944 62.7888
7.53247 17.8979 50.5776
5.65055 12.3874 34.945
7.26222 14.6825 30.7282
5.48459 18.4829 53.487
7.51551 14.1948 31.6648
6.1834 21.5461 56.9573
6.47242 16.9462 52.551
9.94975 25.8053 74.7408
10.331 21.2956 55.6669
8.00101 22.9303 71.8932
10.2264 21.7902 48.8417
7.8349 23 67.3331
10.3071 25.8803 63.1303
7.83588 19.674 44.1852
6.15175 22.3028 67.897
8.68784 17.9956 46.9826
7.54672 19.3267 58.6864
9.50289 22.3418 45.3182
8.8886 27.3563 64.2776
6.27209 14.0023 42.1875
5.78206 12.9366 37.2949
6.3551 12.8481 33.4963
5.73924 17.3527 50.053
8.09516 22.2789 54.8027
8.30586 21.9711 64.1051
10.8451 33.589 64.2893
5.88111 19.3547 72.955
20.5086 80.0151 193.722
11.3449 18.6999 83.1465
12.3928 24.1277 51.7446
8.26304 26.3894 82.7324
9.90176 20.8487 55.1645
8.28509 23.8685 75.573
10.4227 28.9067 69.9889
6.62511 16.5278 64.4682
8.25129 21.2873 73.7943
9.86489 15.418 35.9193
7.34716 19.4215 45.4544
7.34994 23.2025 56.2948
5.91511 13.2149 40.5098
6.96094 20.6624 57.6914
7.21035 16.061 34.4936
6.5252 23.9029 58.5621
6.38443 21.6666 63.8796
4.45007 9.56685 41.8506
4.94305 14.6755 51.7239
7.92775 21.6129 69.0665
7.85296 18.4899 50.9261
7.10862 16.7993 51.7439
7.21203 18.1849 59.8248
10.0643 23.7315 44.4872
5.67674 20.9919 57.9227
6.31681 17.2352 64.0676
8.66674 23.0822 59.6339
7.93572 25.6712 82.9563
10.4356 19.4216 35.2884
6.18049 21.5363 56.84
6.71038 18.5084 44.246
4.35174 13.3536 39.6015
4.2318 11.7599 45.6641
7.46291 21.8478 47.8534
4.93661 18.1468 64.1293
6.35497 16.7439 49.8733
4.70398 10.0757 41.515
7.20463 17.7142 56.3576
8.82888 25.4707 55.1281
4.77167 13.5857 56.5643
8.23243 19.7739 60.9841
7.5905 17.8592 37.838
6.31003 20.96 50.3226
5.22751 17.1838 56.3287
6.49072 18.5189 48.8408
4.39269 14.6274 52.0862
7.22354 16.377 39.5923
5.05961 18.8602 61.1477
5.93581 17.3588 49.7058
5.98645 19.9773 66.33
8.12576 19.5246 45.9884
4.8661 19.958 67.8385
6.96054 10.7405 41.54
7.68011 23.8128 63.0904
6.12661 21.7245 107.452
15.0873 30.4271 44.9298
5.0266 19.5795 59.226
7.09709 19.15 48.8566
3.32185 8.12507 24.7493
4.6736 23.9441 83.244
8.28489 21.9981 64.2122
6.67315 16.3024 53.7066
6.60954 14.3804 32.8124
4.83938 17.0518 52.3372
5.73329 18.0965 49.775
4.13852 13.1628 87.313
11.6293 34.6718 92.3785
9.65254 24.5114 68.6113
8.59317 17.279 49.7774
10.6427 45.8529 139.291
12.0603 23.3525 69.9874
11.0685 33.3815 69.6208
4.87876 14.6814 49.9024
5.34057 16.3711 53.4905
5.90989 14.838 53.6679
7.51592 23.5775 52.4941
4.78012 15.5292 58.1684
7.7604 23.5622 58.3555
4.80457 16.4642 55.2245
6.37194 16.9422 46.6622
5.22259 19.0222 67.7312
7.1623 16.9463 57.9269
7.49349 15.9589 51.0957
7.2228 25.3502 70.5184
6.48882 19.0659 55.2544
4.99813 8.82977 30.3074
4.06631 11.1329 38.3131
4.2029 12.8527 48.6821
7.403 25.0198 58.9858
4.71692 8.31785 31.1015
5.22832 18.6951 50.0036
4.87565 17.9444 58.9791
5.39877 16.2471 51.862
4.40894 11.294 36.4902
4.42939 9.39856 35.8373
4.09023 14.7292 54.5904
7.51839 22.8741 53.5665
4.30888 10.5356 38.2334
4.12716 12.619 35.9545
3.9647 11.7414 35.9032
3.59493 14.7663 57.9036
6.17974 14.6854 51.5487
7.46607 28.243 68.7253
4.49661 12.5858 46.0627
4.59159 17.5954 78.1304
8.23147 17.2516 55.119
6.28955 20.3233 58.8306
6.52191 19.7837 63.0212
6.39922 15.6964 43.8868
6.00869 18.549 43.9645
3.96218 16.0673 50.6198
5.19687 14.7544 45.3106
5.36035 17.8101 55.134
5.81651 14.9318 37.4417
2.97274 11.7067 45.2445
4.79383 15.3885 67.0825
8.13003 22.7158 59.0887
6.17127 18.8599 67.8803
7.53623 21.9311 62.1757
5.29244 13.569 45.0934
5.75612 22.4025 66.0106
5.37216 11.7473 37.9867
5.50732 22.7065 57.0441
4.05937 11.4132 34.4481
3.78492 14.4439 43.1787
4.61622 23.6883 100.722
8.89748 23.2355 66.5153
6.43988 16.1854 57.0787
6.77979 20.099 65.3651
5.95155 14.1903 38.2518
5.68331 21.915 55.5901
4.693 15.8917 61.1476
5.62285 15.6458 59.8089
6.25293 20.6319 54.4978
3.51668 12.0907 52.0901
5.10006 13.0965 62.8708
7.95037 19.3506 48.8107
6.1331 21.5425 57.0753
4.52815 12.9538 36.3098
4.34682 21.4792 67.3895
5.98772 14.7605 47.0303
5.21158 19.6982 47.7943
2.73104 10.2167 45.5145
4.92432 14.549 39.67
4.3403 27.0722 110.792
8.09314 11.1707 37.4226
5.50941 17.3273 52.4793
4.88125 15.8394 56.0572
6.17425 16.8424 44.5796
4.7937 16.5276 52.5846
5.08653 15.5005 40.9407
3.23281 14.8611 59.2873
5.70944 20.0533 64.5003
4.86844 13.8577 51.3717
4.69072 16.6578 56.5472
4.93924 11.6464 57.6131
6.99119 24.2174 65.1062
4.22555 13.6327 69.0999
8.25506 29.3729 76.2161
5.35963 12.7752 28.8006
2.92983 15.0403 58.0158
5.10425 13.3631 50.6226
5.41331 21.6596 85.45
7.18711 23.6936 58.1694
4.81242 13.0085 56.0476
6.2233 24.5382 72.4854
6.77126 21.3595 61.3962
4.77217 14.1975 47.9246
4.02534 10.46 33.9698
3.8074 13.7192 50.9668
5.63051 20.0025 46.1833
3.04188 14.6567 75.9253
6.88234 23.1497 70.4586
5.36305 11.3911 59.9215
7.50678 17.6655 40.1898
3.83593 18.4518 65.2728
5.20416 22.047 69.3279
5.03188 16.4067 75.6107
6.14729 16.4684 51.1005
4.76223 12.5813 36.0725
3.88658 14.1554 69.5527
7.38482 23.759 56.7927
4.00984 13.5099 47.7164
3.72379 8.38218 36.2489
4.42911 14.4028 46.1367
5.0957 21.2788 68.4442
4.61989 17.2354 56.7834
5.01266 17.8478 70.5144
6.14271 19.5157 58.0714
4.00514 10.3586 43.7773
4.36283 11.8628 47.4084
5.4412 19.1593 59.8317
4.77159 17.6748 54.4862
3.91774 11.6627 39.1977
3.51492 11.5235 61.583
7.25702 19.4423 48.5339
4.81427 18.1293 60.3982
4.49925 14.9273 48.2734
4.17739 15.5006 46.135
3.46034 12.4501 62.9838
5.59919 14.4957 42.7424
4.9353 17.6312 58.3548
5.97367 21.2961 59.407
4.43627 17.6068 59.5363
4.18552 14.4229 62.206
6.67442 18.7652 54.5677
4.36097 11.6585 40.5741
2.89211 10.9432 56.8138
5.59209 17.3668 59.7977
5.16186 12.9459 47.9105
4.76371 16.3286 40.4793
3.01637 10.9096 43.0841
3.97843 14.6597 59.3905
5.24056 14.6873 52.0589
4.17305 13.5386 59.0085
5.25371 14.5871 52.0895
5.02303 15.3694 50.381
4.53625 15.3659 48.9981
4.65047 17.8138 52.9522
3.40783 17.9817 76.9653
5.01706 12.9664 61.3288
6.97022 17.4892 66.3215
7.26318 21.2801 73.2836
7.61554 20.8849 54.047
4.09624 15.1741 69.9697
6.29272 14.6954 34.2815
3.94484 17.9605 47.8808
3.28362 15.4146 79.8115
7.0385 21.8555 45.0758
4.14499 18.3823 67.5144
5.08583 12.0881 35.2113
3.61557 19.2112 63.2592
4.43707 9.88993 39.3008
3.71989 17.2751 53.4925
3.5779 14.1966 34.7789
3.25922 22.2439 86.4022
6.35126 20.9507 83.8424
6.69193 17.1868 81.304
6.47176 12.6976 43.7646
4.1415 11.7605 40.1056
2.85224 15.786 58.6866
4.12489 16.4771 57.656
5.04918 14.6568 39.5381
2.67624 9.54236 51.0803
5.09362 17.5854 65.3234
4.90344 16.8437 62.58
5.23609 15.7665 48.3347
3.42361 11.9609 42.1985
3.55573 12.4835 39.4541
3.35635 12.8097 42.9662
3.41293 13.7536 60.5538
4.55691 9.07866 40.153
4.08794 20.4386 60.0508
3.39966 14.9233 61.2913
4.83076 16.1263 49.8359
4.12315 19.2854 71.9213
5.83189 18.4908 52.951
3.35886 15.446 74.4167
4.75538 11.7589 52.3647
4.66535 21.4698 86.3244
6.30419 12.7275 41.9361
4.12785 14.4082 48.2052
4.37 19.5035 57.4153
4.07862 14.1628 52.5435
3.81788 11.3095 50.7871
4.61619 16.3676 56.6213
5.10534 15.8894 29.6941
2.84388 14.178 55.4043
3.2996 10.2252 38.3193
2.67042 8.0369 41.8353
3.6619 15.6263 65.0313
5.89984 20.3887 68.5931
4.79893 15.0623 43.4547
3.17049 10.5677 47.3916
4.14908 15.2592 61.4915
4.22366 20.2462 89.711
6.33808 18.0162 59.7296
4.84824 11.3681 25.3195
2.49483 16.966 72.1162
5.65982 20.1529 55.4805
3.75469 16.4248 58.8442
4.13421 14.6064 59.1946
4.57165 13.3814 79.3424
6.51856 11.6135 36.1983
3.17946 11.7453 41.3166
3.75161 14.7625 46.4407
3.97999 19.4302 70.6195
4.30987 12.4287 80.8187
7.35365 25.3995 75.5812
5.60515 17.7114 42.7948
2.78276 10.9737 54.6784
3.9157 13.8189 59.4629
5.4879 22.2626 58.1382
4.40699 19.6641 89.6457
6.81832 19.0958 55.7865
4.20548 20.7325 125.346
9.38873 26.0567 50.5196
3.47614 12.4087 61.4403
5.22099 16.1495 42.8238
4.35512 15.3972 47.0499
2.90127 8.4099 30.8674
2.02831 11.6143 44.4999
3.17105 5.84613 26.0876
2.05884 8.84711 43.6744
3.70609 10.0504 40.8514
3.30464 11.0249 46.9172
4.5179 19.2538 58.6139
3.61905 12.4127 52.2603
4.37675 10.8697 48.7299
4.35738 19.5882 67.3265
5.15417 17.9499 58.127
4.1564 13.4215 46.4165
3.38867 10.8124 39.342
3.39194 13.6228 43.9699
3.54205 16.6683 71.4626
4.98729 16.1939 50.9372
3.23435 7.25273 44.6588
3.92916 10.2137 33.5371
3.22863 18.0422 55.7219
2.82087 8.84464 51.6713
3.18946 11.1032 111.947
8.70325 17.4679 42.0823
3.7989 17.2913 98.602
8.02083 23.3338 58.3971
5.20604 37.323 253.254
17.8105 44.9445 99.0548
7.8863 46.5668 124.201
7.26356 13.4015 40.4356
3.7333 18.4204 62.8134
4.21673 13.3509 51.3772
3.09364 10.9673 33.443
2.18791 12.9225 78.3869
5.27385 15.7828 47.0365
3.22023 15.0327 56.2934
3.75255 13.7384 48.6467
3.51982 15.8847 56.6484
3.87089 10.2977 44.4902
3.43144 11.7206 38.6231
2.93837 12.9314 37.5142
2.64687 9.22364 49.3982
4.35456 14.8368 54.4341
4.38772 14.5057 66.9114
6.04785 20.253 71.6235
6.37097 21.4342 111.941
10.3972 51.697 183.568
11.4398 17.7062 62.98
5.90714 23.8072 53.7319
3.97257 17.37 72.1531
5.98866 25.0011 82.2815
5.79401 15.5323 49.1903
3.49748 14.368 78.5456
5.49553 15.7125 44.0192
3.63437 22.4192 50.4842
2.629 10.9014 64.8556
4.70969 14.7971 39.9196
2.72162 13.4231 77.204
4.88045 14.3257 66.0247
5.72407 18.3066 52.7441
3.56063 11.279 50.6847
2.88404 13.7237 48.3656
3.53374 13.162 57.744
4.59527 23.9228 79.1992
5.38544 11.9264 42.3455
2.70903 9.37586 54.2935
4.37382 18.4969 50.1202
2.96097 12.4645 71.9962
5.64528 25.8844 79.303
4.3615 12.1391 50.3439
3.40084 9.72238 41.9325
3.17083 13.7271 73.3446
5.44174 13.6869 59.2585
4.62795 17.988 37.5201
2.4334 12.1681 44.924
3.34863 11.129 30.9051
2.11741 12.0944 74.2856
5.59807 14.0375 39.5916
2.96677 15.7584 63.6471
3.15545 11.7545 62.0918
4.10652 17.2092 55.9722
4.03871 12.2156 66.0201
5.05106 13.1917 38.6262
3.10144 14.461 43.703
3.0567 12.5795 54.7722
3.62805 11.095 30.4683
2.18354 12.0882 53.2747
4.04057 17.7489 68.0798
4.10592 9.43339 42.2471
2.83942 10.6255 50.5004
3.46885 14.4571 49.9075
3.82865 12.8779 43.0196
3.31984 9.49641 37.3043
3.36192 11.6001 35.2192
2.34968 10.6108 38.5372
2.99608 11.1494 73.4081
5.07885 21.0169 47.8112
2.84387 7.11807 43.7697
3.43465 13.8806 48.8239
3.3333 13.533 50.0053
2.91753 13.0494 51.9182
3.99457 18.2643 65.9879
4.42664 14.2748 83.2832
5.65744 17.8541 59.1255
3.82778 16.8342 66.5144
4.52073 15.2641 59.3402
4.06116 13.7268 43.398
3.78733 15.1155 44.7391
2.93759 14.4616 57.9698
3.36636 17.0067 59.3026
3.44815 11.2003 49.1863
3.79478 12.4823 38.4866
2.56132 14.0793 80.1301
4.82152 15.4553 66.692
5.00989 11.4863 35.4396
2.93225 10.7243 54.6625
4.05244 17.0413 47.5861
2.66964 12.3704 52.0877
3.87173 14.0914 58.294
4.29715 15.8617 49.1553
3.16401 15.9224 54.0214
3.76136 15.0158 61.3871
3.64076 11.2893 41.4826
3.01546 7.14711 35.2319
2.28134 14.0015 69.3113
5.17104 14.4281 32.4636
2.46209 11.7762 48.3158
3.86563 17.2042 73.5929
4.53295 17.2103 78.3174
4.94874 15.7843 54.5726
3.72053 16.5439 106.441
6.95769 19.8364 43.1181
3.15397 11.5662 25.9293
1.97807 10.5259 51.7847
3.39758 11.954 45.8563
3.2833 13.0948 41.411
3.1361 15.0369 48.0331
3.03332 12.6957 52.6024
3.17052 15.9638 83.9145
5.57739 17.1833 61.0604
4.19198 15.0117 72.791
5.68134 15.686 49.7327
4.13403 11.0744 48.4613
3.38048 10.7378 50.4742
3.62409 14.7658 45.5954
2.70768 13.8476 87.62
5.94008 21.4824 48.8045
3.09126 14.7002 81.764
5.46461 14.1896 45.0264
3.35746 20.3012 90.6678
5.702 16.8771 51.6419
4.47215 16.6922 72.1298
4.75622 14.5249 55.3947
4.2266 11.5512 34.8078
2.94215 20.1778 69.6675
4.40718 12.3742 59.3685
4.29566 15.5392 57.1319
4.38767 13.0837 38.1789
2.35948 10.5953 49.3063
4.13974 15.8506 64.1047
3.85476 16.2657 56.3053
3.3377 10.7568 47.9433
3.37503 14.6438 53.0227
2.92837 7.47846 27.7596
1.74931 10.9206 31.9582
2.08278 10.0023 40.3232
2.42616 10.2632 49.0802
2.99365 14.6574 62.6402
3.68971 18.7631 71.6144
4.88539 13.2757 64.6834
3.85404 16.9898 59.9741
4.0105 10.1371 43.7154
2.90447 12.6737 59.731
3.83052 13.374 51.6686
3.97549 11.6307 66.2608
3.96183 16.0833 57.5249
3.97114 10.4189 44.3357
2.95003 15.8934 68.6197
4.71956 10.543 54.2255
3.42565 12.3155 44.815
3.27133 17.7696 66.9961
4.21104 12.0357 49.3551
3.2059 19.4779 70.0408
4.41333 13.1942 35.5866
2.81689 11.5651 47.6691
3.61616 16.9246 53.1128
3.43141 9.37531 42.8546
2.50761 12.5969 48.0244
3.37985 8.7218 37.535
2.80908 10.2087 48.8473
3.25045 13.4156 65.1351
3.94423 13.3044 42.1846
2.82457 14.024 39.5637
2.65551 12.7367 41.0643
2.77878 14.3761 75.4217
4.87661 12.7284 59.5984
4.07311 12.5091 70.3727
5.14716 15.3522 25.2209
1.77224 7.30206 39.7671
3.14705 11.1798 43.7718
2.98191 11.9609 39.1968
3.18249 11.1433 57.4907
3.64345 8.16903 36.8791
3.07062 11.9857 37.8889
3.10717 11.4704 57.9788
3.78557 16.0268 54.5352
3.76036 16.87 67.5713
4.31819 14.527 79.4958
5.4914 15.9892 53.3999
3.71898 17.0702 54.0755
3.3767 12.3316 48.2603
3.01319 13.9936 58.458
4.58613 14.3046 61.7737
4.4347 14.5555 52.4292
3.32654 14.7183 66.435
5.01902 13.6224 66.4527
4.59089 17.9985 61.6604
3.67546 10.7217 36.8923
2.52004 10.6168 61.0998
4.32084 13.9561 42.4469
3.21361 7.82858 40.3885
3.16929 16.0156 59.9897
4.43682 13.245 48.5831
3.24294 9.88122 29.6667
2.17801 10.7314 41.2361
2.46029 13.7712 81.1862
5.40616 15.6631 58.8385
3.85074 20.0322 62.178
3.87512 7.78161 30.6429
1.81064 15.434 38.8846
2.58116 8.66901 55.8287
4.42354 11.5244 48.9597
3.60193 18.6812 65.595
4.14999 15.0914 66.8297
4.44246 13.7109 37.2863
2.25411 11.6014 33.3786
2.52175 17.5602 91.7651
5.73706 18.0271 55.103
3.45242 10.5306 92.3664
5.88954 18.3068 35.1265
2.75678 15.9031 52.9157
3.48632 13.1769 37.181
2.22028 11.4216 47.9486
3.00389 8.84914 80.2349
4.80897 17.9415 44.2336
3.83968 14.5158 70.8224
4.17908 11.9455 52.1871
3.32123 14.7061 33.094
2.22095 0 0