# pn-170911/RbIIR-48-WTZR-1280-1959.psd
# Power spectrum* (dif=0,1,2) (really just |FT|^2)
# NOTE: only the first half! (symmetric)
# weeks: 1280-1959
# 19 clock-days, 0 excluded
# PSD: 1441
512.944 0.0518004 0.0375967
13719.5 0.235847 0.0673386
93575.8 2.2431 0.1172
14454.2 0.483391 0.0966899
27630 2.34345 0.0901537
6913.21 0.622297 0.0928685
3553.72 0.460056 0.159189
1989.06 0.395745 0.135791
2567.72 0.772951 0.12561
1325.73 0.302634 0.0751946
1523.86 0.605905 0.125499
1055.82 0.492585 0.108799
989.582 0.582173 0.0531072
902.089 0.504234 0.210072
627.977 0.523546 0.101867
681.532 0.391049 0.132231
652.591 0.589441 0.120308
548.21 0.599458 0.0779894
620.127 0.820821 0.0938531
607.007 0.897436 0.153349
436.119 0.865356 0.117972
474.615 0.711342 0.151844
329.363 0.518439 0.129346
338.09 0.79228 0.11334
482.061 1.06091 0.101092
327.271 0.749123 0.0931326
334.865 0.864101 0.136137
299.67 0.870734 0.132681
342.115 1.13894 0.188635
347.701 1.16696 0.130116
321.059 1.16609 0.0682666
358.91 1.37185 0.172552
246.315 0.883 0.102924
327.129 1.42474 0.0958563
184.997 1.10733 0.187889
345.989 1.9018 0.123142
198.842 1.15727 0.135097
212.539 1.2373 0.148359
302.511 1.76776 0.0838707
195.417 1.02875 0.122607
340.467 2.20466 0.137196
244.571 1.74282 0.153335
261.048 2.17536 0.199425
168.414 1.55589 0.10423
230.508 1.87169 0.169772
273.147 2.24358 0.128151
357.989 3.10486 0.103814
341.218 3.24776 0.155543
197.763 2.11043 0.204864
256.079 2.56281 0.169761
210.11 2.44935 0.203032
210.548 2.76496 0.152029
197.67 2.46146 0.127107
211.147 2.67925 0.11588
157.882 2.107 0.163985
200.079 2.87002 0.231169
158.683 2.18018 0.0969169
221.571 3.3366 0.262416
255.751 4.42876 0.117844
177.143 2.93776 0.140593
169.258 2.79841 0.165006
288.936 4.8453 0.222634
196.379 3.32534 0.209716
178.295 3.54024 0.238795
186.254 4.07692 0.19527
259.495 4.77604 0.313007
133.575 2.80139 0.119362
227.296 4.3644 0.186162
150.862 3.09111 0.284741
175.328 3.15645 0.139302
152.04 3.52547 0.242708
151.852 3.5514 0.169544
156.779 3.62531 0.165411
160.185 3.41981 0.137523
215.571 5.76527 0.267022
204.998 5.46858 0.228587
112.276 3.05474 0.284308
219.116 5.64348 0.294208
127.468 3.62357 0.248569
114.16 3.43724 0.162633
207.252 6.49101 0.254814
140.587 4.24468 0.299738
197.231 6.67673 0.311459
123.618 4.06613 0.34049
210.767 6.82699 0.277438
158.573 5.37327 0.274782
183.891 6.24897 0.468027
223.637 7.55881 0.263924
241.25 9.0577 0.400087
141.063 5.03635 0.316764
177.532 6.21685 0.387937
158.037 6.71267 0.401375
170.708 7.0072 0.397373
219.158 8.67413 0.51518
131.353 5.67956 0.267102
156.972 6.02631 0.395272
271.64 10.326 0.503031
196.64 8.84408 0.475864
229.24 10.4083 0.397729
198.312 8.89001 0.538132
185.302 8.30736 0.396114
162.249 7.82122 0.421709
95.0231 4.78377 0.227456
210.477 10.6842 0.598474
193.674 9.91615 0.60386
221.66 10.642 0.6125
157.893 8.02054 0.545893
155.017 9.17093 0.787555
131.202 6.77077 0.41738
166.293 8.88347 0.625675
157.159 7.86055 0.537584
102.772 6.29305 0.387236
92.6194 5.76475 0.613185
188.621 10.354 0.608462
177.371 10.816 0.750745
128.308 8.08763 0.552765
217.305 13.5634 0.912082
142.043 9.12594 0.627364
136.209 8.81795 0.742224
137.205 9.14239 0.716582
307.179 19.4801 1.63723
103.942 7.23348 0.621616
113.252 8.42062 0.749087
118.164 7.95109 0.689198
92.547 7.11543 0.714027
143.291 10.2439 0.886988
110.859 8.23647 0.710301
103.452 7.10843 0.55831
168.195 13.4754 1.05571
155.199 11.8099 1.05148
182.196 15.8603 1.6238
103.689 7.90769 0.745058
113.935 9.99129 0.859738
171.597 13.475 1.19815
114.615 9.8693 0.82241
111.021 10.1434 1.03052
97.5248 8.3067 0.82497
120.291 10.4883 1.05921
101.603 9.23063 1.01316
151.709 13.2266 1.15582
119.903 10.8443 1.00154
125.715 11.1581 1.23618
127.544 11.6528 1.19675
82.9348 8.24883 0.983522
109.636 10.4377 1.22256
136.313 12.5825 1.23729
142.585 14.2581 1.57502
113.701 10.8718 1.1181
175.951 16.3753 1.83377
128.358 14.5609 1.59187
143.814 15.7998 1.91415
138.05 13.7268 1.28829
181.759 19.1905 2.16616
185.525 21.5079 2.36067
104.496 11.2447 1.22448
136.437 15.2747 1.77857
98.8079 11.2541 1.26068
129.832 14.7343 1.59327
113.413 13.6532 1.59203
112.803 13.433 1.69379
135.572 15.7295 2.27179
133.199 15.2169 1.78776
116.973 15.3311 2.05118
102.569 11.892 1.41666
137.142 17.6445 2.3087
125.889 16.1417 2.17167
88.154 10.8407 1.38095
101.988 13.3966 1.92719
81.546 11.8687 1.62409
90.1551 11.6798 1.6248
79.345 10.8904 1.57844
107.321 14.2203 1.94931
133.758 18.3664 2.98542
137.505 18.1895 2.43599
131.556 18.4971 2.89062
118.01 17.3685 2.12477
105.064 14.9428 2.17387
100.704 13.2179 1.8326
114.195 16.6014 2.47924
112.317 18.2907 2.63883
81.804 13.2125 2.14543
138.257 20.3637 3.08645
124.454 18.9033 3.04811
78.4675 12.2239 1.72111
122.263 19.5228 3.49399
88.3655 13.2448 1.81492
87.2372 14.3869 2.70033
88.111 13.8002 2.34362
100.972 17.3566 3.17514
89.1528 16.4889 2.96558
89.3729 14.9375 2.81845
109.308 20.1821 3.50012
137.379 23.6316 4.02402
94.2504 16.0645 2.67575
86.1597 17.4111 3.15674
129.967 23.6507 4.2633
63.3808 11.1304 2.04487
59.2901 10.6258 1.91401
72.7968 14.3683 2.53299
88.9674 16.3435 3.06598
84.9363 16.3793 3.16039
64.2681 11.7779 2.42198
86.7897 16.6765 3.4128
118.458 21.9776 3.68756
82.7732 17.9819 3.8243
97.5527 18.2226 3.70543
85.4373 17.3108 3.19397
99.4399 20.4574 4.27199
126.827 25.4591 5.04962
72.7156 14.7452 2.92076
74.474 13.3342 2.64294
87.8196 19.4118 4.14539
119.273 23.9224 5.00238
96.9171 19.2346 4.26736
78.8976 18.2392 4.16442
66.6895 14.335 3.26253
64.4583 12.8598 2.76501
96.6986 19.951 4.50525
83.7375 18.3411 3.76814
71.8568 16.5 3.54957
63.5535 14.4691 3.48739
46.7541 11.831 3.06082
66.7829 14.1661 3.26838
84.3155 18.4774 4.17355
86.4882 19.7918 4.12347
75.4201 17.4953 4.33866
67.8528 17.5313 3.87334
63.7274 15.3166 3.87916
82.5121 18.4531 4.46569
96.7935 23.3379 5.24242
62.81 15.8468 3.93382
89.177 21.6923 5.36719
66.8068 18.0221 4.73832
71.8865 16.507 3.73591
83.4641 22.7795 6.426
91.8182 22.0391 5.39473
110.453 29.6985 7.74149
50.5478 14.3941 4.28892
44.5755 11.6012 2.81586
73.103 18.4614 4.38862
74.943 20.0206 5.39547
74.047 18.487 4.64256
54.1469 15.0752 4.17801
90.8871 24.9934 7.09732
91.5959 22.6855 5.35047
75.1992 21.6977 6.2602
76.8768 22.1922 6.38716
75.7658 20.7732 6.07284
81.1371 23.5279 6.6399
56.4571 18.1404 5.33217
73.5908 20.5804 6.09565
73.4386 21.8732 7.00912
88.1275 27.7228 8.65398
85.575 23.7616 6.66234
83.8276 24.1453 7.23109
75.4604 21.786 6.50489
48.2264 14.6586 4.86652
72.447 20.1614 5.73349
56.4838 17.5521 5.70203
69.9036 20.7647 6.34362
44.69 15.0836 5.07317
81.8397 25.7335 7.15657
85.325 27.7069 9.07962
73.8321 23.1051 7.3788
62.8478 21.2879 7.15659
55.204 16.6646 5.52574
45.3339 13.246 4.41747
49.7651 15.3105 5.02167
79.7348 24.9507 7.35966
71.7872 24.6471 8.56409
83.2483 28.6554 8.90425
38.5771 13.3691 4.71601
77.5758 25.031 8.55947
78.1043 28.1409 10.6402
52.6191 17.2438 5.7631
46.2978 16.9944 6.65176
69.1529 23.3082 7.55002
46.7079 17.4209 6.7681
77.6265 27.4621 9.28147
44.0911 16.3512 5.58357
49.0798 18.687 7.60201
39.9676 13.5568 5.51755
82.6005 29.4826 11.1264
61.685 21.3764 7.89948
85.1505 31.412 11.5263
59.3173 20.9563 7.59792
41.9468 17.2889 7.32968
50.7792 19.0818 8.66131
136.471 49.0639 16.2006
84.4295 37.4584 16.3552
55.6555 20.8619 7.34068
43.6521 16.8135 6.68076
40.9072 16.5622 6.51321
45.6805 20.3117 8.43613
32.17 12.6391 5.28228
76.2419 30.7656 12.0399
82.6147 33.7777 13.6709
48.1058 18.0702 7.21524
40.8096 16.4936 6.85835
41.631 18.4264 7.90709
59.313 22.8067 8.56895
47.5357 22.3735 9.5409
42.0509 18.7138 8.25016
40.0597 16.4101 6.82622
53.131 21.8292 9.45955
43.9603 17.6779 7.48339
54.867 25.3482 11.1427
43.6323 19.9104 9.82896
52.5298 18.5618 6.2929
41.9903 19.379 9.16771
59.5158 24.5446 9.55139
58.3344 27.4192 12.0492
62.3275 27.1728 11.3489
39.238 16.5711 7.14727
48.9679 22.9747 10.8626
46.991 21.3425 10.1784
47.6325 22.4115 10.6822
46.5444 19.7292 9.00502
32.6606 14.1096 6.69662
69.8653 31.2262 12.7049
44.9752 22.2498 10.6617
71.4415 32.5425 13.9484
52.0772 25.5686 12.5487
50.3628 23.478 10.9639
32.281 18.2282 10.2429
42.9851 21.3266 10.9813
68.6972 28.7965 12.3358
53.6343 28.5025 14.5344
38.6473 17.4318 8.1978
47.0541 25.2189 12.005
41.7527 20.608 10.4518
36.3333 17.2437 8.47027
37.8065 17.7263 8.46533
33.1208 17.0566 9.22745
40.8304 21.037 11.1912
41.7304 22.8061 12.1673
42.4599 21.9889 11.8768
57.8112 27.0537 12.3829
55.788 30.7987 15.6604
42.5118 21.4679 11.5875
38.7782 22.6144 13.4365
66.2316 31.287 15.8596
45.8129 21.3417 10.8471
59.5519 32.9286 17.881
51.0182 26.1947 13.4835
37.2506 21.4341 11.5496
40.7367 22.5106 13.325
55.8446 30.237 15.7258
33.6894 18.3285 11.1392
38.5307 17.5578 8.41505
32.4826 19.8052 11.1575
32.469 16.4077 8.8157
47.1589 25.2758 12.793
32.3228 19.8239 11.8233
24.5234 14.4467 9.95893
40.4705 21.8452 11.2013
32.1869 19.0016 10.8847
47.7379 26.9125 14.1849
31.7894 19.3451 12.3301
59.9363 34.4846 18.2506
33.2097 19.7778 11.6898
37.5585 21.8136 12.5069
33.7763 20.5454 11.8657
33.6934 18.0622 10.3036
32.0045 19.796 11.842
39.9538 23.3515 13.4917
15.2078 9.89254 6.85942
39.0224 24.1564 15.3823
43.6031 27.3547 18.1739
44.1159 25.9001 15.7882
37.087 20.6769 11.716
30.4472 20.2043 14.5318
34.9863 17.0558 8.6815
50.8908 35.363 22.687
42.8433 26.4142 16.7582
40.959 23.6475 13.5835
39.6557 24.6322 15.8056
43.9633 27.159 17.8432
40.0831 24.7638 15.3392
45.5468 32.2367 22.0265
39.0377 22.2446 13.9678
48.3239 32.3732 20.7782
37.4875 26.619 19.432
40.2182 28.2046 19.7423
52.0028 30.742 18.2841
35.7849 20.8579 13.2225
32.9746 22.0202 14.6384
38.3861 25.3151 17.3636
48.4776 34.0831 23.5304
30.8426 20.5436 15.0146
48.5486 31.7498 21.0774
22.7686 14.8288 11.8609
50.3399 33.9511 22.3443
40.6682 26.8142 18.7138
53.4526 36.3336 23.8717
42.6141 26.5932 17.6494
39.8823 31.2677 21.6009
26.8545 21.934 18.8779
40.3023 24.8702 16.4061
39.7629 26.6756 17.0405
30.2764 24.4815 19.757
32.9826 22.5941 15.6643
35.0633 24.7075 17.1255
31.2548 21.3008 15.54
40.3339 33.0201 24.977
41.9454 28.1378 18.5435
38.7386 27.4335 19.6673
38.3261 30.8383 23.6152
32.9999 20.7698 14.7881
43.4445 32.16 22.6672
39.904 32.5748 23.9686
32.8317 27.2608 21.7754
46.0008 33.0499 24.3738
34.3338 25.9435 21.8221
51.2542 37.0683 25.8664
25.205 17.5625 12.4834
45.5847 34.9334 24.8358
30.7131 25.4938 19.8249
24.3691 18.9724 15.2785
33.8818 27.3088 19.8358
34.7106 27.9366 21.6173
28.3967 21.897 18.0486
45.252 38.3865 31.4912
32.7309 23.8755 19.2209
26.3997 17.2072 12.1022
38.8714 31.5459 25.0313
27.2684 22.2218 16.6451
26.8408 24.936 21.5235
27.9535 23.3576 20.072
29.8928 22.1151 18.3688
24.7165 16.2636 11.375
28.1968 26.8691 24.6224
28.8033 22.3537 17.5947
34.4672 29.7726 24.3329
25.921 19.8922 17.2941
39.091 37.9296 33.5158
31.3753 19.904 14.4745
34.1035 27.0843 22.1863
38.5143 34.8942 30.5739
21.8848 18.5504 18.3326
44.2318 35.5786 28.8413
32.1248 24.4708 18.6474
33.9946 28.2631 22.5337
20.74 16.1239 13.3338
32.2655 29.7592 25.6236
29.7134 24.631 18.7696
19.6654 21.2545 22.2024
17.7519 17.2135 18.7938
45.3813 38.3717 33.0615
30.9016 21.7905 15.6832
21.791 23.2771 23.3526
28.9251 24.0027 20.2301
19.1337 16.5463 13.8906
21.8192 18.9919 16.3569
20.1391 18.1176 19.05
37.6681 31.6911 24.7255
27.7366 28.4068 25.9894
30.2431 28.3029 26.2476
28.1276 23.9538 20.5055
25.0461 27.9953 30.1267
26.377 22.4876 21.8425
32.0733 28.8779 27.3578
26.59 21.7686 18.4038
21.2042 18.2183 16.8112
22.9034 20.8305 18.479
28.749 28.7227 27.7609
26.5522 24.0439 23.7227
26.9524 22.1539 19.7696
25.6428 23.7165 21.3228
27.7026 25.6077 22.1391
24.8319 25.6234 25.1836
25.9922 26.7123 28.4723
25.0061 24.3893 25.7323
25.2807 21.5404 19.2217
25.5312 25.2484 24.9216
31.6743 30.1054 25.7706
18.4307 19.0323 20.7278
24.5812 23.5818 23.6933
21.7032 20.3205 19.6199
34.2109 38.5736 40.8599
29.5 24.9433 21.8855
20.0742 19.42 19.0828
17.5647 17.5598 18.7811
22.7191 23.3719 23.9296
25.5327 24.2912 24.0168
32.1331 34.4203 33.6022
19.9212 21.0752 24.1234
32.945 36.1341 37.2324
23.8761 21.9688 23.3182
31.6598 28.4323 25.686
30.1845 31.404 32.6039
25.9087 24.8433 24.3942
27.8871 30.7188 33.1092
24.7263 23.2785 24.4203
37.6618 40.3105 39.5263
23.1383 24.0048 23.725
19.2758 22.0753 25.0657
21.0766 21.0544 21.4725
27.7346 30.4363 34.453
15.8018 12.0445 12.2613
33.7404 38.382 38.9163
23.9152 28.7035 32.9419
19.8905 21.6432 25.0591
17.2887 17.2435 19.6564
22.1563 26.4932 30.8097
20.8287 22.8619 25.4576
28.8848 29.7098 32.0901
31.7975 37.1476 39.6855
17.4692 17.4127 19.8811
17.2396 19.0014 20.2298
19.0017 25.6622 31.5286
22.0703 22.7495 26.6261
14.1213 15.0419 18.5533
26.761 34.0412 42.5264
25.0861 24.3015 24.9158
25.2947 28.8408 30.8733
17.5544 21.6133 27.292
24.8118 25.8454 27.803
18.2487 19.297 22.044
28.9934 33.4539 35.5876
16.69 22.2082 28.2721
22.5808 24.753 27.7025
18.4075 21.537 24.9649
17.7129 19.9511 25.4319
22.815 25.5583 26.9392
22.7218 27.0646 33.3832
23.1947 23.7615 26.3738
17.4025 18.0374 19.8323
16.2213 19.3616 23.8072
19.839 21.9985 23.7305
15.2185 19.8659 23.9584
16.5135 20.316 25.8462
20.0598 24.4966 27.1747
18.5293 25.6673 34.908
30.3208 41.6344 51.8922
27.1817 29.6323 34.5886
20.3384 25.8207 36.199
23.8107 25.5508 29.3258
21.9898 24.8471 27.0184
15.3036 17.8316 21.8135
16.3879 20.0104 27.5691
28.1739 35.0393 40.8739
28.1826 32.7848 36.7035
15.895 18.4037 24.047
17.2793 23.7641 31.9191
20.3134 26.404 38.1469
23.3983 23.7663 26.3462
18.5909 23.8786 28.5958
16.8486 22.7587 29.2644
18.5974 24.0674 31.3032
14.4266 19.6011 31.8729
24.2437 29.1984 38.1176
20.6215 24.8947 32.7088
23.4846 26.877 30.3494
19.0109 24.0801 30.8638
22.3326 29.8518 38.4803
23.2491 27.9869 34.119
13.2209 17.872 26.8785
23.4049 28.845 31.2241
14.3007 24.9053 38.1252
18.0301 25.0949 36.6652
19.7468 23.0228 32.7619
22.5924 25.4258 27.7322
19.9936 28.423 39.208
14.9694 21.096 32.9997
26.3497 38.0032 50.9338
31.018 38.1399 42.6427
20.451 34.9291 56.9234
31.5615 39.9219 50.35
18.8536 22.3886 30.3054
17.421 23.2611 32.1434
17.0609 23.4258 33.8489
24.4274 32.8567 43.8981
18.7711 22.3224 26.8895
15.5946 24.2178 35.9492
15.3305 21.3169 38.5487
40.1487 51.7052 56.6586
10.4671 13.1312 23.8289
23.8225 30.6037 35.6303
20.5543 29.6133 39.0345
10.8966 14.8331 22.8595
18.181 24.7656 34.3125
13.764 19.6397 30.7519
16.4817 21.2954 27.2459
16.0168 27.2634 47.4397
20.8568 28.6931 40.7058
22.8205 30.7469 40.7362
19.8596 30.7285 43.629
14.1901 17.297 22.2993
10.6763 12.5654 18.6959
15.9762 21.4799 25.753
16.6948 26.149 39.0976
21.6816 29.9104 37.2076
13.811 21.5536 33.5229
19.9948 31.8019 43.8517
18.5717 29.9972 47.261
11.1827 14.4585 24.3614
12.6597 18.5186 28.7219
15.1381 20.8223 28.9582
16.5611 26.126 37.1029
13.7841 24.3601 40.9515
17.3887 23.0398 32.6181
19.7882 28.5379 43.9713
19.6385 28.5813 39.6362
14.9097 22.1024 33.897
12.8215 16.0144 22.4592
12.3647 20.5833 32.3215
14.4477 22.7619 38.3141
17.2647 20.9144 28.1314
14.6132 21.8919 30.3609
10.8982 16.1795 28.1668
16.0143 22.6373 34.019
16.7372 23.6828 33.8024
16.5202 22.5158 28.8515
14.1577 23.3965 33.2363
7.96484 15.6222 31.6385
15.0757 22.6525 35.2957
13.3753 17.9558 22.282
8.72325 18.9562 39.3888
22.6913 32.0332 46.9291
13.4174 19.1287 27.4175
15.4488 26.3337 45.5341
15.4209 22.7994 35.5055
15.1678 25.6007 42.869
18.6848 28.0935 41.0638
13.2395 17.8364 24.9131
14.2107 24.8198 35.9405
15.7987 26.6883 44.2347
15.0586 23.9755 39.642
9.86265 12.1009 20.166
12.2159 20.2606 31.4378
11.5131 23.2957 44.5444
14.8674 16.7937 20.1731
13.6158 25.8635 46.1485
18.2487 27.0738 39.4612
12.0658 21.5199 36.0494
12.719 19.2905 29.8821
12.6564 20.7702 35.8776
12.4865 16.7277 28.1897
16.6282 26.6219 37.9973
15.213 26.2123 37.7731
7.7311 18.6437 40.739
9.7701 14.7559 31.8226
14.8181 20.7038 31.854
17.201 27.7503 40.974
14.9971 30.3769 55.7857
20.0858 35.2345 61.8769
20.9532 29.0557 36.1139
8.62877 18.4927 42.1198
22.3552 38.7908 61.1817
13.7128 21.7375 40.2096
15.5417 23.0519 29.7578
8.34872 17.1117 36.5915
12.3071 19.9802 36.7594
13.4154 23.2281 38.3376
12.4759 17.6927 25.6955
7.44614 13.9629 28.9139
15.9459 27.2256 40.2975
9.7099 22.2185 49.7545
15.5273 22.4092 32.9696
10.6818 16.8907 26.4664
8.81262 18.5272 38.6535
11.3583 17.2874 29.0617
13.4782 25.2703 48.5236
16.4822 24.8249 41.0991
15.8268 28.3156 48.2714
11.5768 20.8894 37.5678
10.423 19.5854 37.8229
11.8878 21.3658 38.2223
11.5816 20.6088 39.0985
11.4858 22.4814 44.04
14.5995 25.131 45.9353
15.9441 22.8874 34.3911
13.1187 23.8864 39.2757
10.0462 20.6651 45.7018
9.17991 10.7454 19.7676
13.4593 26.9701 48.2125
8.74139 18.669 48.952
18.1196 29.5414 45.7082
12.4482 18.0763 27.1113
11.9695 24.5591 49.5223
9.81812 11.3789 22.2982
11.5412 20.7707 32.0815
10.3872 21.4835 39.8227
11.2784 24.4422 54.0466
14.5853 24.2622 45.7382
17.8145 26.8689 36.9755
10.3679 21.0542 39.4719
8.87969 15.9659 32.0213
10.1279 16.112 23.5933
9.62169 21.2424 38.3659
11.7316 24.1433 44.1875
10.7243 19.7264 41.8806
10.9312 14.1617 20.4654
8.2521 17.0141 31.3505
9.0571 20.5169 44.5638
13.3014 20.9024 31.9225
8.50679 17.5193 39.6573
13.9746 24.0467 40.3844
12.8622 25.1818 45.069
11.6972 23.0861 39.8502
7.11837 13.6044 33.5504
10.5175 17.8789 34.4283
15.5268 27.4542 45.0283
7.79531 16.44 34.0694
11.1892 19.4363 31.7142
7.73061 16.6514 33.0055
6.61386 13.5614 41.379
18.4985 34.3028 54.4347
14.6949 35.1416 70.1888
13.8715 24.9925 46.2591
9.89238 20.0491 48.0597
14.6449 25.6933 42.0586
8.55759 16.8242 39.1288
11.001 20.1683 35.469
10.6855 24.3594 50.0358
12.2629 25.0146 53.5236
11.1605 18.8202 36.3179
9.07102 14.6596 26.2829
9.47876 22.2879 47.9175
12.1729 25.3232 53.953
12.8793 20.7659 36.7469
12.3374 26.8467 55.4375
14.6804 28.0068 51.0379
7.57391 12.0773 24.3985
7.04849 18.8893 44.8538
9.68195 16.769 36.2564
12.527 24.9313 42.7912
8.06242 16.9491 30.054
8.65986 21.6227 42.6458
8.70618 15.9302 30.1555
8.28454 20.0852 42.2895
7.32851 18.5712 43.2478
9.97831 19.8563 46.4056
14.1127 27.4175 50.4714
8.33628 19.2326 52.1325
14.8205 26.2821 46.5602
9.75122 19.8275 41.5673
7.40332 15.6535 37.5528
9.27926 16.8788 36.8882
8.9293 16.3186 40.5086
13.0215 21.7176 32.2024
7.74698 18.3463 42.126
11.4113 20.5223 33.2187
9.28995 26.115 58.9728
10.2997 19.4516 42.7939
10.7238 22.0149 42.5018
7.33025 14.0632 31.5397
11.4457 26.7957 57.6485
8.63771 19.8364 43.6146
9.31801 20.5103 52.2305
13.4024 24.1307 44.347
6.06198 12.3472 31.1819
7.64314 16.438 39.2717
8.78813 18.5075 41.7592
8.28066 16.3513 31.9053
5.39008 13.6246 46.3021
12.8933 18.4036 27.3315
8.07097 18.7701 37.5747
8.99963 24.9468 61.0512
12.423 24.0992 50.484
7.04763 12.9813 25.7284
7.5457 20.5732 53.8207
10.0673 18.2323 40.6196
9.81643 16.6449 30.783
6.71195 15.374 30.6958
6.16608 13.3885 33.6023
6.06802 11.2659 34.9983
14.3555 29.2539 45.8374
8.77117 24.1461 51.0222
7.89954 17.7319 41.1695
9.1229 22.1679 45.6841
7.68996 20.286 50.149
7.72406 14.94 38.5891
9.87051 16.8746 33.0295
11.145 28.0922 54.2894
8.25084 19.779 43.8441
7.22424 16.6398 41.131
7.75598 15.8078 39.6932
10.1625 23.2964 56.1255
8.41235 13.9677 30.3262
8.40394 19.6901 47.7644
10.1691 19.9911 36.7066
7.99924 22.9033 53.1565
9.35786 19.5271 39.6513
6.95172 18.8948 56.9697
11.0097 20.6182 41.5531
9.09485 16.5417 33.1065
8.55929 21.3907 46.9106
7.55701 16.7853 43.1109
8.55742 18.8236 39.5823
8.93097 20.3448 41.6791
5.7909 16.594 51.6813
11.355 22.9852 51.9443
11.0485 24.5505 40.6648
4.23383 14.5695 54.9963
11.2139 23.5655 44.3844
6.67745 14.2511 36.7251
8.54831 21.3986 45.1992
7.59818 18.8603 43.3993
8.12824 17.2276 37.5672
6.61883 16.5969 43.1442
8.10788 22.2262 57.9087
10.1035 20.6659 43.5891
9.1066 20.9158 45.2355
8.42393 23.8141 61.545
10.3425 21.2193 42.2304
8.34395 21.472 50.5241
7.07986 15.4188 34.6511
5.04834 15.598 56.8021
10.524 15.5765 31.2091
10.6478 29.0282 57.0312
7.47845 23.3757 65.3745
9.08284 17.8885 50.1538
9.75886 16.8651 33.8682
9.14334 22.7334 54.8269
8.48134 20.2823 48.1179
7.70845 18.445 45.719
7.9567 18.3848 51.4632
10.753 23.7482 45.2906
7.39451 18.2318 34.9744
4.92812 15.8392 37.787
4.72918 13.3624 45.6985
6.61082 13.7664 40.2961
7.24107 15.0489 31.8389
6.2649 15.7345 42.9733
6.6721 12.9068 29.3379
5.19453 12.4809 27.7314
7.41718 19.9307 48.2087
6.89341 15.5192 40.6756
8.81155 21.699 47.2036
5.76906 12.3459 31.518
5.81901 20.2973 63.6101
10.7819 22.425 51.2509
8.35148 20.9897 61.2293
11.2276 21.5881 44.7154
5.88619 13.4302 37.6439
8.46058 18.9433 41.9927
7.97703 23.1685 62.5528
8.64351 19.6144 46.1445
8.00857 17.5985 35.9092
4.89022 14.726 46.8189
7.35693 16.0057 36.3859
5.941 14.8196 35.1126
4.90198 12.5253 32.8976
5.80635 15.1982 49.9725
9.07012 20.9659 50.5589
8.78077 18.5468 38.8947
7.00248 19.8254 51.0345
6.99811 19.0482 56.0524
8.72962 20.7606 49.5087
7.67678 16.6418 33.4009
5.25738 13.363 33.6264
5.86316 17.5231 45.11
7.04072 16.7212 35.8569
5.77254 20.2814 67.0126
10.9477 30.5481 64.1238
7.38814 17.433 45.4744
7.81776 20.5697 49.9214
4.82833 11.3881 39.5777
6.36811 14.5082 45.1029
7.28699 17.2432 49.0089
8.04079 19.9748 51.5
7.56552 16.3958 42.065
7.30561 15.1718 27.6379
5.38753 18.4313 54.6875
7.56983 19.1501 47.3778
7.62204 21.3063 53.321
6.65349 14.6817 38.8456
7.1686 23.3075 60.7732
6.1877 13.7184 37.3025
5.70056 16.6576 47.2039
7.31993 18.3468 40.4444
4.61309 14.7325 49.3451
8.39636 19.6467 49.72
7.09638 17.6347 41.1425
5.7175 18.451 54.3024
5.94696 11.4802 32.8385
6.35729 18.5847 47.8656
7.36341 20.5877 64.0687
6.92719 13.5866 32.2331
6.41363 17.2371 30.7737
4.08828 13.895 37.9862
4.92214 14.9468 53.9501
8.71765 19.6399 43.0978
7.01371 19.9147 52.0211
6.75 17.8286 43.4954
5.05781 16.9716 47.4663
4.41315 8.05012 23.7593
3.75943 14.0614 45.5742
7.13218 19.6781 53.4931
6.24216 15.4156 47.5167
6.46611 11.9986 26.8901
5.73608 16.4489 41.4952
5.27877 14.8874 38.1874
5.13017 17.7793 52.9402
6.45012 13.5388 39.0278
8.45868 28.0791 75.0968
8.39696 18.1331 46.1531
7.11257 24.5418 61.4308
5.96857 13.0664 38.1125
5.61777 14.3157 33.3509
5.04493 15.4159 40.4694
3.72327 10.6701 36.9796
6.70977 21.3523 56.5666
6.40342 14.6737 43.3861
7.56447 21.621 43.7688
3.78056 14.8592 57.5846
5.95157 9.41687 22.5836
3.41374 12.1516 40.7156
6.35966 16.329 42.7337
6.40012 16.4311 40.7159
5.92952 17.8709 43.7016
4.81506 15.9821 45.374
4.74867 11.5124 30.8569
3.81003 11.0357 41.081
5.96391 18.0549 56.0932
6.02009 14.1136 36.5179
4.23323 9.53428 31.0968
5.56327 19.4391 49.4531
4.66303 14.5656 52.0112
7.02705 16.2125 39.3003
4.82171 16.4771 57.7124
8.15336 26.7773 71.1708
7.06668 18.7394 62.2241
6.80245 15.7777 46.597
6.34783 18.9838 55.9027
6.34289 14.4952 44.0805
5.74448 14.5779 37.0363
5.59679 14.9892 46.0366
5.95149 17.1383 42.3658
5.66456 18.9935 55.7733
5.52238 12.2993 30.5918
3.70703 12.4111 43.5564
5.3138 15.089 52.2149
6.41997 12.4292 33.2488
6.51806 22.3753 59.1756
6.06615 17.2764 57.2306
4.75216 9.24973 36.4026
7.66284 19.5032 37.1916
6.15734 24.0249 65.7893
5.03104 10.1505 26.401
3.58225 12.822 35.2634
3.72492 13.8281 53.3074
5.92433 13.5496 22.5061
2.49852 12.5372 46.2377
5.80221 16.772 51.3695
4.75183 11.1121 35.158
4.87116 10.7657 28.3887
3.88873 13.3953 52.894
7.09308 19.873 50.4941
4.52699 13.6707 46.2544
6.14387 17.0531 43.7509
4.32021 9.76819 30.2731
4.23794 11.5557 38.4381
5.82492 19.1468 50.3933
5.58285 17.3486 44.2174
3.64751 10.8204 37.0999
4.57392 12.7867 34.201
4.44058 17.6424 62.7996
7.47056 20.2796 46.4402
3.72841 11.8769 42.6031
4.65654 13.5001 40.4765
4.11192 10.7074 41.5165
5.69972 14.4274 45.9173
5.09435 13.4712 37.446
5.46035 18.8003 52.5456
5.03677 15.1161 54.91
7.17826 24.2136 70.7905
5.69276 16.166 45.6234
5.32925 12.7918 32.4062
3.91293 14.9643 51.4123
5.58246 12.9244 40.8866
5.60771 18.9285 51.5781
4.34014 11.023 32.9378
4.88056 16.0854 46.7393
4.04924 13.4707 46.9753
5.60758 15.7217 41.0845
3.94594 10.7398 28.2383
3.37339 10.5982 33.8932
3.42139 12.6075 48.5925
5.52935 12.9696 29.8759
2.90277 9.96698 27.4268
2.48875 7.91626 39.5912
6.09271 18.567 45.5087
3.57067 10.6636 34.1767
3.16561 8.28569 36.4746
5.50917 15.9684 39.7251
4.24226 17.4864 60.1482
5.93867 14.6504 40.5627
4.43697 13.0384 43.6569
4.35909 11.9648 41.5909
5.58464 18.7027 55.1964
4.86994 12.7383 43.5087
4.83176 11.1271 29.7063
4.09777 14.7105 39.9953
3.85586 9.93882 25.102
3.3675 16.4252 56.8365
4.8996 11.7789 39.6406
3.89288 11.3526 42.3874
5.18683 12.5204 26.5282
2.76055 11.1175 44.1835
4.60549 15.1519 52.2596
5.05874 14.4266 54.1047
5.62804 13.8157 35.5504
3.74256 10.7816 28.72
2.96438 7.22493 29.2374
4.71386 14.2246 36.2754
4.22198 16.7396 48.76
4.04763 11.7866 44.6246
5.90473 17.8909 51.9981
5.06208 16.3786 46.2704
3.39926 7.67674 22.3015
2.48481 8.9722 27.252
2.74399 11.3976 42.798
3.69936 11.3464 42.7395
4.41568 14.3037 56.1815
5.64115 16.5451 50.4535
5.16893 16.0242 42.9865
3.96016 11.2903 26.2527
2.69768 13.232 58.0333
5.08663 11.4228 37.0047
4.30553 16.3913 50.6568
4.78486 15.242 55.3121
5.05059 11.9074 31.7404
3.78853 16.9756 57.6753
5.59701 11.7188 34.4196
3.89361 12.0186 41.3763
4.41247 13.7333 42.5823
4.40074 10.8914 30.6192
3.41727 13.7034 39.3519
3.88042 12.6052 34.7709
3.56874 14.5216 49.5579
4.44275 14.9822 35.741
2.63469 11.8765 45.2918
3.87361 10.2307 39.8748
4.46381 13.6533 43.5379
4.00834 12.4661 34.4984
2.26398 9.57751 44.0429
4.55225 10.6488 32.8072
3.72702 13.3013 36.959
3.28253 14.0993 56.4871
5.03211 12.0845 35.2588
3.90062 16.6968 50.6125
3.16816 6.40128 28.9198
3.264 10.4624 34.7004
3.29873 11.8334 56.8156
5.85578 13.6949 51.7221
5.29939 14.41 32.4103
3.07605 11.1658 38.3124
3.62725 13.2548 50.5079
5.45509 16.6175 38.4296
3.30673 11.3563 38.4178
4.02411 19.6461 68.6304
4.92629 11.0689 29.4657
2.3817 11.5153 69.2721
8.44422 27.1543 55.8733
3.40875 10.8068 40.571
3.42151 10.3859 35.7915
3.82196 14.5472 53.7112
5.1091 15.1439 50.5944
4.25501 8.07141 24.5331
3.10156 14.0787 43.2607
2.84509 7.96339 43.1869
5.19563 17.0947 49.3297
4.18615 11.8615 34.8473
4.53256 17.1705 59.7267
4.58189 12.3813 55.8708
6.34159 19.1562 48.4488
4.07617 15.2661 49.7439
4.69008 16.4032 50.1633
3.84113 12.0525 38.9742
3.22234 9.29239 39.6981
3.80462 12.3178 37.5616
3.14426 9.15013 37.3415
3.41679 12.5679 47.7657
5.31124 17.7067 48.4358
3.58582 12.0205 40.5476
3.32533 11.7531 46.1128
4.30621 14.4374 41.1211
2.7812 7.27265 30.9221
2.97164 9.74696 39.2883
3.69097 10.4262 36.126
3.65704 14.6034 50.3109
4.35116 10.6801 32.3899
2.60028 7.58717 27.3632
3.57032 15.7413 37.4917
2.38488 6.40473 31.5531
3.13011 8.39384 21.7068
2.25986 10.0895 41.4081
3.88519 12.982 55.5086
4.9778 17.0207 68.6632
6.60498 18.201 58.1831
4.58229 12.5925 34.6397
4.26063 18.7346 60.5971
4.00944 9.2354 32.3376
3.44628 12.3567 35.1009
3.3122 10.5675 32.4919
3.14599 10.2203 46.2045
4.18824 15.0754 49.1735
3.54816 7.59617 36.577
3.60599 11.6098 32.4805
3.2249 12.0333 29.82
2.34478 12.853 49.0644
3.69974 12.0111 42.0649
3.22997 8.0644 38.8459
3.69684 10.2514 29.5591
3.01684 11.5345 37.7465
3.13598 8.91674 27.9165
3.11921 14.9621 49.0287
3.55286 11.3735 42.8267
3.39015 9.27184 43.5981
3.84039 14.6652 51.5792
3.98554 10.0075 31.675
2.60022 5.25327 30.9008
3.4648 10.948 36.2946
3.3267 11.0745 39.3409
3.24363 13.4786 42.2452
3.64116 14.9132 54.6856
3.39865 9.45298 43.2068
4.37871 17.1093 57.2197
4.96396 15.1006 43.5131
3.19458 10.7992 45.1221
4.32675 14.6452 44.2527
3.33563 12.6789 44.4477
3.15338 10.3362 46.2217
4.66514 15.1772 53.4156
4.36294 13.7765 34.3765
2.74091 11.3266 43.9328
4.32004 18.2354 70.0211
5.01102 12.7361 43.0201
3.68904 11.6609 41.2942
3.49545 12.5204 44.4022
3.54817 9.5265 19.3757
1.72886 11.4802 53.0751
4.21552 14.1599 44.1833
3.16914 9.68718 34.7842
3.0102 8.44568 22.828
2.63154 12.8578 52.4402
4.1666 14.7388 50.5984
3.97647 8.97961 37.3197
2.73808 8.89801 44.8376
4.74447 15.4816 48.577
4.23176 19.0525 63.4887
4.42192 12.4943 38.0967
3.02374 9.82338 39.4016
3.31394 13.025 57.8195
4.15326 10.5407 37.0938
3.34091 12.8151 40.815
3.11571 13.4912 52.7895
3.77866 9.80543 34.441
3.09057 12.4195 66.6897
5.95612 22.2484 37.5443
2.32427 12.5479 50.3862
3.85704 11.0054 37.8916
3.15539 12.7547 33.0732
1.96853 4.9351 27.4943
2.19604 8.44923 28.5892
2.76894 11.3538 41.6339
3.74939 15.6887 47.896
3.25878 10.9112 50.7428
3.56506 7.94317 37.8378
3.7155 16.6039 58.1248
4.03569 12.0032 27.9325
1.96964 11.1722 46.7066
3.63566 14.6386 51.4175
3.51903 14.6508 64.1007
4.71744 11.5793 37.3852
3.36804 12.1645 50.0095
3.17965 10.283 41.8024
3.18953 8.96521 25.8472
2.65231 10.2671 54.6677
4.45389 19.5746 46.6507
2.86354 10.0708 42.3821
3.08584 12.4755 62.1524
4.63095 14.3756 50.3275
3.68733 11.901 38.4851
2.75521 12.9587 47.0847
3.21484 12.3 38.8987
2.75971 9.40832 40.0348
3.22401 9.84505 44.1024
3.29356 8.41676 36.5247
3.38461 12.2989 38.2754
2.84812 9.46377 36.2939
2.68902 13.493 42.5085
3.05907 7.27951 22.211
1.88513 10.6734 50.1712
4.52945 17.7922 58.2108
4.4732 13.5742 49.3974
3.43562 8.68769 29.7883
2.34804 12.782 55.5944
4.52479 14.4406 40.0639
2.13066 9.27335 38.3799
2.80123 11.9658 47.1314
3.28338 11.3328 44.2316
3.49143 12.8421 45.8608
3.23829 11.4224 49.0228
3.48782 12.4058 34.9303
2.56725 8.53868 42.0822
3.33337 11.2759 35.473
2.78217 13.3181 47.9859
3.10979 7.97247 29.665
2.6464 16.524 66.8307
4.28122 13.6348 51.2185
3.64631 11.3186 47.1768
3.79036 15.3449 71.0376
4.78359 13.4291 27.19
2.05906 8.40486 46.279
3.62837 10.5995 40.7508
3.26883 11.5809 36.6107
3.05301 11.4397 39.1598
3.09324 13.7923 42.2636
3.03995 9.3621 37.3027
2.78783 14.3531 56.9946
4.25267 11.0106 38.624
3.13298 10.8892 41.4316
3.03159 10.0744 34.2648
2.71124 11.1982 46.6218
3.6314 14.1711 59.1825
4.45014 15.4141 41.3654
2.86298 9.68953 39.4687
2.91063 12.2543 45.1137
3.02611 14.0601 70.3119
4.74187 14.7195 50.1336
3.71164 11.9351 39.9614
2.69644 9.01806 41.0922
3.42245 12.8803 30.1639
1.61378 5.80071 44.2018
3.45287 13.9197 40.6427
2.86574 11.5128 41.7077
3.29272 10.3743 49.2169
3.57229 12.1484 41.6867
3.2059 11.5001 39.2347
2.97706 11.3696 49.424
3.70745 12.4935 48.121
4.2346 15.8209 44.2871
3.08923 11.0394 38.8131
2.72473 11.3104 42.6686
3.17919 13.5064 37.4457
2.27653 11.2989 49.5325
3.17463 8.24597 42.9708
3.15145 8.95948 46.6074
3.4381 13.4912 38.9011
3.24338 13.2754 48.5506
3.12902 8.8677 45.5014
3.53138 13.0419 36.8438
2.80505 12.9496 47.5004
3.45597 10.7665 62.418
4.7552 12.7978 25.808
2.30614 10.8215 47.8168
3.43933 12.4355 48.6878
3.52516 15.5166 50.1599
3.23581 13.1274 55.1492
3.86975 9.34209 46.5691
3.14804 12.5526 41.1305
2.69497 13.8132 51.0442
3.31097 9.18162 39.462
2.81219 9.40711 28.6274
2.25958 11.1669 38.755
2.38033 8.34779 37.9476
2.6624 14.2029 44.8652
3.00553 7.25267 34.5678
2.78303 13.6869 43.2621
2.57721 10.1067 50.7309
3.68279 12.9826 42.2475
3.50587 15.2739 54.903
3.40481 8.55969 29.417
2.25662 11.0096 48.5774
3.54145 11.8562 56.4323
3.39284 11.9787 48.2438
3.80418 12.1165 40.9341
2.81089 12.3212 41.058
2.90037 12.8442 54.4092
3.57071 7.2143 24.6572
2.06653 9.60895 51.6871
3.87181 13.7031 51.8348
3.35084 10.7519 41.6388
2.9026 6.9231 34.4102
2.71286 12.6164 45.175
3.42604 9.19375 44.9575
3.59008 18.5428 49.4237
3.16962 11.7668 43.7518
2.79922 10.9544 45.1564
2.96809 8.24662 44.4562
3.27385 12.3035 31.7313
2.2858 10.1728 48.6024
3.60348 12.2001 42.6418
3.00378 9.28843 39.4748
2.67499 12.421 41.8921
2.99225 8.90867 51.4247
3.42207 17.1773 67.7817
5.19214 16.2946 57.1446
3.69048 7.93907 32.3817
2.51309 11.6423 36.7878
2.73136 15.2331 48.337
2.98344 7.81093 37.5979
2.97898 11.1321 45.7731
3.26848 10.2042 47.613
3.56264 14.7122 47.33
3.30764 12.9007 34.9419
2.32004 12.481 47.0183
2.95581 7.9236 27.1131
1.85747 9.48153 30.4531
1.85493 6.8907 42.0488
2.81436 7.59032 33.3379
2.44683 8.53458 40.0279
3.15469 16.2317 60.4168
3.52925 10.4661 38.6802
2.35893 11.6866 39.9173
2.8486 11.9925 66.0411
4.14183 12.9875 59.7334
4.35357 15.2895 38.7921
2.26941 7.52962 27.7665
2.04447 11.6896 42.1483
2.78648 10.2445 44.1556
2.83851 11.4042 41.1554
2.83222 9.40418 33.6382
2.46298 14.0761 54.0842
3.27274 9.51188 52.7159
3.58414 11.643 31.0922
2.24167 9.31575 46.1865
3.21765 10.3102 34.5909
2.47484 8.16406 46.7937
3.55351 12.2734 43.4186
3.27993 12.0509 40.3563
2.74738 10.8195 45.336
3.00607 9.51757 44.6041
2.62494 10.3247 47.4427
3.19294 14.9447 44.4788
2.66272 7.91685 47.65
3.32857 11.8225 45.7267
3.0755 11.8537 40.4414
2.515 11.5822 52.1791
3.56599 10.2757 42.5455
2.98519 13.7826 62.661
3.84511 13.9241 44.7557
2.84255 13.5713 28.9339
1.84173 8.7371 47.512
3.14475 13.6271 56.0392
3.51762 10.4089 27.9226
1.83176 8.25333 37.4184
2.59486 13.7543 65.8338
4.24587 11.0646 33.1427
1.84439 11.5192 60.0879
3.74252 14.8175 47.9811
3.02626 9.1673 45.1452
3.31504 12.2534 38.5166
2.39941 9.13798 34.6429
2.18263 11.1702 50.9993
3.62926 13.9402 34.1188
2.27651 6.94107 37.079
3.04058 10.6429 52.4988
3.42192 13.1062 35.2859
2.23738 9.02815 51.8041
3.25151 10.4015 24.9734
1.40383 12.6757 47.0837
3.051 6.71968 31.5441
2.06399 10.8735 43.9477
2.97991 12.3701 49.673
3.29093 9.13082 31.757
2.16106 7.16944 30.2497
2.00285 8.09205 40.9666
3.09822 10.6569 45.5598
3.30289 11.5027 47.5539
3.26917 12.4863 51.1445
3.45842 12.2435 43.4271
3.00291 12.2359 50.006
3.00767 13.4043 52.7225
3.6577 13.3562 47.0123
3.01458 10.8841 39.2867
2.59804 9.33264 29.642
1.81733 12.6243 62.97
3.82607 11.0218 46.8742
3.27306 9.68925 40.2774
2.74305 9.01652 30.993
1.98436 9.43184 33.2418
2.15989 8.28898 47.1542
3.3079 14.11 46.5844
3.18035 12.5949 50.1752
3.30708 11.6883 41.1975
2.5976 8.66261 46.9157
3.1468 13.9107 47.9412
3.20108 12.1719 38.4779
2.33153 8.41288 44.3751
2.69862 12.8075 32.1771
1.74791 10.6267 51.4372
3.52019 9.41364 30.8721
2.17596 10.4104 43.1672
2.50639 6.68083 21.88
1.50083 9.25267 48.5472
3.11845 11.3152 50.9544
3.17911 11.0146 36.5087
2.58926 6.98478 32.8107
2.43172 8.37266 24.9593
1.63325 6.91262 31.2606
2.01426 8.70951 35.3043
2.35198 11.8557 44.0593
2.66591 9.22363 44.1941
2.92913 10.6379 32.4365
2.61468 8.41588 29.411
1.9463 6.83777 36.9871
2.54862 12.0793 46.7521
3.01178 11.101 43.8558
2.88201 11.5097 46.8285
3.00759 11.6876 34.5135
2.22031 7.15194 39.93
2.54293 7.21463 34.7042
2.03346 11.8554 27.1967
1.53749 9.97591 49.3526
3.39937 9.86316 41.4531
2.42371 8.69446 30.795
2.03515 8.57775 28.5226
2.25153 10.3381 49.4074
2.95307 17.6954 65.721
4.54884 12.1676 45.7209
2.87673 9.25848 34.0428
2.15153 9.4847 46.8447
2.80205 9.63884 36.266
2.43183 9.32756 33.3197
2.1425 9.96844 40.9986
2.10276 9.07459 42.7267
2.7321 13.1974 51.1685
2.94553 8.90051 29.6392
1.71725 9.47239 42.9206
3.02185 8.8873 28.7812
1.77203 6.48146 39.6819
2.82521 14.1168 42.8311
2.69989 6.89241 36.2016
2.49386 11.2017 40.2591
2.8183 9.94094 33.5831
2.35959 8.82782 37.4703
2.6033 10.1319 40.7318
2.53715 8.12298 43.8563
3.08415 11.8787 29.7631
2.11113 8.19414 44.332
2.79162 12.2488 58.1668
3.35767 12.8999 51.6722
3.37921 12.4333 26.3959
1.67472 16.6019 60.7266
4.07981 14.0175 113.833
8.14051 0 0