# pn-170911/RbIIR-58-RbII-1280-1959.psd
# Power spectrum* (dif=0,1,2) (really just |FT|^2)
# NOTE: only the first half! (symmetric)
# weeks: 1280-1959
# 46 clock-days, 3 excluded
# PSD: 1441
148532 3.28191 0.0269281
4.05873e+06 157.146 0.109932
6.06259e+06 79.9814 0.104685
1.75051e+06 31.9503 0.101684
1.39014e+06 24.9115 0.114592
1.04587e+06 15.2653 0.0987753
597753 12.9184 0.0861516
402731 8.91647 0.0953931
292263 7.0057 0.0862395
274005 6.63898 0.0979333
224769 4.92532 0.102563
219236 4.61815 0.0740229
147975 4.60624 0.0795965
140450 3.48108 0.0973337
115972 3.87041 0.0967172
78458.9 3.74813 0.104963
85896.6 3.3663 0.102942
94579.8 2.68202 0.11437
78833.4 2.81304 0.0833881
58588 3.10334 0.096856
42064.7 2.99713 0.0945019
56108.3 2.95019 0.116661
60744.6 2.79763 0.111607
41701.3 2.38141 0.102057
33793 3.14841 0.123532
36685 2.51076 0.129838
23548.1 1.92981 0.136509
34294.2 2.49336 0.119422
34074.4 1.97104 0.130549
21447.2 2.88497 0.128184
20467.9 2.45543 0.119673
20657.5 1.80804 0.128795
17554.9 2.36242 0.123668
19690.9 1.92446 0.104947
22639.3 2.08891 0.132297
17796.4 2.5979 0.122343
17486.9 2.16327 0.119416
21239.2 2.63134 0.119663
16435.9 2.35475 0.150175
13780.6 2.92347 0.127153
15426.8 2.67601 0.110888
12461.1 2.30816 0.117956
13609 2.74449 0.135714
12877.5 2.31452 0.113066
9689.58 2.22297 0.157967
9712.73 2.53772 0.111276
12676.9 2.84486 0.129416
11774.4 2.05644 0.150513
6398.42 3.63348 0.142352
5869.79 2.52996 0.131764
8970.7 2.7845 0.160912
9796.84 3.03204 0.140197
7627.43 3.54933 0.172227
6748.98 3.68901 0.167899
7852.56 3.11916 0.146084
8469.38 3.59753 0.147615
8258.18 3.71708 0.145286
7486.78 2.78504 0.160222
5902.14 2.81863 0.134491
8207.75 2.44042 0.138516
6171.79 3.397 0.126963
5599.6 3.39435 0.200014
6727.28 4.59088 0.256478
8567.47 3.70305 0.221409
6155.33 3.38963 0.185339
5586.17 3.67679 0.137288
5607.24 4.9557 0.212189
5959.87 4.13551 0.203683
6020.51 4.52602 0.206164
5127.4 3.34217 0.182101
4997.99 4.86999 0.231138
5448.29 3.83006 0.193978
5373.37 3.70087 0.209866
4848.24 3.5907 0.212611
5434.57 3.71547 0.223051
3920.2 4.35242 0.188849
6373.26 4.7235 0.208439
4599.37 4.29109 0.210243
5004.83 3.37829 0.20262
3827.07 3.74377 0.17256
4265.11 4.2951 0.240696
3792.94 3.98764 0.195175
3760.65 6.32751 0.346203
3122.75 4.69792 0.243641
3576.13 3.75776 0.198215
3481.32 4.70031 0.271797
2905.31 4.81928 0.237001
2891.41 5.12124 0.307024
3205.11 5.32626 0.292243
2736.63 5.23482 0.330704
2266.71 6.18729 0.414178
2921.31 5.54076 0.283618
2882.99 6.12287 0.36357
2116.82 4.39843 0.268591
2789.71 6.08775 0.395281
3356.32 7.913 0.458356
2292.28 7.27132 0.363317
2701.61 6.47064 0.420534
2467.94 6.0711 0.40945
1641.65 5.0325 0.267332
2297.69 4.93 0.352968
3071.33 5.74661 0.384731
2425.25 6.60505 0.458693
2373.93 8.72957 0.555824
2755.28 4.67838 0.323634
2485.4 5.68262 0.366439
1625.12 6.18425 0.380099
2381.28 5.51751 0.385802
2162.09 5.71249 0.433739
2139.61 5.87703 0.440172
1691.26 6.5983 0.459785
2137.06 8.72382 0.687037
2144.09 7.67603 0.565864
1658.75 7.7089 0.615299
2166.03 8.77137 0.612524
1846.85 6.64788 0.603188
1307.4 8.79511 0.68782
1361.19 6.9926 0.515966
2152.06 7.95218 0.577473
1926.29 9.49136 0.689709
1691.89 9.22018 0.701743
1471.38 6.56196 0.589401
1685.65 9.03257 0.757252
2166.65 6.84104 0.590256
2097.21 6.5618 0.589968
1833.37 9.35921 0.761789
1372.82 7.20087 0.685324
1563.96 8.05469 0.752357
1440.72 8.08494 0.731351
1567.71 8.09925 0.817415
1226.98 9.6568 0.903051
1202.53 10.5789 1.01889
1584.81 9.63012 1.05315
1146.04 9.02441 0.79409
1563.77 8.26849 0.879518
1772.82 10.203 0.992875
1693.66 7.89174 0.791368
1060.17 10.112 1.17984
1122.94 11.8433 1.11464
1519.81 9.73958 1.03303
1333.75 9.74665 1.05394
1314.6 11.7002 1.23836
1071.93 9.43707 0.961697
894.982 11.5781 1.27585
1163.03 11.8396 1.38049
1009.6 8.6615 1.01815
915.656 10.3041 1.19208
1109.72 11.5666 1.36024
1044.6 11.9124 1.3916
1191.64 9.51309 1.14421
963.782 10.4334 1.12072
1019.1 11.8122 1.4528
1444.61 9.06432 1.07226
1258.42 12.228 1.59081
1276.02 11.0776 1.42586
974.194 8.1361 0.999563
1228.1 12.3875 1.61026
923.344 10.0888 1.26098
871.89 8.6576 1.06698
933.267 9.74507 1.18401
1045.47 12.3593 1.61538
865.889 11.1145 1.44619
996.798 10.2781 1.34862
1051.25 11.9283 1.61093
1627.26 12.8018 1.52333
1202.08 12.3355 1.58721
857.583 10.4984 1.49621
922.515 15.3097 2.2046
1106.64 10.175 1.48313
922.179 11.8897 1.81316
1114.12 10.3885 1.52616
638.471 12.6061 1.78303
550.359 11.6163 1.68209
993.145 13.0815 2.05761
903.033 14.0538 2.0996
606.789 10.6382 1.61883
817.36 12.6854 1.74763
919.858 13.9639 2.12575
669.012 11.7536 1.99866
817.35 12.5472 2.00157
878.041 10.5164 1.68975
869.608 12.0395 1.9522
641.729 11.8052 1.79911
729.392 12.5432 2.04275
943.703 12.9211 2.04377
661.524 15.4466 2.36888
782.218 10.6092 1.64017
927.971 13.4087 2.4139
698.327 12.4694 2.25758
499.864 10.1256 1.8097
749.433 14.0501 2.34067
840.378 15.595 2.72397
605.742 11.174 2.05995
909.464 12.5442 2.58093
651.203 12.1579 2.17531
653.995 14.3369 2.71297
640.481 16.4201 3.0568
761.77 17.2048 3.30862
494.245 13.4777 2.7893
565.858 14.1519 2.73765
577.497 14.5102 2.73967
617.819 16.802 3.21954
569.459 14.0044 3.03971
665.688 14.1942 2.83645
735.699 17.043 3.3162
599.651 15.6345 3.22829
688.15 15.3964 3.23124
635.802 13.694 2.86283
674.14 15.1467 3.21977
782.798 16.479 3.2832
778.86 14.1409 3.05204
774.458 12.7375 2.67313
951.881 14.8028 3.43392
524.496 19.3297 4.12388
659.084 16.1113 3.75286
690.324 14.9606 3.2355
662.575 16.0956 3.54516
662.393 17.9427 4.24867
526.314 12.692 2.89114
707.265 16.6307 3.87352
661.642 17.2515 4.00347
536.422 12.5529 3.04559
638.17 19.6594 4.95183
575.996 12.2464 3.00893
576.187 16.5293 3.87142
660.75 16.0192 4.08341
651.017 14.8978 3.44561
442.317 15.4738 3.58131
531.091 19.5492 4.62633
581.788 16.7025 4.23954
431.825 13.0683 3.36568
517.739 14.5582 3.85973
553.133 16.3826 3.77652
566.152 16.9697 4.40419
476.657 15.106 3.93484
458.77 16.3626 4.21951
487.557 15.2279 4.12814
500.795 15.6388 4.23957
449.968 21.1251 5.38288
342.308 17.8749 4.8595
374.536 17.5267 4.3477
508.678 17.245 4.73281
522.992 16.7956 4.50696
375.744 14.5284 4.17226
405.732 14.1145 4.11637
501.101 21.194 6.00398
485.82 20.2892 5.78271
419.735 19.3198 5.43931
455.936 14.1491 4.15022
527.427 19.926 5.69559
529.072 13.5288 3.88827
545.527 17.6765 5.52888
443.873 17.4658 5.16643
382 23.5672 7.28206
539.234 23.9381 6.91021
411.429 19.0941 5.98744
443.513 18.5592 5.75226
425.075 15.9032 5.35459
333.962 15.4067 4.70533
374.891 14.4321 4.81273
536.917 16.1019 5.16769
391.322 17.2193 5.3507
285.885 13.8049 4.73013
385.351 16.999 5.9034
375.034 19.6336 5.79846
400.823 15.2746 4.93387
442.881 17.4248 5.77271
388.791 18.7683 6.92327
261.843 19.7862 7.08467
388.908 22.5267 7.34329
544.842 22.895 7.9815
384.313 19.3135 6.83526
373.608 15.772 5.47025
251.436 14.0963 5.20765
404.147 21.655 7.3932
362.537 16.3683 5.51231
314.736 20.2275 7.17639
423.853 20.8605 7.83747
359.121 19.0302 6.28
272.292 16.7703 6.04965
318.992 19.5651 6.99478
336.572 18.5645 6.82451
339.52 17.7311 6.62477
361.281 20.7944 7.34583
245.227 20.6383 8.08526
133.492 19.5062 7.37519
197.537 21.3778 8.0701
358.208 18.479 7.80131
187.317 21.7131 8.04915
247.984 21.9624 8.61179
277.174 20.4757 7.65364
220.063 18.5081 7.496
308.268 26.8549 11.411
391.743 23.2206 8.92749
312.804 22.1733 8.94267
326.073 19.5694 6.97123
290.416 19.1488 8.04833
290.224 16.4222 6.23455
262.717 21.3392 9.14048
373.862 19.0161 7.25218
312.54 18.6108 7.38912
356.398 13.2329 6.0112
286.07 18.6561 8.13686
219.744 18.6 7.79154
311.322 20.8328 9.24714
357.384 23.3849 9.93967
287.702 16.4527 6.97895
230.913 20.1289 8.97077
214.81 17.9072 7.09582
324.994 21.0248 9.52452
392.691 16.8217 7.23761
243.376 21.396 9.5422
257.706 22.8062 10.4471
270.933 17.7469 9.23447
188.509 24.7714 11.1776
291.621 16.5751 8.28771
290.478 21.001 9.02349
205.498 19.8412 9.64445
190.933 12.5272 6.00736
271.842 22.0684 11.3079
259.941 26.7285 11.724
250.554 19.2755 9.46369
288.292 21.1082 10.3196
272.476 21.6074 10.0005
249.477 18.1998 8.73903
287.71 18.7609 9.12954
259.177 17.5163 9.62886
219.952 25.2333 11.4227
277.152 22.2473 11.3385
240.813 21.5451 10.0214
205.019 18.2919 9.09173
239.136 27.7799 13.5794
214.185 15.6909 8.06704
225.988 25.5837 13.8259
263.02 19.4846 9.79556
315.499 26.4192 14.5159
184.996 25.0998 13.415
142.353 20.6828 10.339
220.222 20.3954 10.9251
321.118 22.0705 11.3437
199.547 19.4995 11.2088
216.743 24.1703 12.5218
241.555 20.0138 9.71558
246.454 15.441 8.82783
262.336 24.0454 12.5729
251.6 18.9186 10.5349
229.888 16.086 8.35051
264.857 21.8333 11.6466
244.85 19.751 11.6067
242.847 23.0026 11.9588
262.953 22.9491 12.422
334.263 28.0808 14.8878
232.521 33.3197 21.5975
250.511 24.2651 12.9938
278.926 28.9456 16.9354
347.194 28.4615 15.4344
244.809 24.9246 14.219
248.14 31.7907 16.4671
249.986 20.7946 13.0856
253.668 21.5605 12.2387
248.936 23.1711 14.5096
205.894 25.3779 14.3204
296.463 29.3734 17.1109
203.673 21.7252 12.5862
292.891 21.663 12.9921
180.61 18.1645 11.5976
239.454 19.5514 11.3287
203.753 16.4919 10.5029
267.62 23.6443 13.8391
209.466 22.9693 13.6801
178.978 19.5339 12.0902
195.179 19.004 12.2311
251.551 22.3259 14.0415
239.137 25.0458 16.2037
173.272 22.5933 13.4348
192.861 20.3977 12.7795
238.341 20.9297 13.5153
229.797 24.2701 15.0518
178.437 25.9254 17.5921
194.7 17.5873 11.6429
256.343 23.0425 16.2248
167.477 22.8746 13.4609
215.185 21.8927 15.3877
230.186 22.0239 14.1478
170.925 25.8159 16.6287
187.352 18.5079 13.0549
203.88 21.1106 13.7316
165.511 20.2663 12.947
233.848 28.0911 19.4552
260.776 19.363 12.237
211.253 19.969 14.6417
208.211 22.8954 15.6685
229.406 24.4444 16.8536
208.95 25.1635 17.2294
160.116 20.049 14.7706
184.015 21.984 15.8551
174.859 20.6223 14.2003
163.714 19.0161 13.9657
188.932 27.0475 18.7528
169.376 22.4228 16.943
199.861 20.3419 14.4318
183.062 23.8947 17.6192
148.759 25.1315 19.3104
153.36 17.5293 12.3813
180.795 22.9007 15.969
148.352 22.6484 15.8742
189.881 22.8929 16.5113
189.7 19.6922 14.8011
155.564 24.3201 17.476
151.664 21.5227 16.6304
185.039 22.9337 18.3212
196.437 18.9415 15.4493
198.12 21.2594 14.4159
193.743 22.3642 16.2591
166.226 21.9253 17.598
162.695 21.6125 16.7276
179.134 16.238 13.077
213.33 19.0084 14.9833
128.695 19.2316 13.9539
163.071 24.6632 20.3186
156.785 29.3847 22.6409
166.358 24.2465 18.9758
146.348 20.5781 15.0724
197.73 24.1468 20.0105
208.188 26.8507 22.4608
142.756 22.9157 16.767
130.44 24.804 20.1195
179.061 20.5799 16.1095
145.097 19.9068 15.8515
142.957 19.5441 17.9659
141.646 22.6523 19.0204
143.343 16.8613 13.714
134.308 26.0133 20.7699
134.967 28.3288 24.1269
164.037 21.7186 20.3659
149.896 22.3841 17.0406
168.936 24.9849 19.671
164.825 21.7963 18.6837
170.347 27.1327 22.0199
145.598 23.486 18.8782
201.859 22.1532 17.3644
180.368 20.6899 17.6306
180.426 19.6762 18.0495
157.134 23.1525 20.062
146.439 24.7131 20.0889
127.418 20.14 18.3935
116.316 22.086 20.0239
147.063 25.1297 21.0171
147.721 23.0986 19.9913
112.439 29.1372 25.0882
144.855 21.6152 20.1049
178.463 17.6681 15.8886
268.693 24.7226 21.6902
170.059 25.2721 24.855
142.23 25.4317 22.7088
146.995 18.2006 14.8538
209.297 24.4106 21.5055
145.035 20.7951 21.0837
177.968 25.0332 23.5056
107.662 18.8376 16.4332
99.8142 21.6917 19.4053
166.642 24.627 24.1779
158.852 21.7031 20.7037
95.1462 18.2929 18.3616
122.424 22.8043 20.7452
172.005 19.3892 16.4914
158.256 27.4633 26.0184
134.02 23.1788 21.2266
153.55 23.9508 25.0564
190.291 19.7473 19.1453
114.239 23.6197 22.2478
142.001 22.6085 22.2077
165.856 21.7165 20.5331
135.405 28.7415 28.1423
138.011 21.3133 19.8884
137.618 18.0391 18.995
103.017 19.5175 17.914
94.1891 21.8437 20.706
154.719 19.9295 19.8073
165.747 21.6904 21.1696
104.752 23.0645 24.6987
133.186 20.2298 19.4347
138.483 23.4417 24.7523
124.179 23.087 25.2874
123.354 32.8662 34.1092
159.156 27.344 25.9843
113.128 22.072 23.4775
114.576 20.9533 23.2434
124.156 18.7714 18.457
124.372 17.8816 19.5882
120.145 24.9305 27.0187
144.78 27.7572 28.5622
159.824 24.742 23.7243
114.638 24.8264 25.4909
128.349 24.0999 28.5485
152.706 28.9129 27.6595
139.277 24.0195 26.5881
163.159 23.909 23.9688
144.349 19.4344 19.1199
131.611 21.3798 25.308
165.372 17.3249 19.6722
140.538 22.7807 24.933
140.373 24.4808 26.3994
143.365 24.4563 27.4503
153.071 21.4927 22.1512
121.942 24.086 29.3027
158.723 32.0713 33.2451
142.165 18.4365 20.4217
125.247 23.9767 26.8316
95.8349 16.7741 16.9056
117.508 16.6017 18.6761
131.708 24.4314 26.8241
113.463 22.8476 26.2054
133.102 18.6804 24.2379
133.406 22.6485 23.2491
97.025 24.0212 26.6949
99.0923 24.0932 25.429
120.733 29.7559 36.6288
91.061 19.782 23.249
126.433 30.7154 30.7955
128.291 21.3247 26.9888
148.096 21.3111 24.1388
93.1602 27.1329 32.5891
106.081 21.5286 26.5083
119.479 28.2965 30.8909
128.659 18.267 23.1569
81.6721 15.5612 18.6205
106.188 20.1821 23.6366
118.936 26.8394 33.88
122.35 20.0765 24.1601
138.057 30.4481 35.5677
112.275 24.1755 28.0781
112.081 21.6599 28.1314
138.816 21.2324 24.9946
130.751 21.1974 26.9686
103.806 23.6689 26.402
123.134 21.9243 25.238
159.979 20.877 27.5126
127.498 20.9803 23.8619
138.995 23.4891 29.3216
96.7589 22.026 26.9742
114.168 19.3681 24.0814
131.827 21.2367 27.1477
102.05 24.3761 30.169
107.601 22.5697 29.0952
132.973 19.732 22.6442
113.147 22.8732 30.6631
118.955 24.5207 29.9689
145.467 17.1008 22.2151
101.087 15.3109 19.0642
95.7629 21.9032 27.1688
111.666 23.6432 31.3509
96.9604 24.0654 28.6979
93.3565 21.1679 29.1678
126.269 19.0791 21.1666
110.533 26.0363 34.8482
89.683 33.3448 44.898
114.517 28.6728 35.4293
123.385 21.699 29.5352
107.366 21.7835 25.3717
80.8336 19.5532 26.6777
75.1086 19.5782 26.4893
110.128 22.9541 33.5042
114.588 23.2241 30.5284
119.521 23.5306 31.2555
117.364 20.8087 27.5637
96.6553 17.7969 25.0216
74.3905 19.1791 24.1115
94.2658 24.5754 31.019
128.98 25.022 38.196
121.232 25.8251 30.8401
77.4925 24.6411 34.214
87.1133 21.5964 29.919
67.2346 23.0365 31.9043
105.519 26.0629 34.4563
127.453 19.1276 25.2878
83.0181 22.7433 30.4414
70.9335 21.4055 32.9305
102.004 20.3549 26.4349
101.769 24.1757 32.8245
115.654 20.6325 30.8296
117.422 16.4736 24.3469
125.645 23.7129 28.1091
104.404 29.4469 41.8497
98.9005 25.9191 34.7783
89.1204 19.8385 32.6699
99.4625 21.6785 29.0701
73.5444 23.2907 33.1056
79.5823 27.0925 39.5633
99.9807 26.017 37.2034
95.8609 20.6219 28.4886
93.4923 39.2726 57.0205
100.924 20.2217 31.6326
125.145 28.4391 38.1902
78.8405 27.598 38.8575
77.1398 20.3176 34.7149
76.4511 24.6478 33.7213
106.529 24.0402 35.7338
100.339 20.9961 27.9515
84.5733 24.5626 37.8216
79.983 25.2387 37.3017
64.4552 23.4573 39.0997
77.1412 24.8646 36.5345
84.7629 18.3277 25.688
84.3852 16.3478 21.0467
62.7652 28.2613 42.9625
46.1364 20.3539 33.0851
76.3889 26.0142 39.9659
83.372 21.0748 30.4713
84.2452 19.6209 31.1219
79.6892 18.1671 27.6822
84.9551 21.0934 31.095
78.0434 16.8968 28.3472
102.396 16.9112 27.844
91.6454 24.7627 40.0577
50.5233 20.9818 32.5317
100.876 23.5041 31.835
72.2582 15.4894 23.3686
69.7622 18.5753 25.5178
67.7172 22.6791 38.3532
63.1929 15.514 31.6643
108.656 25.3062 35.0576
81.5723 22.4763 36.3993
81.8074 15.6125 23.1823
71.2351 24.4462 38.3484
78.4921 24.7792 35.0447
86.0557 19.1549 30.854
102.461 17.7218 28.7673
67.2441 21.5695 32.3057
72.3002 18.2734 29.6025
87.2137 18.0549 29.8856
85.8829 22.567 35.8389
79.1694 21.5574 34.8582
82.7765 21.007 36.4106
95.0776 25.1931 37.3156
100.987 24.2814 43.5021
84.3193 22.9077 34.1932
75.1129 22.3928 36.4894
90.021 22.5911 37.2109
91.4343 16.717 35.7159
72.69 19.5558 31.4397
69.3878 20.3421 31.4413
71.7557 17.7438 30.6066
90.2002 21.9335 34.8984
84.1601 22.3078 35.7667
81.1687 22.9026 41.5325
65.5104 21.1771 32.6037
84.3701 16.5664 27.1031
78.7105 20.1345 29.5609
62.1132 23.0609 43.6169
82.0272 21.4952 38.8528
76.251 20.0993 33.5217
91.6944 24.7413 39.5685
59.0967 22.8652 39.2587
83.8062 17.9878 37.2477
71.0545 23.0373 43.9359
89.8491 18.5231 27.0267
65.9298 18.5545 32.793
86.3499 25.9611 43.3357
72.001 22.4359 39.7384
75.4294 17.5343 27.9041
81.9627 17.4498 30.5807
71.5778 20.4056 36.7678
77.9516 17.3025 27.7327
82.8512 20.6421 31.1125
79.8945 18.0727 33.8584
73.0969 21.6279 34.1924
87.8744 18.7416 33.2636
93.2785 17.2206 33.1427
60.4905 22.9296 39.5937
98.9358 18.2142 36.5279
87.3475 25.353 44.3495
68.3381 18.0058 33.6544
51.6552 18.3921 29.638
77.6278 25.6724 46.9446
61.2926 20.6008 34.1966
79.6163 18.3536 39.7197
85.7933 22.5054 35.7834
61.6643 16.0773 27.7248
67.3932 14.0299 33.5646
91.9197 25.7238 44.1702
79.1075 23.9337 36.6311
47.1318 21.7367 37.0012
57.2066 24.5356 43.221
60.5446 14.4358 31.5325
64.6756 13.958 27.1836
70.8968 20.4539 40.6624
69.611 24.5175 42.8622
85.5559 22.2205 45.646
73.0336 16.3637 28.7779
73.6355 19.6655 38.592
47.9533 24.254 45.1427
64.0306 19.7631 32.9933
72.1521 18.1324 30.5769
76.3437 25.6848 51.0124
73.159 19.9221 34.3131
60.6843 18.9442 37.3117
61.6187 21.2935 37.9762
69.0298 16.3678 32.4772
75.7283 23.2958 48.5922
68.1307 15.844 29.7051
67.8295 16.7284 31.0185
70.4298 17.7444 33.3203
76.9604 23.4312 46.5715
74.8244 25.1617 45.3587
90.2925 22.6181 45.7294
81.1047 21.9326 39.0462
71.7873 26.2169 58.6174
70.1914 23.6737 36.9147
77.5843 20.0249 39.7792
66.3788 27.0287 48.8198
72.4212 30.7991 66.537
60.2776 20.8007 32.7842
45.1005 21.8805 52.7303
62.045 26.6811 42.5469
80.2811 18.1318 34.9969
69.6675 18.4807 35.2213
66.969 16.5952 34.7374
50.1686 15.6297 34.7751
60.0426 18.4695 43.5644
67.709 19.2155 41.9617
64.7124 16.9188 32.7783
63.5495 14.9689 32.5027
43.2325 17.6378 35.8172
67.4934 19.3063 35.6646
61.6717 15.7593 27.3187
65.4031 25.1431 49.3583
57.2785 19.0196 38.0465
78.1596 20.9393 46.4099
67.8313 23.4586 41.4582
65.2751 15.5827 34.0791
68.1987 22.1712 39.7474
71.5234 18.2794 39.0081
49.6215 18.2336 39.4944
63.6754 14.7232 30.8544
58.4487 20.7816 41.4285
62.9014 15.3912 33.169
51.2632 16.7507 35.4073
65.0716 20.387 38.5871
59.7655 17.0763 37.1273
98.4644 21.3099 46.329
73.9824 25.9038 48.1452
51.0806 18.3132 39.7482
72.8545 20.9699 43.4682
84.8719 20.0732 44.5332
65.2793 19.3765 41.2441
63.9475 15.5562 31.7718
53.8106 18.2998 38.4886
52.4506 23.4134 52.7925
58.1976 19.7504 41.028
75.0901 15.9166 34.955
51.3809 20.7575 40.898
54.7939 25.7027 54.7541
77.8595 17.6356 34.5934
74.5359 16.436 36.0603
51.8049 17.8828 37.7484
75.0847 19.6205 39.4196
69.6884 22.9771 53.3246
47.1102 13.0527 30.2417
41.5418 21.7644 50.2202
71.2041 17.507 30.7633
60.1845 21.3394 49.0168
53.7536 15.8815 36.7301
47.3136 18.7419 36.8533
55.8257 16.2904 37.3135
51.6518 11.9913 29.0287
59.628 16.3015 31.2805
64.9542 18.0542 43.5341
50.1762 14.9794 34.018
65.8093 16.3871 34.5489
57.7529 16.6696 36.5935
52.8928 16.6176 35.8872
51.2491 17.6363 39.752
72.9628 19.2402 43.569
68.024 17.7047 34.8575
55.5805 22.3982 47.387
51.4214 21.5529 52.8854
56.9372 18.3185 43.2617
53.627 17.054 45.7168
60.2813 20.8619 53.3865
54.8114 16.9537 31.2126
51.5059 15.3866 40.1947
56.9847 14.049 33.7573
62.1593 16.4768 36.0765
57.5956 19.7493 45.9737
85.9672 21.2975 45.5637
76.3458 17.2441 37.8963
83.9014 19.134 44.1655
74.8491 18.4786 43.5273
56.9305 19.4156 45.1723
55.8314 20.5879 38.4894
56.5087 16.7501 40.0126
58.9307 17.3343 41.6255
53.121 19.6616 42.0274
59.766 16.4206 41.1437
69.7351 13.8445 33.3064
50.2724 18.7979 40.9292
44.1234 16.6091 39.8867
59.1392 20.0532 48.1688
49.3206 20.1205 44.4922
38.5354 18.0255 39.949
58.6385 18.9552 45.5402
65.7464 17.2263 45.0098
42.3798 18.4504 37.9781
51.3876 17.3926 48.3411
72.8012 22.4312 42.4388
49.2091 14.4985 37.9394
42.9378 15.9184 42.1076
60.0323 15.2587 42.8901
73.5797 19.9399 40.9741
49.0221 22.0052 51.224
62.2109 15.1074 34.3812
61.7044 16.6751 40.2829
71.9761 15.9587 36.4936
43.8636 16.6477 41.5943
48.6021 19.192 46.6766
59.9572 21.4128 49.7456
57.1435 19.8236 48.4949
55.4646 16.7134 40.0031
55.9648 17.844 49.6458
46.7353 16.4003 33.1307
59.4736 12.6534 27.6106
71.8754 15.8385 42.2324
58.6594 21.7004 48.0242
56.528 18.1379 47.6114
72.6826 14.1743 38.6906
58.7511 20.2373 44.9374
67.6952 14.9373 39.9553
54.1458 12.8589 35.7781
61.1428 18.5011 45.3787
62.0318 18.4731 34.6456
50.0599 14.9318 34.8774
56.2039 16.3094 45.7949
72.2944 18.462 44.1512
54.6773 13.7999 47.3549
48.2774 16.9475 35.9682
78.4005 13.0584 28.5236
50.1212 11.9788 34.7022
43.787 17.1947 41.1528
60.8339 15.2854 34.4115
55.7987 16.7201 45.9206
51.8368 19.0056 51.3375
56.9405 20.8848 51.8561
38.5329 12.2855 35.5444
40.971 17.0981 43.218
59.5551 18.2991 43.7033
70.1341 16.5364 40.8361
38.4152 16.2853 43.074
48.0388 17.5401 47.2433
40.2409 14.2235 33.3972
66.1177 19.1448 50.5304
50.1842 12.8628 26.2492
45.979 18.7767 47.6823
62.1524 13.1489 38.5538
69.5897 16.9602 37.5844
45.345 15.6689 41.2207
43.8222 14.737 43.7268
74.9179 14.0578 31.5898
53.6051 12.0629 25.7451
45.0091 17.0205 44.1347
50.3007 13.5574 34.4914
47.4763 13.9642 32.1569
62.2327 15.5225 44.063
79.9775 17.2824 43.1692
46.2455 17.2991 43.4876
49.2974 16.3471 52.6788
71.6908 18.7162 51.0142
73.1694 14.2349 33.0629
53.8307 13.1738 34.7933
59.1832 15.6742 43.0712
58.0452 17.5217 40.4267
62.8709 19.0738 46.7005
60.0211 18.1287 48.3752
55.0324 18.5412 62.2196
57.0398 16.2552 32.8409
44.854 13.526 40.2519
39.5901 14.8833 37.0773
56.495 18.6777 49.8623
51.5875 16.2629 41.1568
48.5934 11.8429 32.5512
49.4077 13.4377 40.5204
64.8938 14.643 40.7334
37.9636 12.801 41.4553
41.6128 14.2346 34.1171
45.3461 13.0671 34.768
53.1752 14.7905 36.7511
40.6807 13.7032 41.514
31.2768 16.8495 41.1496
40.5998 15.4784 41.3326
41.3715 14.1856 46.0404
32.6835 14.4786 41.5715
42.3251 17.4582 44.1355
36.0008 13.4687 33.2974
34.6332 15.9313 34.6971
29.7378 16.1415 46.2961
44.871 15.5298 41.4301
39.7173 14.2339 44.5529
42.596 17.8307 42.2226
44.6611 15.7897 39.3759
55.6507 17.7263 45.5587
45.5669 17.9139 46.7876
40.8198 13.8535 38.8302
39.9263 13.2085 35.8442
43.0164 14.8157 46.4766
42.2616 14.2291 38.2618
39.5705 11.7512 36.1801
46.8739 12.8969 34.8758
43.9932 20.262 64.6448
48.2447 16.0304 53.3779
52.1978 16.7559 33.5408
44.258 20.0908 50.814
53.1341 16.7498 44.72
44.2135 13.8692 47.9367
38.8807 17.2907 43.2824
44.029 17.6584 50.5095
58.7018 15.4978 42.8813
37.5351 15.6392 45.2753
51.8942 16.9088 38.6912
51.6532 14.3793 44.2752
39.3854 17.8034 49.9336
36.3706 17.9529 50.2999
51.1108 16.4338 45.2183
46.1047 10.6903 35.5207
41.9874 17.3714 40.4116
41.722 14.1737 41.7049
46.2513 12.2989 36.6525
59.5514 14.8425 37.6653
44.8421 11.5571 38.9193
33.1503 18.2395 59.959
42.4033 20.9387 48.4886
41.1327 14.7616 49.8659
37.1581 15.6234 37.5224
36.4844 12.8158 40.2793
40.1976 8.77998 25.0132
34.2844 13.9717 47.6282
52.3657 14.0003 34.6212
39.7934 14.9501 40.034
27.0636 16.106 44.0346
39.3038 13.5903 44.3699
38.2552 13.4954 37.491
44.9368 13.49 41.6284
38.7436 14.2095 36.5665
48.5022 9.65656 30.7276
48.3438 12.5916 36.2573
56.6055 9.78451 33.6005
34.6884 13.6583 41.5154
37.1726 12.0544 36.1782
45.9268 14.6957 35.8175
48.7814 14.199 47.3982
45.4162 13.2486 46.2788
38.4525 13.5975 34.7239
52.7414 14.2184 38.7685
42.9737 14.2525 35.4286
47.1583 12.189 33.6613
47.0132 15.0277 51.0487
47.0558 12.7494 34.7468
40.998 12.2912 51.6311
37.4087 18.4553 44.5811
52.8932 15.9542 50.5317
37.5154 12.7636 42.5672
39.8906 17.1415 41.0593
37.2275 14.5842 34.8467
43.7298 14.1611 50.2446
35.0688 12.7386 40.9175
52.9102 14.5572 44.9924
46.5415 16.1249 43.6724
28.166 11.978 40.9248
40.1653 14.4558 39.6365
49.5728 12.1452 36.8179
42.7513 13.9481 42.7387
27.4739 11.4611 39.9638
45.3027 12.5041 37.1249
37.6174 12.4906 38.7697
34.8184 16.2097 43.714
34.4866 12.6041 38.8331
36.1228 15.7312 43.2511
40.3293 11.4355 38.5661
38.5383 13.5864 42.3674
34.9937 11.9774 41.4538
33.8201 16.3564 34.8296
47.6681 13.4642 51.2193
43.8585 13.1285 40.1171
40.2121 15.7336 56.2679
42.1316 17.3184 49.9855
40.6537 12.9819 41.0821
37.8637 10.4398 31.5331
34.9018 13.019 39.5411
39.7728 13.2912 47.1377
41.0571 12.6934 43.8833
39.686 15.2974 40.6705
39.0988 12.9726 42.9001
45.1916 15.817 47.2239
38.0864 11.8649 40.5323
48.7168 14.4486 47.7751
42.9344 13.5831 41.7357
41.0187 16.6514 48.8452
40.6744 11.5125 35.0219
45.4809 15.4536 42.6432
38.9328 11.5482 29.5855
34.9562 14.8759 51.0383
35.1966 11.198 38.5155
27.6685 13.0555 36.5299
36.6233 11.7817 37.1
45.7784 12.8135 43.468
35.7557 11.9619 40.5097
40.0393 19.0356 57.5935
29.9232 12.587 45.0352
44.9339 15.8308 46.4425
43.1478 11.2706 35.6875
41.092 9.47423 28.5313
34.2797 9.92194 37.9305
34.7589 15.6609 46.2403
35.0388 13.662 34.1487
40.2398 15.9215 51.3655
34.2669 12.6354 50.5628
38.3813 17.1662 51.0726
40.9024 16.965 47.882
39.3587 14.1599 44.359
37.7785 10.1049 35.5825
55.3312 14.9863 39.4954
47.5408 12.9791 48.3796
32.532 11.5192 33.3886
44.0178 12.1607 41.2004
50.7374 12.4256 42.2511
36.4803 16.7172 48.0341
40.5966 14.5107 43.1103
46.1584 15.2086 48.2424
41.5807 13.7297 56.3396
62.7672 16.5026 49.4111
37.7582 14.0159 37.0552
34.2115 10.9747 40.0376
46.8857 10.6265 32.0634
61.5354 10.9661 38.98
34.9191 13.0507 46.0791
47.7531 13.6137 52.2563
36.9078 14.6143 37.9853
30.3129 10.5085 32.5384
42.4646 9.71391 28.6133
48.4664 10.3955 41.8823
37.2967 15.4489 56.4705
29.2141 14.1128 36.4501
48.2922 11.9788 36.7887
44.5432 9.34642 42.3811
34.5682 13.9832 36.599
47.5681 11.4453 44.8655
52.2177 14.0723 44.1699
31.4821 13.0456 35.7845
26.9282 10.8832 43.9281
45.0101 14.7172 45.4727
37.9178 12.0453 38.2817
27.2298 11.5384 38.9818
26.5355 12.6076 35.3532
34.7937 10.8155 40.129
30.6623 13.4476 46.9666
34.9132 10.5562 34.0304
39.5637 17.6035 56.7561
39.4322 13.097 48.1316
37.2272 11.3591 48.4944
42.395 16.3648 62.169
28.2296 15.6397 47.6539
31.3801 22.8182 83.0278
47.6074 17.0966 66.7931
38.9577 34.9981 75.2873
40.2824 11.1874 47.8783
41.4737 40.2235 122.456
44.535 16.4661 54.8962
41.7291 39.3022 132.527
55.5006 16.1322 59.0884
44.6136 22.993 61.0585
37.4719 11.618 53.4479
40.0659 14.7136 50.7789
40.4654 14.3323 49.1889
34.1899 14.2484 44.5075
54.9007 14.4644 46.098
46.7579 12.4413 46.3068
47.9519 15.1881 51.2857
38.2947 10.1781 36.7121
42.0742 13.4633 42.6507
34.2845 12.9398 45.3584
34.6351 12.5428 35.7144
38.866 14.9952 59.6257
33.4201 11.8198 32.1311
28.6429 11.7165 43.9424
48.3848 12.4606 52.4595
28.7886 11.0568 46.3182
25.6287 15.0871 48.7248
47.2178 19.0943 57.8579
29.5308 15.519 50.5585
17.1817 12.0204 46.0648
39.2814 11.8159 35.5293
43.6807 10.2838 36.069
32.0016 10.1623 37.5071
34.8668 10.5553 39.188
41.9844 15.0887 45.5847
31.9753 10.5217 35.9476
34.7733 10.2501 44.0294
36.9244 15.7654 46.3895
34.3677 14.2766 50.1716
24.9952 12.2972 45.7206
39.6772 13.5269 37.2051
37.1122 12.5221 57.6205
40.4294 14.7774 50.9097
32.7145 12.8367 39.7564
43.416 12.3742 38.0231
45.246 12.3477 46.638
35.9793 10.2305 40.2454
34.2962 9.88887 33.403
35.5685 10.8631 41.0975
28.1353 14.5918 36.0159
38.2264 12.6772 46.8039
40.3989 12.8875 38.2185
38.8028 14.2921 57.9231
44.0977 15.2273 47.6248
47.8257 10.9052 42.4754
43.8578 11.9739 37.9098
44.9439 10.2623 43.7189
32.5712 15.3458 50.9707
41.1809 9.97463 40.7219
39.3888 14.9259 51.1441
37.777 13.1177 46.668
50.4009 12.2508 46.6366
53.2985 11.8656 34.5287
43.245 12.1534 45.3344
31.3322 9.56136 41.6841
52.4431 11.5815 43.0933
38.1916 12.7516 48.7955
30.2554 12.8059 39.6974
39.2518 14.6453 46.5096
31.2864 10.732 39.122
36.8444 9.89714 39.9572
27.7543 13.6758 46.0288
32.1926 12.952 40.8386
32.4219 9.29988 27.9259
36.2407 9.16075 37.1315
43.3357 11.2101 42.2491
36.3286 14.2504 43.1713
28.9971 10.3694 44.9352
33.004 14.3773 63.8413
48.5178 11.8653 39.079
39.8514 14.8013 42.141
32.8419 14.1993 43.2352
36.3713 13.3903 44.2484
45.8804 10.3463 42.4349
30.6985 14.2451 47.9471
37.4908 10.7547 44.5546
52.1447 9.94956 29.6027
41.4211 14.6069 43.1306
36.0506 12.4727 60.1568
38.7757 14.8673 57.6718
37.5969 14.9969 49.3659
48.5547 7.71668 32.2686
52.9937 13.5329 54.013
33.2593 13.9527 51.7057
42.6425 12.5667 45.9795
59.2396 12.5698 43.0824
58.5069 13.337 42.4636
43.9883 10.0542 37.0117
43.1058 11.4426 44.3101
50.1328 10.8696 46.2306
45.9248 13.7183 53.8049
37.4406 18.9776 52.3318
40.5321 17.4355 68.3585
46.4847 13.8234 47.1568
36.1863 14.927 51.1118
40.2072 13.7282 58.5265
40.1889 14.9566 54.084
39.4748 11.7928 43.9089
32.3221 13.7517 37.8259
28.4357 11.8434 39.3569
34.227 8.82136 44.3906
35.5365 10.8766 33.278
25.3529 10.8472 40.4512
26.2352 11.1564 43.2543
34.57 15.8026 59.1951
23.8403 14.2743 50.363
23.3378 14.1841 54.0084
34.49 14.5348 60.0392
29.9108 12.1419 30.9011
22.2832 11.1021 45.6553
26.9866 9.95172 38.6981
38.8565 14.735 54.3002
27.4466 12.1862 38.8982
26.9435 13.2451 55.3106
39.5652 11.7913 40.7105
45.292 15.8375 50.2569
26.9317 9.47871 40.0517
32.1185 13.6829 46.5495
39.1914 13.9442 50.677
32.0138 13.9085 51.379
31.8443 13.1746 43.0127
39.121 9.66394 39.6467
40.5182 9.73505 42.1115
29.6085 11.3251 35.0061
33.8711 8.74442 31.0852
32.2038 10.9647 34.2379
26.9125 12.3337 52.6388
31.8602 13.6468 50.8528
36.8555 11.197 44.4898
35.4004 15.277 44.5264
37.0883 13.5238 45.9248
33.3655 11.6263 48.1907
35.2786 13.5073 63.6992
37.785 12.0084 32.0768
42.504 9.2598 40.7955
27.2631 12.8153 53.5955
35.2001 13.1948 38.3224
34.8218 10.1973 36.976
35.8881 8.53254 40.1438
26.6216 11.9145 38.4282
32.9896 10.7863 46.559
35.1973 11.0266 46.198
33.9586 12.2116 42.6354
34.6938 12.4084 46.0113
37.2007 13.464 46.985
36.6597 11.4072 45.7792
27.4775 11.5977 47.8448
19.5638 10.0759 33.9985
25.8842 11.8654 39.1331
31.9062 11.569 44.6856
26.1119 9.86786 42.7711
25.6163 11.6201 46.6415
31.187 10.8401 29.8484
23.7486 9.5728 41.2795
35.8962 11.1259 43.3204
31.4467 9.62945 30.2146
22.9055 7.05201 29.4904
22.5518 9.86617 38.2387
30.492 10.9059 36.8456
28.9688 8.20729 36.5062
23.153 11.1451 37.0432
35.446 9.73777 41.8797
40.3911 10.919 37.843
39.5402 9.23478 34.4378
28.0494 11.1101 46.9358
31.4636 12.0524 39.4723
37.3124 13.5114 50.8239
32.0943 14.0767 60.2926
33.7543 14.3122 47.9057
33.5205 11.4359 42.9351
34.9783 11.1742 39.4955
33.697 10.3946 49.971
40.6889 12.5746 38.7187
44.6707 13.9398 51.2083
49.0876 10.4825 38.4741
32.003 9.97704 35.2614
32.9555 9.6197 39.7878
39.0831 11.4755 38.8068
28.8553 11.8201 55.2775
29.795 9.98277 37.6355
24.8522 10.4449 38.2618
29.5356 12.2388 49.0302
28.2738 10.5471 42.0806
37.7577 12.3957 38.6499
23.8871 9.89664 44.1095
21.8962 10.6693 39.5717
33.1306 9.93719 39.6409
42.0569 10.4528 42.7344
24.0676 10.8465 50.3319
21.2067 12.6668 48.4012
34.2576 11.1055 37.5358
42.1905 12.7621 43.2505
29.8119 8.91349 36.4108
31.8967 11.2901 38.9318
29.7728 7.95342 38.7075
25.6412 11.8766 43.9008
29.795 10.2673 34.226
29.2101 12.4269 53.186
28.8037 13.6488 44.4084
39.4857 10.5213 44.4592
32.5459 11.9995 50.8184
38.1789 8.69475 34.1673
27.8306 11.6943 53.0849
42.4697 11.4728 37.5546
30.501 13.4269 42.7583
28.4133 11.1816 41.9921
25.7762 12.0554 61.9622
29.6903 14.774 47.7841
34.8174 11.3442 39.6641
36.277 10.985 48.483
32.7851 11.8549 39.7314
30.1202 11.2157 39.8743
37.5454 9.71465 39.6083
36.794 13.7431 50.693
28.0219 12.2149 50.1855
26.9337 11.4385 41.1515
42.3023 12.7036 43.0719
26.5053 8.33306 40.3019
22.7152 9.12965 29.4217
24.9605 11.3988 47.5596
28.2037 10.1058 42.6183
25.8158 10.6634 36.5173
27.8044 10.0164 46.3268
30.1918 12.5869 43.344
32.2503 9.59279 38.6881
20.643 10.2308 41.3939
37.5432 12.0435 46.1613
41.9378 11.9242 42.9792
38.5597 10.4919 41.7282
23.0509 12.8946 50.8381
30.3512 12.1215 40.0982
32.8557 10.8905 39.9646
35.1158 11.4094 46.2403
29.1003 11.5205 46.553
32.7146 11.9408 48.4497
38.4289 11.7867 39.858
27.8624 13.0989 58.7452
32.4768 10.426 29.694
45.4854 9.39696 48.5844
32.0798 12.6402 44.3733
24.8958 9.27661 34.8984
39.3846 8.65949 38.8372
47.0647 9.7604 36.3774
27.174 9.30747 35.0607
27.1765 10.8101 40.9027
31.7511 11.791 40.4975
28.2074 10.4133 53.2612
38.507 13.1609 51.0267
24.7387 10.8848 42.645
22.7022 9.85262 37.7106
36.782 10.0392 41.3926
44.7572 10.5607 34.7031
30.4626 8.96168 34.8655
32.7612 8.54458 36.5639
28.9947 10.1956 41.6917
29.6734 14.1218 49.8033
30.4448 11.2257 42.4098
38.6008 10.2772 47.7371
29.5222 9.84708 45.3408
24.7728 13.7841 49.2903
36.007 10.9045 49.1824
39.973 14.7554 55.4594
29.0336 10.5323 37.7436
37.4447 9.47553 38.1854
34.4907 11.4112 40.8833
19.5573 12.0294 50.1573
22.9681 11.8215 46.6827
37.8317 10.4 40.0333
31.5435 7.46235 31.6066
26.8928 10.7816 41.877
22.9718 12.9858 43.4664
38.1236 10.4884 45.0202
24.948 8.40535 34.4055
30.5785 10.4517 41.6497
26.5583 14.7988 55.0327
29.1758 12.274 48.1233
27.8871 12.5498 46.1525
34.3906 10.752 53.675
31.8617 13.7763 47.8071
31.6976 10.2742 42.6212
43.103 10.6993 41.5171
41.3383 10.1416 38.9644
32.0808 11.3343 46.2485
33.7599 11.3868 48.9437
30.5366 9.47531 31.9172
37.3348 10.0625 40.7688
36.5552 12.9802 38.6673
32.3652 13.4085 57.4541
35.3235 10.035 39.1772
38.7454 8.78268 43.1505
29.7091 12.5801 39.1969
34.1178 11.5874 43.1764
33.3484 7.62519 47.9509
33.1633 12.3178 44.0061
25.0194 11.1096 44.4099
28.3499 11.2759 55.4206
28.6871 13.774 48.9165
31.5355 12.0248 43.838
25.7926 12.4298 45.5299
34.3259 13.8233 56.685
29.6092 14.8358 49.6518
26.8208 11.2616 48.7416
31.527 12.2257 49.5757
22.554 10.6089 48.6782
21.7387 8.22815 31.4574
36.2012 11.2292 42.3253
25.0474 9.15974 37.8603
17.1313 10.868 41.5264
29.5254 9.58257 41.7287
36.623 11.1254 55.3826
28.5291 12.4305 50.3288
29.6399 12.7287 38.233
31.1524 9.96634 39.6889
27.481 9.30299 28.1762
27.1196 8.83187 40.8376
24.0371 11.7285 41.248
26.2385 8.12543 34.4532
24.9907 7.51032 29.6955
36.1825 9.52909 42.8131
36.4999 12.9364 38.6984
36.081 9.45677 41.1808
30.2425 11.2241 36.7127
37.9323 7.7084 34.8106
38.9251 9.54698 28.977
33.3463 9.6081 37.8548
27.0241 9.44322 44.6233
30.1917 10.4066 43.0546
24.5972 11.1449 39.9022
33.9467 11.5161 56.9208
38.596 12.5835 45.5127
30.4234 12.6505 48.3786
35.51 11.0961 46.917
41.5974 12.0011 45.3694
35.7996 9.69734 30.7663
34.7037 11.4958 47.8804
26.8458 11.1875 54.6003
36.6591 14.9326 52.876
29.8292 9.47983 53.4955
31.1576 13.8603 49.9898
41.2854 10.0413 44.8891
38.8369 13.7621 54.593
32.3611 12.7911 36.2357
23.3061 10.8918 45.8741
36.5456 10.9621 44.5348
31.26 9.37526 49.1193
22.7849 11.9782 43.0707
31.7711 11.2114 42.6745
33.7991 12.1186 42.6365
30.2981 8.98787 47.3042
20.7946 12.7439 57.3122
29.0452 12.9695 53.9216
27.4382 11.6041 52.1561
25.5189 12.8855 43.6893
29.448 12.4847 47.081
27.0529 13.0658 56.9762
29.9018 16.7329 44.4927
32.0399 11.2687 42.7076
38.2383 11.4265 43.9721
35.3583 8.71803 44.1032
30.9606 11.1521 49.9114
29.2562 12.7136 43.2914
41.0664 12.5706 58.8537
32.1881 14.7453 55.9311
30.96 15.3535 43.3338
45.7622 14.4543 45.5524
47.5165 9.55113 46.4365
44.2457 9.82445 38.852
44.6572 10.7112 53.5255
48.9384 11.3522 37.1492
58.1434 7.08931 33.6052
43.9122 11.3986 53.6629
34.6527 0 0