# pn-170911/RbIIR-46-USN7-1280-1959.psd
# Power spectrum* (dif=0,1,2) (really just |FT|^2)
# NOTE: only the first half! (symmetric)
# weeks: 1280-1959
# 394 clock-days, 143 excluded
# PSD: 1441
1586.99 0.138524 0.0643638
137908 2.99749 0.147061
376959 7.32342 0.132368
54362.8 1.58213 0.145757
55042 3.02669 0.138376
16814.1 1.00458 0.137589
11160.2 0.99888 0.13345
8785.98 0.791991 0.133156
5605.52 0.842851 0.149844
4023.9 0.696609 0.132976
2965.5 0.683914 0.138654
2853.11 0.695661 0.131888
2622.64 0.711253 0.152086
2246.24 0.728055 0.137489
1840.33 0.722491 0.148384
1707.28 0.782548 0.141414
1372.65 0.783516 0.133609
1327.5 0.820819 0.143367
1189.43 0.810329 0.141429
1020.9 0.836052 0.131206
977.17 0.933274 0.132227
930.425 0.966378 0.148386
835.929 0.960886 0.138072
829.467 1.13107 0.133811
877.762 1.42685 0.131582
697.91 1.18732 0.134312
723.031 1.38 0.14346
644.976 1.39179 0.138
737.406 1.68598 0.152406
684.987 1.72662 0.148113
655.828 1.78789 0.147739
634.486 1.9982 0.151532
572.848 1.95653 0.15422
582.779 2.00463 0.143856
627.797 2.5883 0.158779
615.268 2.71594 0.158847
639.899 2.73133 0.159937
569.091 2.76195 0.16109
586.075 3.07575 0.173497
611.396 3.39122 0.184985
589.829 3.49116 0.169634
574.347 3.77586 0.177124
577.963 3.71452 0.169327
610.634 4.02674 0.174247
563.322 4.08706 0.171457
535.953 4.1829 0.177467
540.25 4.2193 0.18086
534.235 4.96145 0.195509
588.231 5.4877 0.197424
529.723 5.13344 0.202524
525.816 5.26111 0.185365
586.697 6.20077 0.210765
559.591 6.28864 0.22525
644.31 7.15292 0.218831
544.971 6.54285 0.249535
506.471 6.18124 0.232933
517.016 6.38142 0.253034
545.647 7.44876 0.260646
513.739 7.12305 0.25513
491.546 7.13891 0.266062
538.889 8.06262 0.262234
487.485 7.76925 0.266584
469.959 7.69298 0.283375
517.275 8.3825 0.290729
453.027 7.80417 0.285091
515.038 9.1665 0.306096
494.115 8.6499 0.315949
534.969 10.0847 0.353014
440.382 8.79224 0.334546
468.464 10.0278 0.370211
479.376 9.71856 0.370042
455.492 10.0627 0.35917
435.653 9.91658 0.384546
412.859 9.83956 0.370525
449.988 10.62 0.430893
429.703 10.5391 0.460525
456.334 11.7767 0.462461
463.025 11.8029 0.466739
437.584 12.1284 0.479655
399.266 11.0711 0.446813
430.296 11.4481 0.47831
413.765 11.4086 0.47488
403.842 11.9711 0.498284
415.77 12.6526 0.530317
394.272 12.281 0.518205
382.949 12.1818 0.544775
400.679 12.5769 0.55215
392.32 12.5881 0.534563
391.58 13.1454 0.610757
324.557 11.3 0.536693
357.427 12.783 0.60042
401.359 15.4138 0.689331
356.547 12.6103 0.629438
324.281 12.2787 0.636766
336.486 13.4134 0.651975
326.775 13.057 0.645111
463.034 19.5562 0.935586
363.609 15.0187 0.759444
300.182 12.3401 0.656409
339.187 14.8046 0.772019
337.548 14.622 0.807092
285.313 12.6539 0.724392
333.277 15.2986 0.871089
307.263 14.3972 0.866769
331.505 15.3018 0.913471
280.231 13.5204 0.795816
291.989 14.8759 0.875803
303.712 15.848 0.92227
331.26 17.2128 1.05654
269.803 14.1082 0.886562
266.168 14.2347 0.908141
247.471 13.7462 0.931811
272.131 15.245 0.945075
267.107 15.7062 1.06101
277.994 15.9817 1.08024
276.75 16.7256 1.15215
254.463 15.4921 1.03584
250.383 16.0245 1.14193
219.705 13.171 0.983368
262.052 16.9816 1.18594
290.428 18.7966 1.37867
239.524 14.8882 1.12632
221.443 14.2833 1.14617
238.489 16.3368 1.22556
262.901 17.721 1.44999
254.704 17.1861 1.32727
228.293 16.2963 1.34521
231.628 16.3763 1.32795
212.97 15.8117 1.30279
242.774 18.3911 1.52554
216.588 16.3214 1.39192
237.686 19.2011 1.69766
242.224 18.2023 1.55883
224.716 17.8976 1.61169
176.333 14.4913 1.326
211.601 17.882 1.66955
202 16.4003 1.48959
222.32 18.2385 1.66361
198.942 16.5568 1.49727
186.136 16.5187 1.60391
174.191 15.36 1.5176
178.165 15.689 1.56093
175.973 15.5086 1.53495
197.627 18.1966 1.84177
257.01 25.1321 2.41579
204.558 18.441 1.83149
166.915 16.2624 1.64839
193.17 18.398 1.91331
196.204 19.7448 2.09547
194.045 19.0353 2.02246
154.438 16.2477 1.81234
176.981 18.0494 1.94262
177.908 18.4195 2.10571
175.733 19.0577 2.17405
177.554 18.7201 2.21475
195.827 21.7999 2.62226
181.254 19.8332 2.31903
180.459 19.971 2.37375
167.032 18.2063 2.18052
162.742 18.3102 2.17848
168.349 19.1246 2.39596
168.758 20.4001 2.58147
172.698 19.8407 2.4228
161.779 18.9858 2.44301
156.08 18.2792 2.40463
162.156 19.661 2.54955
169.03 20.3612 2.64102
171.846 21.8656 2.93433
173.564 22.3827 3.01313
159.521 19.6458 2.5096
141.472 18.8721 2.65618
135.795 17.9151 2.46593
158.612 20.572 2.89953
141.988 19.2154 2.78568
161.909 22.639 3.21854
159.081 21.3543 3.0502
141.543 20.0843 2.99729
135.074 18.8361 2.81993
132.981 18.88 2.81542
141.57 20.4273 3.07904
139.19 19.84 3.19374
135.88 19.3307 3.10767
144.829 21.6484 3.34186
127.392 18.5812 2.98907
123.464 19.2162 3.0912
131.475 20.5764 3.36667
135.801 20.2578 3.25915
122.942 19.1115 3.21694
131.097 20.6796 3.46888
130.939 21.1445 3.48212
113.89 17.9669 3.05325
123.377 20.8124 3.61977
213.205 35.9294 6.0866
130.327 21.8925 3.76009
117.207 20.0256 3.54192
122.773 21.5184 3.74737
120.273 20.5567 3.72229
116.344 20.2972 3.71682
113.802 21.1437 3.97959
127.477 21.3318 3.88006
114.924 20.6971 3.97066
118.283 21.0112 4.0065
109.647 20.4749 3.91121
119.67 22.0302 4.14411
119.674 22.4751 4.41952
125.219 22.203 4.34191
117.091 21.9197 4.38215
115.51 21.5002 4.31818
112.367 21.4447 4.34561
114.96 22.3039 4.51105
106.155 20.7439 4.22176
115.093 23.2574 4.97393
101.79 20.8872 4.41014
115.483 22.7627 4.85825
107.397 23.1113 4.93172
103.383 22.1813 4.88183
116.71 23.9162 5.0527
95.3585 20.3098 4.45292
101.037 22.1608 5.02806
104.298 22.7118 4.99518
104.119 23.3218 5.18898
105.008 22.1845 4.95969
110.56 24.6341 5.56748
98.2485 22.2446 5.06758
90.5885 20.8964 5.00211
100.113 22.841 5.3766
90.7732 20.6154 4.91954
100.459 22.6772 5.36252
88.6342 21.7409 5.37532
101.954 23.7397 5.53474
97.3542 21.5468 5.17442
92.8799 21.6703 5.38947
96.7408 22.9675 5.87744
92.0731 22.2948 5.70286
93.8651 22.9025 5.7949
87.394 21.7786 5.74687
92.3307 22.3422 5.55362
88.7822 22.0759 5.78131
78.5197 20.4133 5.50869
94.4743 23.939 6.48623
93.7662 24.2331 6.30302
91.7775 23.9016 6.32055
89.8151 23.1548 6.30114
92.2324 24.2377 6.51483
86.3886 22.9298 6.49813
98.8825 26.1688 6.95941
87.5557 23.8243 6.82564
93.6076 24.9819 6.88709
81.6034 22.8269 6.73367
79.9667 21.6415 6.33354
85.692 23.8201 6.67091
79.8258 22.4181 6.85009
86.9583 25.1961 7.39438
95.7967 27.1059 7.79636
75.2993 21.6815 6.36395
71.9498 21.2457 6.29155
81.044 24.9522 7.52415
78.4857 22.0565 6.53532
86.1762 25.5816 7.99692
87.1771 26.1664 8.15619
82.215 24.9209 7.86527
89.9337 26.73 8.39508
80.0119 23.8368 7.57173
72.4502 22.3327 7.3119
84.1919 27.1935 8.71601
78.7027 23.9545 7.59192
70.2211 22.6664 7.44461
74.3041 23.4647 7.46789
73.0084 23.9545 8.09439
89.2434 29.3594 9.79643
72.0304 23.4523 7.9642
78.3227 24.9713 8.17013
64.3374 21.3649 7.5554
77.1286 24.4796 8.25886
74.3379 25.1061 8.74382
71.138 23.3921 8.28859
77.5295 26.5292 9.22604
75.6106 25.4263 8.99536
71.6375 24.3905 8.66435
66.0217 22.676 8.31801
69.502 24.4809 9.06917
71.2582 23.7871 8.59587
73.4547 25.4761 9.17504
68.8267 24.5772 8.88212
75.9755 27.2933 10.0384
71.1178 25.6944 9.57732
66.1415 23.9172 9.15271
69.6382 25.3338 10.0777
126.808 45.8951 16.8754
72.3513 25.5506 9.68651
66.549 24.757 9.60048
58.6229 21.8319 8.57139
67.6921 24.8514 9.53502
68.1483 26.0794 10.2125
63.7839 24.25 9.70148
62.9628 23.9907 9.40332
59.2173 23.2317 9.60292
63.1665 24.6254 10.0332
66.8671 26.9666 10.8484
61.6134 24.1944 10.2069
69.361 27.1385 10.8352
59.3287 23.4064 9.67848
63.5773 25.7535 10.8377
61.968 24.5617 10.1889
63.4047 26.2043 11.0797
59.9098 25.2835 10.7976
63.1892 25.7757 10.7751
60.2746 24.9115 10.7428
54.8672 22.5572 9.79831
57.5652 24.7744 11.0335
58.576 25.1176 11.1831
58.3905 25.2986 11.323
57.0651 24.7675 11.3002
57.7849 24.5126 10.8029
58.6766 25.2883 11.4612
58.5763 23.7411 10.4507
54.0154 23.7531 11.0916
56.8513 25.2018 11.259
58.1054 25.3202 11.8689
62.6389 28.3229 13.1275
50.9156 23.132 11.0433
60.6856 27.2331 12.7396
55.2598 25.2639 12.1512
59.9151 27.3225 12.7631
54.3615 24.8951 11.8904
51.3839 23.1998 11.0025
53.8275 25.7348 12.5236
51.8222 24.324 11.8496
50.6875 23.8515 11.8675
50.8015 23.9908 11.654
51.8002 25.0628 12.5826
52.7381 25.4406 12.7677
50.5394 24.2742 11.7935
52.8563 26.1213 13.4331
50.0518 24.3185 12.2177
49.7906 23.2806 11.7054
54.8601 26.8334 13.8521
57.4781 28.0786 13.9434
51.8917 26.2254 13.8456
49.5149 25.1864 13.2354
53.3977 26.3064 14.0807
52.6311 25.7157 13.2098
45.8324 23.7109 13.0587
50.9812 25.3021 13.1885
51.0653 26.275 13.6729
49.8705 25.9875 13.9928
49.7759 25.3676 13.7296
45.531 24.2529 13.2523
48.18 24.9376 13.8588
51.5402 26.8693 14.3692
47.1629 25.2065 14.0354
48.0693 25.9824 14.3765
44.7518 24.2855 13.8131
45.5057 25.0378 14.2814
47.4434 25.8743 14.7453
49.4024 27.6303 15.8812
47.5049 25.0584 14.0662
45.0059 25.5664 14.9558
48.7609 26.7305 15.6046
45.5899 26.3486 15.6185
48.7476 27.0072 15.8703
45.3317 25.1563 14.766
45.7296 25.423 15.2035
42.8457 24.5889 14.572
46.0124 25.4816 15.5109
47.7547 26.6642 15.9561
45.1403 25.8505 15.6676
43.7331 25.2509 15.245
40.7744 23.6931 14.3481
42.0254 24.9139 14.9427
44.5082 26.0119 15.8616
40.9441 24.5645 15.1122
40.3412 24.0393 15.0425
40.6542 24.5031 15.4531
45.024 27.5471 17.1684
40.3191 24.4515 16.0618
46.1989 27.3922 17.1003
40.4211 24.9089 16.1555
41.1274 25.777 16.5639
43.588 27.392 17.7579
42.4205 26.1023 16.7398
40.6136 25.6631 17.0138
41.5326 26.3709 17.4615
40.2833 26.4838 18.8727
81.0536 51.2962 30.6923
38.699 25.1845 17.438
42.0598 26.2859 17.2781
39.4115 25.8944 17.4762
38.7495 24.4874 16.4204
39.4515 25.8505 17.4984
38.0697 25.2311 17.6468
40.1882 25.4176 16.9197
38.0008 24.9578 17.1741
40.7454 28.2186 19.4296
38.3571 25.5767 17.8855
40.4297 25.9111 17.8962
37.4364 24.8747 17.3219
39.095 27.3624 19.3589
36.4355 24.916 18.0955
37.5216 25.0171 17.3971
36.5042 24.727 17.7863
37.5873 26.0682 19.105
37.1315 25.2923 17.9287
36.3365 24.6006 17.9367
38.232 26.9711 19.748
40.2062 27.557 19.8647
36.3117 26.3217 19.8794
41.7609 28.7446 20.7089
36.9217 26.6619 19.4317
35.4632 25.5526 19.558
40.1351 28.3849 21.2202
40.509 28.5551 20.8584
38.098 28.2864 22.0269
38.6423 28.1653 21.6675
36.9057 27.0228 20.6721
36.7251 26.4743 20.1091
37.858 27.4955 21.0475
40.7197 29.5529 22.4941
41.8424 31.5677 24.8579
38.0797 27.9121 21.4362
35.5713 25.9031 20.3524
39.0214 29.4142 22.9445
34.3282 25.028 19.6755
34.1473 25.7229 20.9786
34.2205 25.5868 19.3543
33.7456 26.7696 21.5718
37.2636 27.6328 21.7404
33.2655 26.0725 20.9316
35.2958 27.8034 22.5989
33.2179 26.6367 22.1897
35.7476 27.8399 22.6709
32.3749 25.053 20.3855
33.8847 26.5226 21.7921
36.2375 29.4067 24.3305
38.2524 28.9452 23.3232
35.4411 27.8792 23.5336
32.1378 25.1404 21.2014
36.1433 29.1197 24.5545
34.4706 27.9712 24.0807
32.9077 25.6041 21.3977
32.1231 25.2668 21.8337
33.1246 26.9561 23.4658
31.6256 25.108 21.494
33.6635 27.287 23.2213
32.2136 26.8532 23.3491
32.7799 26.7059 22.8283
31.9642 26.6521 23.1616
32.7503 27.3904 23.9267
33.7647 29.5338 26.1821
32.318 28.2785 25.1899
30.7052 25.5348 22.6932
30.377 26.3633 24.6808
33.9729 28.5143 25.0666
32.5707 27.6636 23.6697
28.6829 25.6331 23.4773
32.6585 26.9641 24.3563
32.735 28.6624 26.3803
31.4446 26.5407 23.6924
29.9832 26.0669 23.8357
27.3538 24.7294 22.7364
27.4926 24.7431 23.7624
31.6228 27.257 25.0676
28.7251 25.226 23.5489
31.097 27.2629 25.2039
31.264 28.3785 27.2668
32.0193 28.9402 26.8368
28.0919 25.9507 25.7634
31.0524 27.0161 24.6817
27.073 24.9725 23.9031
28.1421 25.3254 24.3535
30.1324 27.4352 26.2431
27.7435 25.3333 23.9909
26.3933 24.2145 23.5061
28.5366 26.7016 25.3417
26.798 24.7098 24.0264
27.8613 25.3585 25.3408
27.3784 25.0685 25.074
28.492 26.6748 26.667
28.1629 25.4042 24.6023
24.7012 23.8914 27.1093
52.5502 50.9732 44.8484
26.9698 25.4632 24.9983
26.0029 25.3939 25.8657
25.6196 24.1447 23.9744
22.5579 23.1592 24.2818
24.4839 23.4033 24.2466
25.0592 24.7409 25.2698
24.6872 23.973 25.4033
25.2253 24.1019 24.9268
25.1837 24.0708 24.496
26.7323 25.504 26.0468
23.4862 23.8994 26.2239
25.056 24.5266 24.8073
23.8232 23.3049 24.708
25.9937 24.9588 25.2952
24.8575 25.4725 27.391
25.9017 26.3413 28.3119
24.1553 23.4895 24.7274
22.8399 23.6068 25.1815
24.2774 25.2418 26.9101
22.9221 23.2257 25.04
23.2674 22.6299 23.5219
23.7001 24.7115 26.6206
21.24 21.6186 23.8733
23.5152 23.237 25.1424
22.7155 23.6969 26.8889
24.1238 26.0955 28.8118
24.6211 25.8051 28.1021
23.3109 24.8418 27.4652
22.3375 22.432 25.2912
24.6412 26.2256 29.2715
24.975 25.601 28.2312
23.6502 25.3233 27.6609
24.4344 25.2808 27.8661
22.6894 24.3083 27.3842
22.3406 25.1006 29.64
25.256 27.3439 30.8157
23.2793 25.132 28.0967
21.0353 23.0985 26.4729
21.0077 22.6402 25.8561
22.0803 24.9031 29.5519
22.7427 24.1314 27.4422
22.315 25.0519 27.8507
20.6018 22.9585 27.6144
20.5701 22.5103 26.5865
24.1478 26.9369 30.9944
23.8715 26.543 31.3085
22.0689 24.6746 30.0269
22.4441 25.5193 29.743
19.9493 22.1332 27.1704
20.7638 22.5498 26.2252
20.4209 23.4531 29.1796
18.6472 20.8475 25.9303
22.2688 25.4479 30.7333
22.1387 25.1928 30.5569
21.9581 23.7067 27.864
21.1847 24.9713 30.0221
19.7832 23.268 28.8534
19.7682 22.4434 27.7612
19.6052 22.9681 28.3599
19.8553 22.4671 27.3536
21.428 25.3816 30.8052
18.6869 21.4353 26.5238
21.8513 26.0832 32.21
21.9881 25.6193 31.702
20.3354 25.7115 33.2473
21.6419 26.1426 33.0807
20.564 23.9039 30.3931
20.8081 25.1706 32.2485
20.6546 23.057 28.989
21.0119 24.412 29.9631
21.1116 26.5785 34.3406
18.7294 22.7188 29.9407
20.4392 24.0752 30.5543
20.0547 23.2527 29.7012
20.0645 24.0367 30.5929
19.6018 24.1941 31.5272
18.6696 22.4821 28.9038
20.852 25.114 32.402
19.5811 25.3651 32.4405
19.6944 25.3324 33.0056
18.8824 22.9273 30.6998
19.1882 23.6496 31.6356
19.4678 24.9461 33.2208
18.76 22.8241 31.0112
21.141 26.49 34.0638
17.0775 21.313 29.4921
19.128 24.4866 32.8801
18.9443 23.3973 31.4414
18.7583 23.4286 30.6235
18.1706 23.2848 32.898
18.4545 23.0932 31.9261
19.2322 23.8383 30.5155
16.8897 23.5905 33.3897
18.4167 23.8258 33.8393
17.8727 26.5685 46.8903
41.6117 50.9418 57.5598
18.3263 23.4233 32.7887
17.3134 21.6864 30.1792
17.5624 24.0815 32.6268
17.0203 22.8617 32.5859
17.4788 23.3501 33.3821
17.6048 22.0792 31.3062
18.2314 23.3405 31.714
16.9648 23.5099 34.4928
17.9921 23.3882 32.773
17.2084 23.3425 33.4411
16.9481 23.0778 33.3903
16.5782 20.894 30.079
18.4249 24.9816 34.2816
16.8911 23.2938 34.7758
17.7635 23.2929 33.9553
16.7011 21.4669 30.8176
17.0562 23.4056 34.024
16.6439 22.0053 31.9456
16.5567 22.86 33.7155
17.6935 22.8578 32.0877
16.8886 24.8722 36.0555
15.667 21.704 33.1893
17.3771 23.5215 35.3215
17.6903 25.2257 37.7383
16.7095 21.8645 32.0454
16.0295 22.4846 34.4062
17.12 23.0862 33.6811
15.513 21.9535 33.7939
17.8946 23.6488 33.098
16.5906 23.9697 35.2496
16.0012 24.6375 38.6201
17.0619 22.2484 33.1298
15.5743 23.6513 37.4715
16.87 23.8423 36.4644
16.1164 24.0752 37.0588
16.2154 24.7999 39.2176
16.4752 21.6266 32.3061
17.1005 25.5162 40.0679
16.4334 23.1563 34.521
15.2023 22.0396 33.2903
14.7325 22.0515 34.5658
16.364 24.2297 38.7821
16.1764 23.5241 37.377
17.4454 24.0746 35.7311
16.2491 24.8606 37.7194
14.1262 21.3985 35.1618
16.3348 23.4136 37.0822
15.3859 23.6313 38.553
16.0328 22.1893 34.1344
15.6916 21.5722 33.1871
13.3035 21.2171 35.7402
15.2927 21.7483 34.246
16.0449 23.5479 37.8616
15.8473 22.5332 35.1047
14.473 21.5326 34.2477
14.8385 23.613 37.6948
13.8219 21.0476 34.8067
15.0371 21.7906 35.3911
15.2278 23.9361 39.7487
16.5046 24.699 39.9983
15.5882 23.4173 37.662
15.2193 24.1448 39.0761
15.0331 22.3914 34.9694
13.2408 21.3303 35.4123
13.9943 21.9724 37.2999
13.7825 21.7598 36.871
14.6695 23.3366 38.9668
14.8564 23.2973 39.3994
15.3595 23.4912 38.1076
14.3605 23.3637 38.338
14.0194 22.8082 39.1122
12.8505 20.8326 37.0097
14.5363 22.3208 37.3772
14.2512 22.4965 38.2709
13.335 20.9235 35.1205
13.3989 21.6937 37.0537
13.8307 22.0535 37.2902
13.7011 21.807 37.554
14.3986 21.8834 36.6716
13.2003 21.667 37.8922
14.0055 21.4938 37.1506
14.6548 23.3904 37.6061
12.2062 20.7562 39.371
14.5102 22.4714 38.9391
14.0767 21.8877 37.4088
14.2609 23.8642 40.4675
12.3131 20.1567 36.7674
14.1069 22.9503 40.2553
14.258 23.5671 41.5511
13.0518 21.3491 39.0812
15.1085 24.6102 41.4968
13.051 21.3036 37.6778
13.2775 22.7428 40.7305
13.6306 22.3025 39.9922
12.7559 23.7709 57.9846
30.0157 46.6797 64.2633
13.9162 25.1268 44.6966
12.7366 21.7888 40.3299
13.7932 23.3281 42.575
12.9455 21.3919 39.4394
13.5207 22.678 39.5604
11.6598 20.3819 39.3316
12.9845 21.7651 41.3361
13.4896 22.2459 38.5098
12.1477 20.0125 36.7778
12.9716 22.1687 40.4308
12.826 22.2576 40.1844
13.5846 23.1327 39.8295
11.239 18.9896 35.1535
11.4546 20.5296 38.399
11.8049 20.8522 39.7712
11.7263 20.4546 38.0878
11.0107 17.9692 34.0146
11.7016 20.0731 37.948
12.1761 21.2214 40.2007
12.7732 22.4819 41.6952
13.193 22.9883 45.0846
12.9161 21.1271 37.9829
11.721 21.8079 42.7833
12.5345 20.8756 39.1435
12.5125 21.8059 41.371
13.8561 24.1194 40.7017
12.5841 27.1801 55.5372
14.9495 24.8269 41.7506
13.9315 48.2499 145.742
39.7349 44.8881 48.4349
14.042 27.8227 51.3365
13.393 22.6978 42.5464
12.1293 20.3184 39.7596
13.0604 22.6897 41.887
12.0653 22.2014 40.862
11.7378 20.7246 40.0346
11.2596 20.402 39.7137
11.0667 19.73 39.8456
12.5941 22.9676 43.8405
11.4434 19.7389 38.656
11.2308 20.3813 40.8404
10.8653 18.9722 37.6643
11.8818 20.9394 40.751
10.9705 19.6584 37.655
10.7822 19.9563 41.3818
12.1099 22.1284 40.7887
10.4878 20.4534 44.2487
13.0527 23.1446 44.9648
11.8448 20.1222 37.1747
10.7028 21.5749 44.1774
11.1112 19.1298 39.8722
10.6302 19.1434 39.4029
11.4807 19.9245 37.8225
9.44231 18.1801 38.9702
10.8069 19.072 38.6692
11.3453 21.2931 41.5524
10.5024 19.3196 39.298
10.8796 19.8034 39.9852
9.86461 17.6523 36.6164
10.2014 19.0186 38.4863
10.7444 21.048 43.4717
10.4767 20.1879 42.3332
11.1906 20.405 41.2943
10.9834 20.6071 42.7474
10.8497 20.0401 41.5821
10.5372 19.1771 39.6121
10.0921 19.8648 42.3963
10.7624 20.4018 42.262
10.4584 20.1113 42.3355
10.0768 19.0694 39.386
10.5505 20.2599 43.8037
11.0739 19.964 40.517
9.93677 19.1323 40.469
9.45433 18.3518 39.2852
9.83308 19.5676 43.7749
10.794 20.3101 40.4658
9.90108 20.2477 43.1925
9.94064 18.258 38.4269
9.29171 19.3024 41.3168
9.49846 19.0898 41.6928
9.89914 19.1149 39.403
8.97375 18.2764 41.7163
10.0642 19.6326 41.2654
9.84166 19.5484 41.9148
9.84991 18.9905 40.9404
10.267 19.6928 42.3873
10.1059 20.4829 42.8213
8.11366 16.567 37.5717
9.5305 19.1823 40.9071
9.28013 17.3011 39.2997
9.25356 18.9352 41.8268
9.45192 18.3906 40.618
9.31355 18.6088 40.7912
8.84932 18.9505 45.1889
9.66445 21.9559 70.3701
23.0998 43.4582 66.2442
8.72882 18.8322 41.6473
9.0187 18.4536 40.833
8.77509 18.1711 41.7572
8.60382 18.7528 42.9446
9.85767 19.4965 42.6488
9.65777 19.8507 44.5741
9.2235 18.6444 40.3853
8.91432 18.6015 41.7063
8.50342 17.3482 39.581
8.89498 18.7277 41.7851
9.20574 19.0447 41.4373
7.94808 16.4048 40.2094
9.03072 17.1729 38.3134
8.99707 19.1173 44.002
9.47361 19.4257 41.9956
8.67806 19.3234 46.9012
9.87103 19.424 40.5774
8.79297 19.1839 43.408
7.85555 17.2806 39.3417
8.65649 17.3542 40.8965
8.83218 18.4731 42.7629
9.32879 18.8979 41.9095
8.42429 17.7925 39.5165
7.80754 16.4439 38.9608
8.3981 18.1363 41.889
8.95243 18.8964 42.6515
8.18302 17.7084 41.9285
8.83653 18.3616 41.4143
7.90311 17.7295 41.8491
7.82951 16.3622 40.0576
8.13502 17.934 42.5477
8.70186 18.1465 43.5078
9.07862 18.7156 42.1159
7.81494 17.98 44.0903
9.3297 19.1159 41.6177
7.77668 17.4997 41.9596
8.40835 18.8567 44.793
8.64443 18.0764 42.0974
8.07184 18.1046 43.302
8.62588 19.222 47.5119
8.89062 18.1676 42.4968
8.56252 17.4836 42.0581
8.81969 20.6274 48.4831
8.4297 18.1071 44.4139
8.59424 18.7925 43.6295
9.06306 19.4217 44.859
7.94814 17.2366 42.1018
7.95387 17.8365 44.6754
7.91457 16.8668 43.2785
7.80033 17.1646 41.6053
7.92583 16.6948 38.8216
7.53202 18.6393 45.4084
8.03685 17.0928 42.9646
7.92068 16.8538 41.3029
7.86482 17.2977 42.3361
8.40744 17.6718 43.1247
8.31222 18.6965 46.8046
8.23936 17.0476 40.4456
7.5267 16.4313 41.1257
7.88857 16.4961 39.37
7.38468 16.715 41.207
7.99561 19.5805 46.1774
7.7878 17.8141 44.1903
7.96569 17.8437 43.8737
7.82783 17.2765 42.0049
7.62467 17.9267 45.2383
7.51402 17.367 45.5253
8.06561 17.3818 42.243
7.45432 16.2148 40.5975
7.46382 17.2725 43.8876
8.05306 17.3383 44.2312
8.58031 21.0313 51.3235
7.84914 17.8601 44.2498
7.71665 18.0479 44.8501
7.33738 17.3372 42.3161
7.17522 16.7332 45.7687
8.01134 17.0719 43.5963
7.43461 16.5972 41.7382
7.68876 17.2187 42.4047
7.32862 17.1907 43.2301
7.05783 15.4437 37.1376
6.90967 17.5576 44.4532
7.39614 18.2196 47.1857
7.246 17.2998 46.1882
7.67298 17.3698 46.0039
7.90257 17.1821 42.5294
7.42799 18.2515 48.3332
7.7953 17.5996 45.6142
7.72491 18.0713 44.8495
7.05641 15.507 42.9934
7.92681 18.0221 43.18
6.51413 14.79 41.0182
7.55788 18.4836 45.3158
7.35896 17.9254 49.6751
7.72889 21.2131 83.045
16.6003 34.9581 57.4133
6.64088 17.4462 45.5932
7.20065 17.1872 44.9776
6.75966 16.7977 46.721
7.25629 15.9313 41.9607
7.11115 17.6508 45.8272
6.91517 15.7359 42.7098
7.14668 17.3096 43.5521
6.30477 15.3721 42.0909
7.12472 17.5621 47.7329
7.73615 18.5965 49.5328
7.65238 17.3099 44.4559
6.4762 15.9283 44.7171
7.21125 17.2561 43.6524
6.72271 16.7627 44.7534
7.04659 17.369 45.4465
7.15497 18.1211 48.9102
7.11167 16.6138 44.6089
6.54947 15.5766 43.6705
7.277 17.4997 45.0839
6.7581 16.2885 43.869
6.67135 16.4376 44.6595
6.27466 15.1994 44.2763
6.92492 16.0599 43.4738
7.40995 17.9275 45.9288
6.81352 17.3595 47.1905
6.95467 16.8057 44.3425
6.28127 15.0703 42.4173
6.77508 17.0214 47.3006
7.27606 18.0196 46.4581
6.45089 15.7016 43.6111
6.771 16.6019 46.6294
6.59335 16.1627 44.6656
6.45321 15.1321 41.0691
6.64321 15.9132 42.2324
6.57041 18.1149 50.5965
6.89116 15.4499 44.6147
6.61598 16.669 44.2517
6.3868 16.7751 45.3024
6.07683 14.4598 40.749
6.289 16.4304 47.2339
6.42565 15.4105 42.6971
6.86965 17.4648 46.432
6.31387 15.3292 42.2514
6.17641 15.9351 46.5099
6.65308 15.8523 43.5149
6.38771 16.5667 44.9393
5.96972 16.4647 47.6323
6.72112 16.4269 47.2066
6.69759 16.6629 44.5953
6.47178 17.1261 46.6864
6.34108 15.7399 43.993
5.89833 15.7167 46.3734
6.29603 16.0644 44.0298
5.84552 15.1095 46.6772
6.71467 16.252 40.4319
5.02995 13.6682 42.5372
5.93397 15.038 45.7539
6.79196 16.5779 46.3128
6.24915 15.095 41.7967
6.24449 15.4046 42.8298
5.71161 14.7559 44.5523
5.93472 15.1406 42.9943
5.84681 14.0904 39.419
5.75593 16.7779 46.5904
6.02748 15.3973 46.6809
6.18946 15.1671 41.2994
5.97634 15.7932 44.5734
6.13315 16.1925 47.2477
6.1235 14.795 45.2668
6.13085 15.0622 42.5854
5.78911 14.9456 42.6957
5.72545 15.8573 46.5362
6.21369 16.241 48.8362
6.05384 15.8043 46.8205
6.24956 15.2284 43.3249
5.89066 16.2785 48.0925
6.19449 16.015 46.7726
5.86397 15.47 46.0294
6.20144 15.2031 44.717
6.09168 15.621 44.898
5.93138 15.3698 42.7834
5.42069 14.3267 42.6972
5.55857 14.2646 44.7793
6.0218 16.0935 45.5184
5.60239 15.2418 46.1865
6.23533 15.6213 44.9522
5.54039 15.0829 45.4408
5.83388 14.1216 42.4399
6.00362 15.9906 45.8828
5.82546 15.102 42.6669
5.53538 15.2139 46.5553
5.64229 14.7999 45.5634
5.87868 16.8477 50.8815
5.80144 14.9798 47.3265
6.22233 20.2959 98.8493
14.1447 33.0307 59.554
5.6184 16.0991 44.6988
5.09972 14.9952 46.8097
5.78681 14.1982 42.5915
5.40238 15.0498 46.6432
5.81272 15.169 41.65
5.23571 14.4337 43.9982
5.29568 15.1395 47.8974
6.00513 14.9157 44.2755
5.61075 15.2474 48.5617
5.9863 15.7069 44.5988
5.37796 14.7643 44.8562
5.57741 15.5733 48.6834
5.81021 16.2303 50.6575
6.36549 17.6433 51.6827
6.22941 15.4945 46.051
5.72674 15.9821 49.5063
5.93271 16.3645 50.1966
5.53962 14.5367 47.2521
5.85582 16.4873 50.4246
5.96636 16.6016 49.2748
5.54377 14.4952 44.3318
5.46738 14.4054 46.7714
5.97561 15.321 45.0825
5.34087 14.2419 42.4775
4.99781 14.4182 44.2614
5.64163 15.0824 45.6742
4.95688 13.4891 44.8056
5.72664 15.3594 45.3222
5.7524 16.3048 49.4118
5.91934 15.6957 47.275
5.5066 15.385 46.8387
5.50555 15.0175 48.1729
5.36726 14.0933 46.3151
6.09621 16.5977 50.2778
5.71872 15.4299 45.8221
5.05913 12.8739 41.4278
5.00855 14.7234 46.0762
5.52099 15.2257 49.8243
5.55942 14.6653 44.0409
5.14081 14.4702 47.1078
5.53994 14.5592 46.5062
5.35037 15.4021 47.1263
5.21302 14.8459 44.6293
5.27738 15.7538 48.4205
5.21025 14.6661 49.1426
5.74629 15.3398 49.8303
5.65842 15.1555 44.2717
5.183 15.029 47.2471
5.21056 13.8944 44.7342
5.22727 13.0544 41.7525
5.02417 14.6752 47.4307
5.58894 15.1048 47.8993
5.71952 15.4719 49.452
5.54484 14.6257 46.6815
5.20127 14.6802 45.924
5.16282 15.5777 48.5963
4.93703 13.9454 44.3946
5.13344 14.6952 45.7774
4.96592 15.0206 46.9814
4.75138 13.1374 45.0017
4.92797 14.3641 45.0585
4.97453 14.2877 47.481
5.23085 15.4617 46.3742
4.84827 13.9058 46.7235
5.08977 13.9188 46.6181
5.32423 15.4756 48.9548
5.26988 14.8263 47.6766
5.20942 14.415 48.1813
5.01039 14.6785 47.9165
5.24553 14.0415 45.7673
4.84131 14.358 45.0726
4.98635 14.3403 52.1091
5.89593 15.6976 51.2914
5.62472 15.1028 46.9731
4.78758 13.3428 46.9703
5.46014 14.8749 45.4143
5.06407 14.9255 49.0092
5.06861 13.7195 45.9778
5.38939 15.4969 47.8328
5.03714 13.2759 43.6183
5.06853 14.9742 50.9936
5.25956 14.3413 46.2295
4.90532 14.6231 46.9348
5.50671 16.1255 46.6884
4.49956 12.6592 46.7961
4.86841 14.6223 48.3973
5.00803 14.9666 49.9451
5.23909 13.3819 44.0371
4.73386 14.5879 49.0261
5.17047 15.5679 50.6164
5.12026 14.5399 49.1665
5.0411 14.451 45.8798
4.81879 14.6206 48.7037
4.84753 15.3989 50.232
4.71719 18.9318 117.003
12.9108 29.453 52.702
4.75949 15.0985 47.2516
4.80384 14.2946 44.3133
4.51088 13.7196 48.7701
5.01153 14.1387 49.617
4.8851 14.6652 50.9664
5.33064 14.5949 46.0816
5.28005 14.6173 45.1024
4.38467 14.2475 47.6465
4.83065 13.4654 43.96
4.72399 12.9348 41.9766
4.50613 13.7396 46.4522
4.70102 12.8307 42.7446
4.67889 14.6205 47.2364
4.54978 13.3723 44.155
4.4169 13.7195 45.3994
4.65525 14.3435 47.7866
4.50454 13.5714 48.7722
4.79219 13.4536 45.5616
4.53226 14.0469 49.5299
4.99346 15.4319 50.9391
4.66255 13.0763 44.793
4.54184 14.4619 49.0702
4.80941 13.7484 49.3593
4.70053 13.9892 50.9299
5.11938 15.0194 47.801
4.58467 13.651 49.2057
4.85052 14.335 44.6827
4.44033 13.1083 48.2103
4.78358 15.3746 54.0659
5.01505 14.1583 45.2325
4.48273 14.1605 49.4628
4.77902 13.1109 43.6019
4.5797 14.4673 49.7838
4.80381 13.123 44.7763
4.49264 13.6457 47.0837
4.29486 12.8222 44.7766
4.46898 13.4986 46.7583
4.639 14.8197 48.4418
4.6016 14.7719 49.1652
4.3064 13.3011 51.4045
4.8332 13.3509 45.5513
4.6275 13.7674 44.319
4.4516 13.9399 45.4136
4.23869 13.6987 51.9549
4.82012 13.6524 47.649
4.6496 14.6307 49.9755
4.76229 13.6702 48.6215
4.63246 13.0905 45.9954
4.6751 14.8648 49.8792
4.57583 13.7242 49.3086
4.78056 13.2997 45.5193
4.49496 14.4467 48.8724
4.58148 13.3611 45.3537
4.46463 13.9922 47.9294
4.58404 13.9069 49.0565
4.48298 14.7452 53.3408
4.86075 14.1274 47.0007
4.47838 17.7931 80.3043
7.02396 17.3028 48.9534
4.4133 13.8942 45.653
4.23329 13.1332 49.6611
4.7864 14.3489 47.4984
4.31869 12.7664 45.2996
4.23916 13.7303 50.863
4.72223 14.0196 47.998
4.65065 14.0362 46.3564
4.16554 12.9765 50.7193
4.78555 13.3082 42.3717
4.25949 12.6279 46.2184
4.30982 13.1788 46.2049
4.24629 13.2642 47.24
4.49228 13.5674 45.511
4.12557 13.6433 49.275
4.506 13.7639 51.3757
4.48565 13.3322 44.3669
4.02464 12.9714 45.8783
4.64983 13.3402 48.0175
4.70933 13.7733 46.691
4.14026 13.0554 44.8693
3.9176 12.7578 47.3668
4.31685 12.3746 46.6121
4.10522 12.3624 44.5761
4.33791 13.3935 50.3139
4.44214 13.038 46.7225
4.52493 14.604 50.6421
4.51179 15.5236 55.8571
4.90091 13.6606 48.6569
4.55568 15.0598 53.8769
4.75544 14.0916 51.3284
4.51039 13.7204 48.5045
4.37361 13.4961 47.151
4.48659 14.684 50.4066
4.4747 13.7557 46.2732
3.96927 14.4239 55.2755
4.58999 21.1655 126.209
10.8071 26.4324 52.1587
4.47126 14.742 52.2539
4.50302 14.4846 46.6907
3.87744 12.5625 54.5526
4.99614 14.0485 43.9254
4.27592 14.1175 46.9189
4.10209 13.1452 50.4286
4.47663 14.2944 50.0676
4.27525 12.0999 48.9285
4.6912 14.3593 52.2986
4.56566 13.7957 51.3393
4.56271 13.9754 47.3306
4.18024 13.6088 51.9918
4.42719 14.001 48.6996
4.26078 13.0835 44.0933
3.95482 13.0481 50.8118
4.62538 14.4928 51.5799
4.30594 13.1713 48.786
4.11892 13.2915 51.9153
4.65634 12.4626 46.2762
4.35938 13.7094 47.5184
4.11948 13.5269 48.2168
4.16334 13.6378 49.3769
4.26298 13.5701 48.122
4.12664 12.4574 45.6143
3.97204 12.7079 46.5786
4.11328 12.9703 46.1357
4.09752 13.3204 49.4709
4.46295 13.1194 45.0265
3.88132 12.16 48.537
4.10348 13.0145 48.481
4.50102 12.3649 45.7911
4.18402 13.502 51.4998
4.37967 12.0662 42.1024
3.66599 12.5043 46.6334
4.03733 12.7234 44.1204
3.7361 11.6781 43.2158
3.7993 13.8599 49.1485
4.03751 12.319 49.0392
4.18489 13.0246 49.3301
4.42002 13.03 44.894
3.72916 13.1122 49.0202
3.99204 12.2814 44.2372
3.80864 13.2215 49.7634
3.96621 13.0243 49.7004
4.20127 13.2938 49.7308
4.50733 12.743 46.3699
3.98849 13.0785 44.3887
3.60032 12.6896 47.9177
3.88666 11.849 46.8848
4.27099 13.983 49.6616
4.0317 12.9531 49.517
4.37287 13.8448 48.2853
3.79571 12.3276 50.5867
4.44147 13.4211 48.6299
4.07036 12.535 47.1216
4.03 12.7825 48.5299
4.15922 12.5028 42.2974
3.73734 11.3328 43.7003
3.63439 12.6463 48.1493
4.12253 12.3027 47.7838
4.14478 12.654 47.858
4.15243 13.1885 48.4806
3.84333 12.0825 46.855
3.8192 12.204 45.159
3.68218 12.0573 43.6527
3.77173 12.404 47.5891
4.00457 12.8512 50.4953
4.07869 12.1068 44.3299
3.51732 12.2176 49.8455
4.21464 12.9284 45.9363
3.76896 12.5145 48.3857
3.91556 12.9308 50.382
4.16697 12.7477 46.5515
3.8604 13.3058 45.918
3.65507 13.5389 52.7674
4.34479 12.2837 44.8194
3.60034 12.8249 46.7692
3.64139 12.1147 46.6867
3.58123 11.8278 46.4321
3.72124 12.5694 50.6238
4.30624 13.1593 47.6007
4.01381 13.1926 48.732
3.85873 12.2162 46.6838
3.95344 12.3068 41.8468
3.28729 10.6704 42.978
3.56194 12.4438 44.9165
3.51681 11.5442 44.002
3.75806 11.3487 47.4023
3.83689 12.3887 46.9876
4.19214 13.3662 49.7636
4.16697 13.6734 50.3885
3.80733 11.9963 49.1638
3.90963 12.5171 45.6374
3.8471 14.2279 49.6925
3.74486 19.5517 135.264
10.3718 28.0635 60.0194
4.45808 14.165 50.4826
3.95987 12.7232 46.6731
3.78686 12.7724 49.693
3.78561 12.8394 49.0054
3.77011 12.3963 47.5819
3.94226 12.3374 47.4017
3.66562 13.6909 49.6961
3.94785 12.678 48.045
4.07753 13.2466 50.4544
4.00902 12.914 49.7674
3.97054 12.0527 43.182
3.68239 12.5834 48.9562
3.92678 12.5496 49.2087
3.69198 12.6311 47.3434
3.92566 13.4652 50.0483
3.85311 12.3602 50.3206
4.06208 13.1144 47.4806
3.65266 11.6476 44.9032
3.51095 10.9013 47.6601
3.73359 12.8616 46.9328
3.82675 12.12 46.2591
3.72744 12.9917 49.055
3.7445 11.7033 44.5469
3.87514 11.7164 42.4707
3.34504 11.3337 41.3498
3.13257 11.4147 46.9167
3.60327 12.2156 46.0097
3.48828 11.7934 49.4404
3.75214 12.0233 46.2482
3.9119 13.2114 48.9024
3.81847 12.1691 49.3923
3.91234 12.7412 48.8051
3.85779 12.7255 52.1038
3.89013 12.6178 49.491
4.03834 12.9013 45.9806
3.67107 12.1152 49.2862
3.79578 12.2558 47.6931
3.62141 12.4848 47.4248
3.82932 12.0331 49.0279
3.95152 12.3037 45.6593
3.47748 11.9749 43.9224
3.33369 11.5037 45.7402
3.71778 12.1864 48.8713
3.80593 11.5411 44.4551
3.63627 12.0965 48.3612
3.98725 12.2621 43.4975
3.36532 11.4379 49.5465
3.95792 11.923 43.777
3.25177 12.1296 46.0013
3.60159 11.0544 42.8627
3.61112 10.8446 44.3355
3.39523 12.1931 46.0351
3.65685 11.5504 45.0608
3.58045 12.1072 47.5285
3.76726 12.7833 49.5493
3.79338 11.5118 46.6559
3.64512 12.1787 46.8809
3.54215 12.4934 47.8546
4.04766 11.3637 41.6598
3.26247 10.8384 44.4686
3.59097 10.7584 45.1147
3.55246 12.195 46.8396
3.72966 12.7744 46.0152
3.62095 11.9017 50.0738
4.18067 13.0834 50.0899
4.01229 12.6451 49.4622
3.64464 11.6824 44.0644
3.49712 11.6372 43.4015
3.47042 11.7096 43.2567
3.3465 11.056 49.1525
3.83987 12.5657 43.3481
3.26764 10.5803 44.0592
3.45365 11.5721 48.8487
3.79589 11.9356 48.6194
3.90767 12.6433 46.3346
3.64038 12.0636 47.9711
3.55294 11.9402 45.5605
3.38183 12.1092 47.1297
3.59515 12.1447 47.7176
3.54254 12.4329 52.0393
4.0824 12.9217 49.3385
3.88202 13.0078 48.4207
3.74584 11.667 42.8438
3.30403 11.5734 44.743
3.48731 11.0273 42.8619
3.29171 10.4819 41.4989
3.20697 11.8644 50.8441
3.84733 12.3359 46.5247
3.78659 12.3945 47.574
3.50423 12.6213 48.5911
3.61935 11.367 44.6198
3.23876 10.6918 45.5091
3.48308 12.6229 49.1259
3.67991 13.2096 46.9102
3.35193 19.9049 138.047
9.16318 21.6088 47.8488
3.54305 13.571 49.5281
3.99264 13.1789 46.023
3.46869 12.0139 47.1652
3.77247 12.2245 46.6951
3.58821 11.8613 43.0941
3.23338 11.3298 44.9156
3.36728 11.8182 46.7354
3.40349 12.3851 47.2825
3.58755 12.4148 52.3201
3.83086 11.7367 47.1232
3.51219 12.2261 49.6021
3.65112 12.6916 45.5506
3.45856 11.6463 44.6567
3.49265 11.8748 49.9197
3.8623 12.1771 44.7576
3.28732 11.1488 45.6175
3.51174 11.7402 46.7944
3.47198 11.4488 46.3719
3.67602 11.8298 44.2506
3.33358 12.5602 49.0852
3.5213 11.6947 47.192
3.29361 11.7477 49.9261
3.63079 11.4189 43.6629
3.15793 12.0003 50.3559
3.71325 13.0482 49.438
3.55642 12.6792 50.3346
3.70705 12.0898 50.9389
3.56924 12.1659 49.0388
3.657 12.4498 46.2295
3.42881 11.7716 44.9356
3.44197 11.9455 50.3512
3.662 12.2388 49.5545
3.69534 12.1072 41.628
3.01282 12.2053 48.8387
3.52831 11.0736 44.5449
3.26102 11.8221 46.9287
3.55652 11.6517 45.7453
3.44471 12.5804 50.453
3.58433 11.7968 46.6117
3.51543 12.6207 46.8024
3.42377 10.837 48.8398
3.71521 11.9275 45.9002
3.63704 12.3231 49.4886
3.56213 12.0868 47.328
3.48379 11.8917 47.7814
3.55303 11.7116 48.3849
3.57756 12.2926 44.0307
3.4481 10.9979 44.5163
3.41777 11.1346 40.6955
2.97835 11.5975 48.8612
3.62505 11.9538 47.5774
3.86453 11.9573 49.12
3.71964 12.2797 46.3805
3.57365 11.3754 46.7851
3.45859 12.655 50.4642
3.70949 11.1955 46.5806
3.57446 12.7282 50.5448
3.6573 12.6581 48.3668
3.75285 11.8894 43.2064
3.30254 11.504 48.2536
3.5841 11.232 43.2625
3.1921 10.4704 42.8578
3.44936 11.8421 46.872
3.62296 11.7651 47.2039
3.51383 11.8439 49.769
3.59849 12.8455 50.3995
3.7881 11.8418 48.5347
3.7108 12.13 44.7484
3.37058 11.0639 49.6115
3.81462 12.6415 46.3464
3.37044 12.0493 45.9575
3.51903 10.8459 46.1045
3.48601 13.4599 50.0134
3.74334 10.9448 41.6153
3.06178 10.7479 44.8323
3.40486 11.4152 42.4701
3.18042 11.9637 47.5329
3.74202 11.7494 49.6051
3.74814 10.6011 45.4622
3.40707 12.3732 48.4142
3.43856 11.444 45.114
3.69279 12.4849 46.5133
3.59684 11.839 46.6198
3.55864 12.1668 48.3758
3.41552 11.4296 46.6141
3.45759 11.838 47.7061
3.62493 11.3376 45.821
3.26534 11.9072 48.6477
3.47189 12.0213 47.9827
3.71195 12.7154 46.8049
3.64077 11.7617 49.9044
3.65015 13.1085 50.3887
3.75314 12.3563 48.5181
3.73684 13.545 51.0007
3.84149 21.4768 132.926
8.41714 0 0