# pn-170911/RbIIR-54-USN3-1280-1959.psd
# Power spectrum* (dif=0,1,2) (really just |FT|^2)
# NOTE: only the first half! (symmetric)
# weeks: 1280-1959
# 3501 clock-days, 94 excluded
# PSD: 1441
1395.29 0.1161 0.0286683
25762 0.303754 0.0207386
195122 4.224 0.021688
14035.5 0.513614 0.0217748
30099.2 2.27175 0.0214866
5056.15 0.505637 0.0216907
4277.83 0.646932 0.0218932
2726.99 0.538929 0.0229334
2707.6 0.725712 0.0232503
1707.35 0.568817 0.0223178
1482.57 0.617318 0.0234993
1279.08 0.653778 0.0208005
1116.35 0.681086 0.0213562
967.628 0.683775 0.022234
939.711 0.793379 0.0236603
825.721 0.793142 0.0225426
825.658 0.901973 0.0229764
722.411 0.918013 0.0229901
714.518 1.00024 0.0227689
686.698 1.07116 0.0227268
621.779 1.10069 0.023094
615.909 1.19136 0.0245792
613.47 1.31421 0.0259598
581.619 1.3928 0.0268675
565.316 1.45978 0.0258698
546.992 1.56249 0.0286467
556.125 1.70212 0.0272682
538.579 1.79168 0.0282692
526.902 1.87937 0.0285031
536.282 2.03705 0.0296221
525.28 2.17885 0.0313508
521.449 2.30285 0.0329816
528.893 2.45954 0.0341191
506.196 2.52408 0.0346312
503.408 2.67085 0.0371532
525.592 2.95015 0.0393666
503.128 3.00077 0.0406524
508.707 3.20904 0.0418846
471.658 3.15118 0.0439122
489.199 3.45025 0.0479842
497.636 3.67692 0.0491528
493.435 3.84868 0.0539459
486.595 4.00391 0.0558771
468.7 4.01769 0.058169
484.813 4.34822 0.0627866
478.967 4.49938 0.0692606
474.58 4.69954 0.0673031
463.155 4.77484 0.0725367
476.032 5.08786 0.0786503
468.386 5.24485 0.0834119
463.628 5.39437 0.0846002
470.639 5.74823 0.0929122
456.789 5.82349 0.0950299
446.066 5.87837 0.100344
478.992 6.56779 0.11358
441.887 6.2872 0.113452
451.724 6.639 0.121218
437.118 6.58597 0.125061
428.818 6.72296 0.13149
447.12 7.33124 0.141157
451.187 7.65472 0.155687
449.907 7.79357 0.159774
424.453 7.66717 0.163553
434.874 8.05301 0.177329
440.73 8.53383 0.186436
422.099 8.41016 0.193657
426.458 8.71489 0.203444
410.619 8.62065 0.205889
409.909 8.88217 0.213679
405.067 9.07137 0.22623
412.717 9.44859 0.244723
414.473 9.77057 0.256652
412.044 10.1074 0.274734
389.413 9.74321 0.267193
387.239 9.94511 0.281802
374.298 9.90239 0.291555
401.817 10.8959 0.319349
392.681 10.958 0.32994
378.054 10.8077 0.335191
392.765 11.4486 0.359447
364.098 10.9213 0.355933
386.574 11.9535 0.389847
362.854 11.475 0.382514
357.428 11.5336 0.394814
356.906 11.8336 0.421663
350.662 11.8561 0.428648
345.488 12.0385 0.448311
360.678 12.869 0.482758
343.902 12.5661 0.4873
349.488 13.0697 0.518298
347.014 13.3181 0.539168
361.297 14.0947 0.577785
332.529 13.2815 0.558552
321.296 13.0252 0.556442
327.71 13.5915 0.592535
327.773 13.9468 0.613224
385.67 16.6983 0.749778
318.899 14.0507 0.65109
324.616 14.5372 0.68344
299.983 13.7401 0.660724
312.097 14.6015 0.713951
310.063 14.7776 0.744087
318.375 15.5951 0.795044
301.638 15.1154 0.78218
316.48 16.0986 0.840349
298.629 15.4416 0.829372
295.224 15.6223 0.853647
293.395 15.7423 0.872884
295.787 16.1239 0.907083
289.3 16.2538 0.938348
286.566 16.3968 0.964536
293.266 16.9365 1.00826
286.367 16.9047 1.0283
283.981 17.0719 1.0566
277.629 16.9636 1.06486
271.124 16.756 1.06873
272.413 17.2366 1.12082
265.228 17.0986 1.1362
269.008 17.5702 1.17178
272.68 18.0543 1.2333
266.596 18.1087 1.26681
270.774 18.626 1.31215
253.526 17.7114 1.27065
270.17 19.1737 1.39252
266.955 19.3156 1.4303
256.47 18.8981 1.41772
246.51 18.2751 1.38853
241.216 18.3 1.41628
235.924 18.1754 1.42691
248.127 19.4381 1.54713
247.91 19.6523 1.60176
240.455 19.2719 1.58516
233.508 19.1071 1.58738
238.922 19.9227 1.68209
229.162 19.3227 1.65295
228.382 19.6254 1.71182
224.391 19.4318 1.71333
240.175 21.313 1.91786
228.765 20.4081 1.85599
224.017 20.2105 1.85399
226.357 20.7761 1.93758
219.065 20.4461 1.95171
218.572 20.6316 1.98462
215.092 20.6337 2.00504
216.94 21.05 2.07958
203.925 20.0812 2.03317
209.029 20.9682 2.14873
213.352 21.4818 2.1902
202.085 20.7016 2.17834
209.054 21.8149 2.29711
214.034 22.7448 2.45869
199.998 21.3365 2.31029
205.908 22.2736 2.42906
198.701 21.7487 2.42357
195.243 21.6531 2.42565
201.595 22.7308 2.59694
199.683 22.8963 2.65703
196.551 22.7529 2.65154
192.309 22.5109 2.6691
195.876 23.1107 2.76677
192.329 23.237 2.83637
188.33 22.7488 2.78837
189.761 23.1449 2.86563
189.017 23.6167 2.96338
190.385 24.0091 3.06924
183.715 23.371 3.00097
178.388 23.1517 3.02529
185.107 24.0491 3.17917
182.576 24.233 3.24784
180.952 24.1818 3.25542
173.397 23.4438 3.19957
175.565 24.0311 3.30465
172.472 23.8246 3.34193
166.696 23.4399 3.31977
170.442 24.2368 3.48203
173.788 25.0278 3.64791
166.357 23.9692 3.49049
167.307 24.5164 3.63504
167.023 24.6792 3.67968
158.489 23.8803 3.63457
162.059 24.3578 3.69541
163.806 25.1086 3.89223
155.983 24.3148 3.81436
155.57 24.3847 3.86087
164.86 26.2537 4.20314
159.885 25.3172 4.06779
159.299 25.6717 4.16872
152.859 25.0463 4.15061
154.209 25.3403 4.22358
151.014 25.1622 4.258
145.56 24.3777 4.13929
154.006 26.5598 4.61927
197.447 33.9069 5.81285
149.674 25.7063 4.46574
146.291 25.6885 4.58875
145.181 25.6505 4.59112
145.551 26.1607 4.75391
143.298 25.8166 4.70154
145.736 26.5354 4.88979
141.175 25.9261 4.81621
143.109 26.7297 5.0533
141.765 26.6892 5.0625
136.769 25.8267 4.93518
135.464 25.9984 5.03304
138.307 26.8486 5.25602
135.601 26.3882 5.18718
135.142 26.8028 5.3563
132.184 26.2943 5.27309
134.808 27.3933 5.61598
132.578 26.7404 5.47062
132.957 27.1775 5.59703
124.953 25.795 5.39977
133.669 27.9712 5.9018
127.419 26.7807 5.68322
123.695 26.3474 5.67668
132.394 28.3526 6.11396
123.514 26.8152 5.86936
132.523 28.8094 6.30067
117.821 25.8936 5.75866
125.975 28.2685 6.37929
124.209 28.0107 6.37621
123.725 27.9674 6.40512
121.345 27.7831 6.40959
121.113 28.0631 6.5316
119.744 27.9016 6.53639
114.424 27.0144 6.38066
120.04 28.4466 6.75932
115.801 27.6507 6.65833
119.12 28.6707 6.95566
118.053 28.7344 7.04816
115.692 28.2642 6.95936
110.417 27.3667 6.81123
111.72 27.874 6.99462
112.446 28.3686 7.19884
114.546 28.8435 7.29547
109.172 28.0442 7.26978
109.151 28.2119 7.36368
111.773 28.9156 7.57287
111.728 29.0825 7.63239
115.505 30.5366 8.11422
111.731 29.8199 8.01108
106.865 28.6773 7.7428
104.755 28.5481 7.83287
104.32 28.5593 7.85019
103.839 28.4419 7.83614
106.949 29.6992 8.2571
103.952 29.2834 8.32284
104.478 29.2354 8.28727
103.986 29.4795 8.42782
103.438 29.6366 8.51072
98.4222 28.3471 8.26735
98.708 28.7919 8.45239
100.636 29.6703 8.79362
99.7995 29.5063 8.78881
99.52 29.6021 8.87477
99.9556 30.0344 9.11723
94.1309 28.6006 8.79892
97.162 29.4416 9.05713
95.936 29.3727 9.07804
96.073 29.5739 9.19106
95.9262 29.8108 9.30039
96.0609 29.9848 9.41202
92.1319 29.2193 9.34857
96.6848 30.6759 9.80111
89.699 28.7787 9.36286
93.46 30.1231 9.72744
88.7791 29.0378 9.52012
92.2304 30.2594 10.021
91.1153 30.1942 10.052
90.0782 30.1242 10.1122
89.4601 29.8703 10.0614
88.2351 30.0616 10.2769
89.337 30.3383 10.3602
86.046 29.7826 10.3902
87.013 29.8827 10.3774
87.8378 30.3124 10.5411
86.0138 30.0903 10.6032
88.3429 30.9668 10.9472
83.1925 29.6888 10.6137
84.9919 30.6653 11.0692
82.9863 29.8225 10.8052
83.9328 30.4441 11.1564
82.3149 29.8261 10.9528
83.2777 30.5777 11.2688
79.6308 29.4162 10.9497
81.3383 30.0316 11.2245
80.2304 30.3871 11.5583
80.8302 30.4393 11.7124
115.277 43.4108 16.065
80.3678 30.8816 11.9389
77.8186 29.8467 11.5671
78.6428 30.5633 11.9575
76.4903 29.9091 11.7707
77.4751 30.3879 12.0326
76.4255 30.4012 12.1779
78.2007 31.0973 12.3763
73.4683 29.4874 11.9422
77.1767 31.0697 12.6063
74.0453 30.1403 12.3573
78.3391 32.098 13.2159
75.9105 31.3369 13.0318
75.0703 30.5467 12.546
71.6942 30.0923 12.7287
73.7329 30.5964 12.8514
75.1616 31.6365 13.4016
70.6638 30.1213 12.9964
74.0659 31.6073 13.5406
70.5141 30.3276 13.1485
73.1359 31.5578 13.7371
74.3303 32.3066 14.0946
69.8676 30.7006 13.5864
71.6448 31.2336 13.7351
71.0492 31.4842 13.9686
68.4363 30.7418 13.8344
67.5642 30.421 13.8066
68.98 31.1568 14.1895
70.1892 31.8054 14.4315
67.1907 30.9982 14.3592
66.0295 30.3003 14.0005
66.8982 30.9998 14.4308
67.031 31.0594 14.4648
67.5584 31.3607 14.6194
67.5794 32.0404 15.2284
65.5572 31.0554 14.7823
62.5805 30.0906 14.6053
65.7529 31.4934 15.2095
62.4619 30.2182 14.7534
65.0736 31.335 15.2057
64.4751 31.6361 15.55
65.1554 31.7131 15.5121
64.187 31.4707 15.4999
62.3331 31.2862 15.7787
63.0335 31.3688 15.6904
61.3758 30.7901 15.5501
62.8457 31.7554 16.1434
61.4242 31.1199 15.8856
62.7693 32.1359 16.519
59.3939 30.3591 15.6512
59.4179 30.8269 15.9597
60.1723 31.7212 16.7529
58.1973 30.3273 16.075
60.0102 31.6261 16.8432
58.0127 30.5718 16.3475
58.4793 30.4979 16.1264
58.147 31.1123 16.6626
58.6875 31.6653 17.1281
56.1713 30.4457 16.6824
59.6148 32.2401 17.5275
57.0039 31.3507 17.3782
57.6139 31.5384 17.4357
56.2682 30.9322 17.1601
56.2242 31.3157 17.4504
55.7838 31.2441 17.6594
56.103 31.5459 17.8118
54.2917 30.6034 17.3934
55.6381 31.4458 17.9011
55.539 31.6994 18.1686
54.1728 31.0584 17.917
53.9654 31.0389 17.9861
53.8717 31.3179 18.3258
53.0964 30.6704 17.8558
52.4656 30.8121 18.2324
55.3373 32.6009 19.3105
53.9702 32.1227 19.2639
52.9276 31.11 18.4849
52.867 31.6287 18.9398
50.7552 30.5835 18.5892
51.51 31.2685 19.099
51.2953 31.0711 18.8896
49.6501 30.2268 18.5571
49.5564 30.5479 18.9599
50.6739 31.214 19.345
53.3461 33.0036 20.3915
52.0472 32.7043 20.5951
49.9343 31.4191 19.8905
48.3462 30.2731 19.1937
49.5164 31.351 19.9158
47.1782 29.9643 19.2158
48.8056 31.1684 19.9957
48.6622 31.5343 20.4779
47.7417 30.7824 19.9898
46.4865 30.3109 20.0533
47.1421 30.4969 20.0582
48.0541 31.8022 21.6205
68.0378 44.2706 28.0289
46.7154 30.8673 20.7658
47.6534 31.346 20.7221
45.6735 30.7558 20.8067
47.069 31.8823 21.7034
46.2108 30.6739 20.6019
46.0271 31.39 21.5338
44.9554 30.2059 20.5398
45.941 31.503 21.6075
45.399 31.3191 21.718
44.641 31.0789 21.6986
44.8094 31.2636 22.1058
45.5738 31.2655 21.7468
45.1905 31.8873 22.5061
44.7913 31.1371 21.8418
43.215 30.6518 21.8732
42.6893 30.3306 21.7491
44.7543 32.2324 23.3638
44.9065 32.1401 23.1639
43.3089 30.95 22.2548
43.1995 31.3771 22.8853
42.518 30.8193 22.5331
43.1033 31.7597 23.5219
42.6146 30.824 22.5181
41.8887 30.8404 22.8941
41.4405 30.5729 22.8056
41.2281 30.2165 22.4385
41.601 31.2666 23.5217
42.4102 31.7156 23.904
41.2783 31.0022 23.3704
40.3417 30.528 23.1206
40.0567 30.7346 23.5814
39.0032 30.2035 23.5608
39.4187 30.0377 23.206
39.7829 30.7165 23.8563
39.4452 30.6639 23.9711
39.1129 30.3506 23.7278
39.0285 30.5432 24.1557
39.1189 30.2112 23.558
38.3678 30.4508 24.1651
38.1385 30.4554 24.4213
38.1641 30.328 24.3219
37.5457 29.766 23.8293
38.336 30.7495 24.7175
38.8033 31.5899 25.6346
37.669 30.3294 24.8039
36.5795 29.3126 23.862
37.7454 31.0115 25.5175
37.5831 30.7063 25.1666
36.8139 30.5038 25.3689
37.9557 31.8813 26.8755
36.6037 29.8301 24.8226
37.1679 30.9969 25.8992
36.7454 30.6309 25.571
35.3193 30.1184 25.9807
36.2465 30.2048 25.3835
36.6852 31.1822 26.4751
35.0265 29.964 25.8631
35.2098 30.214 26.0793
35.7118 30.6076 26.369
35.3409 30.7007 26.6849
33.2546 28.8652 25.5204
35.8556 31.1168 27.149
33.5966 28.7025 25.0559
34.0473 29.7635 26.1295
34.4945 30.4503 26.9916
33.939 29.6136 25.9947
32.7827 29.5913 26.8003
34.0049 30.2083 27.1006
34.1713 30.3575 27.1021
32.9015 29.8542 27.3119
34.1027 30.7059 27.9723
34.6958 31.1686 28.067
33.3133 30.3223 27.7944
32.6297 29.5347 27.0205
33.6044 31.0957 28.8125
33.7697 30.9774 28.5454
33.0044 30.4102 28.1151
32.9926 30.717 28.7468
33.0164 30.78 28.7742
32.7792 30.4361 28.3622
31.8067 30.0833 28.5784
32.22 30.3661 28.6304
31.3155 29.6072 28.1255
30.8491 29.4645 28.36
32.1422 30.7705 29.4243
31.2208 29.9604 29.0081
31.0267 29.6886 28.6854
30.4145 29.5228 28.8899
31.2252 30.1911 29.4364
30.3308 29.3459 28.8623
30.9716 29.6769 28.7485
30.8488 30.3174 29.6597
30.4565 30.3219 30.2126
29.5484 29.5361 30.1092
29.8095 29.4242 30.7543
43.0032 41.8668 39.0391
28.869 29.0547 29.6101
29.0451 29.0865 29.5083
29.3295 29.4226 29.5202
28.5689 29.2835 30.1837
28.8821 28.9701 29.3007
28.8565 29.5442 30.3448
28.9584 29.5069 30.1119
28.3196 28.9088 29.8834
28.0992 28.7758 29.8504
28.7424 30.0421 31.3941
28.0109 28.722 29.9484
28.0574 29.2452 30.7192
28.6482 29.8655 31.1784
28.5607 30.1906 31.9518
27.66 29.005 30.802
27.9785 29.4467 31.3201
27.5455 29.1266 31.0653
27.2342 28.6525 30.5774
27.2432 28.9027 30.9741
28.5094 30.2899 32.2425
27.1005 28.8049 30.8312
26.249 28.7124 31.4394
27.0638 29.4147 32.3243
27.7779 29.7898 32.2288
26.8801 29.2263 31.9546
25.8884 28.3713 31.5546
26.9658 29.3452 32.1668
26.3411 29.0107 32.0979
26.0641 28.6635 31.8481
26.2526 29.0577 32.4413
26.7576 29.382 32.5154
25.9126 28.852 32.2594
25.9282 29.2075 32.9065
25.3189 28.7065 32.7828
25.8552 28.9022 32.3912
24.2762 27.7165 31.9354
25.3759 28.8797 33.1197
25.1594 28.5864 32.7881
24.9099 28.613 33.2618
24.9079 28.0604 32.1087
24.6874 28.6742 33.3788
25.0945 28.7592 33.0563
24.9557 29.0952 33.6989
24.0629 28.1491 33.3035
24.5206 28.5472 33.4577
24.2259 28.2725 33.3032
23.9523 28.3276 33.7211
24.1963 28.4683 33.4915
22.8542 27.0184 32.5413
23.8349 28.2046 33.4195
23.6827 28.3302 34.0632
23.3935 28.2137 34.4567
24.3333 28.854 34.5884
23.7829 28.2015 33.4994
23.2386 28.5691 34.8889
23.3544 28.5892 35.0797
22.9727 27.8051 34.25
23.2373 28.4369 34.9583
22.4623 27.0028 33.0559
22.3749 27.5603 34.18
22.5982 27.8029 34.5134
22.376 27.4353 34.1693
22.9465 28.1539 34.6943
22.5015 28.1846 35.2337
22.2364 27.9027 35.0272
21.7924 27.1986 34.1868
21.6702 27.2734 34.7432
22.5373 28.5057 36.2149
22.2479 27.8768 35.2611
22.0536 28.0605 35.8526
22.0318 28.2172 36.3811
21.6034 26.9435 34.2304
21.5317 27.8549 35.9787
21.0811 26.7251 34.4862
20.9474 27.1001 35.4553
21.0359 26.7543 34.6372
21.1466 27.2399 35.0981
20.8549 27.4022 36.0296
21.2837 28.0809 37.1089
21.3534 27.5302 35.8556
20.9351 27.6351 36.6975
21.2641 28.2488 37.5564
20.684 27.0777 36.1544
20.8395 27.0809 35.5986
20.5726 27.4354 36.5493
20.0457 26.5552 35.6611
20.3428 27.2659 36.7585
19.936 26.2989 35.3146
20.0186 27.3235 37.3097
20.3254 26.8767 35.8144
20.0225 27.508 37.4731
19.683 26.8525 37.0398
20.0428 27.5035 38.0099
19.5476 26.9049 38.1472
20.6514 28.577 42.7043
29.8003 39.1991 48.4439
20.0306 27.8168 38.722
19.5512 27.348 38.4545
19.3739 26.6857 37.5792
19.8743 27.4243 38.0777
19.3719 27.0013 37.8346
19.0567 26.6628 37.4355
18.7488 26.2182 36.9243
18.8679 26.9417 38.7435
19.3612 27.0587 38.1373
18.7075 26.2326 37.1973
18.7184 26.8975 38.7028
18.8805 26.9524 39.0851
18.9221 26.697 38.2756
18.7188 26.8071 38.7446
18.7715 26.7908 38.7173
18.5087 26.3807 38.026
18.653 27.1837 39.6097
18.4358 26.4959 38.7157
18.414 26.804 39.2498
17.6686 25.3289 37.3334
18.1687 26.4001 38.7762
18.0829 26.3724 39.0931
18.2231 26.0925 37.7877
17.9088 26.6709 39.4749
17.4262 25.6409 38.2921
17.4824 25.296 36.8955
17.2094 26.1759 39.6377
17.7069 26.4775 39.8906
17.9725 26.6848 39.7047
17.0821 25.7638 39.2082
16.5081 24.543 37.5443
17.1747 25.4822 38.0952
16.9124 25.7738 39.3437
17.1957 26.0081 39.7172
17.2138 25.9751 39.3092
17.0734 26.3024 40.3069
16.374 24.9371 38.9298
17.0931 25.9259 39.2797
16.4114 25.3316 39.1453
16.3865 25.453 39.7308
16.1808 25.1638 39.9377
16.9028 25.974 40.1217
16.4014 25.5009 40.1541
16.5137 25.7387 40.495
16.5123 25.6251 40.113
16.3328 25.615 40.5616
16.3324 25.5249 40.4801
16.0294 24.8157 39.3058
16.2212 25.4748 40.1207
16.2176 25.8956 41.5951
16.2313 25.4086 40.3726
15.8913 25.248 40.7867
16.1485 25.1656 39.6878
15.8665 25.6254 41.5518
15.8933 25.0628 40.0301
15.7109 25.2771 40.6681
15.3883 24.7482 40.2979
15.5324 25.094 40.6807
15.0006 24.0078 39.1895
15.2897 25.0423 41.1877
15.6809 25.368 40.9938
15.1054 24.7154 40.6095
15.1487 25.0777 41.7854
15.1531 24.6532 40.6987
15.1564 24.8787 41.1016
15.06 24.8359 41.0963
14.6455 24.358 40.9112
14.828 24.4854 40.688
14.5518 24.4271 41.3262
14.8008 24.4798 41.1998
14.6014 24.4656 41.7513
15.0659 24.7807 41.2544
14.6861 24.5981 41.3524
14.7606 24.9321 42.016
14.2161 23.7901 40.7079
14.6616 24.8471 42.2534
14.5282 24.8404 42.5912
14.5407 24.7022 42.3774
14.1687 23.8392 40.719
13.788 23.4301 40.6303
13.9991 24.0408 41.666
13.8943 23.7528 41.2919
14.1554 24.3378 42.1787
14.263 24.5339 42.446
13.9338 23.9439 41.7491
13.74 23.7533 41.3913
13.8114 24.0842 42.2252
13.932 24.531 43.3753
13.9031 24.1167 42.5481
13.9348 24.2501 42.6281
13.4889 23.4238 41.1523
13.1864 23.4168 41.9302
13.4902 23.9764 42.7623
13.0537 23.2348 43.0776
13.6123 24.7845 50.4608
21.0503 35.2398 54.4748
13.7769 24.7155 44.6092
13.6749 24.3479 42.9424
12.9494 23.5952 43.3286
13.1993 23.5173 42.7582
13.1159 23.2089 42.096
13.2897 24.0105 43.2136
13.1169 23.7729 43.591
13.042 23.3509 42.252
12.778 23.4527 43.1166
13.1686 24.0271 43.9313
13.1023 23.8298 43.5071
12.8578 23.6564 43.8458
12.921 23.4527 42.9813
12.6946 23.2529 43.1318
12.6696 23.3089 43.1853
12.4653 22.9012 42.5586
12.3803 22.6939 41.8643
12.1088 22.6146 42.4868
12.2084 22.6331 42.2277
12.1056 23.0055 44.0813
12.5671 22.9618 42.7828
12.4907 23.3914 43.6921
11.9839 22.3836 42.2277
12.0184 22.623 43.0269
12.1249 22.847 43.6505
12.0869 22.5149 42.7016
12.1054 23.0247 43.5952
11.8062 22.534 43.5037
12.1335 22.8835 43.6942
11.8457 22.5321 43.6459
12.381 23.6382 44.7739
11.8501 23.1097 45.3045
12.0647 23.0388 44.9712
11.952 22.7125 44.2628
12.0427 22.8744 43.7791
11.6711 22.2686 42.8877
11.5116 22.5834 44.2441
11.5551 22.2794 43.4467
11.6057 22.7076 44.579
11.5875 22.8476 45.1296
11.494 22.4534 44.7496
11.7216 22.6962 44.5596
11.4972 22.3725 43.8777
11.4899 22.6038 44.2608
11.0093 21.9341 44.3711
11.3514 22.3606 44.762
11.4902 22.7572 45.4314
11.4135 22.2819 43.7919
11.0787 22.2342 44.7217
11.1972 22.1004 44.2798
11.1611 22.3626 45.0126
11.1141 22.1947 44.0411
10.7572 21.8401 44.6574
11.0865 22.1852 44.9395
11.0627 22.2584 44.8532
10.7785 21.8253 44.809
10.7636 21.6022 44.0176
10.5961 21.3014 43.337
10.5738 21.5292 44.4538
10.8293 22.072 45.1593
10.9051 22.3214 45.9923
11.1705 22.9186 46.4318
10.6054 21.6497 45.1342
10.9213 22.268 44.6945
10.1602 21.3976 45.2978
10.5861 21.8881 45.8745
10.4071 21.3065 44.7885
10.338 20.9867 43.8236
10.3314 21.3295 44.6864
10.4857 21.5584 44.7389
10.0741 20.567 42.7601
10.1102 21.4011 44.7648
10.1088 21.3652 45.5397
9.92051 20.3628 42.9467
10.1652 21.767 46.0082
10.1476 21.2569 45.0665
10.2702 21.9403 46.4508
10.1742 21.7468 46.2838
9.86298 21.0626 46.1606
10.0757 20.987 45.1214
10.0252 21.2835 46.0982
10.0973 20.7958 44.088
10.0837 21.6124 45.8159
10.0004 21.9081 47.6327
10.0652 21.386 46.3034
9.86645 21.0868 46.0236
9.82385 20.903 45.5668
10.1015 21.7085 46.4577
9.66352 20.5249 44.0664
9.53385 20.9754 45.7736
9.69869 21.268 46.7342
9.58979 20.7437 45.7153
9.59185 20.945 46.1391
9.25928 20.4057 46.3499
9.5573 21.8957 57.7017
15.0503 30.2717 55.0569
9.47663 21.6322 48.8072
9.73449 21.1091 46.7468
9.5978 21.1106 46.7634
9.62606 21.6847 48.4294
9.45464 20.2964 45.3424
9.33219 20.7075 46.2423
9.3061 20.407 45.5305
9.22964 20.6811 46.6603
9.33296 20.5341 45.2583
8.98479 20.0909 44.8739
8.76085 19.9452 46.2286
9.25027 20.4551 45.6216
8.88223 20.125 46.6039
9.21417 20.1435 44.9386
8.92074 20.0957 45.5804
8.87767 19.7802 44.5758
8.72376 19.9882 46.3513
9.18694 20.6964 46.5019
8.74076 19.9074 45.9195
8.7925 20.1895 46.7629
8.88671 19.8852 46.157
8.95662 20.2838 46.1211
8.65438 19.7664 46.0303
8.92971 20.379 46.6217
8.93561 20.8404 47.7996
8.49895 19.3601 45.9737
9.05449 21.0874 47.9477
8.51194 19.7351 46.9616
8.53141 19.3513 45.6052
8.61815 19.7825 46.0968
8.73523 20.2536 46.312
8.2438 19.3132 46.0269
8.36869 19.5694 47.0111
8.62283 19.6416 46.0805
8.49882 19.7944 46.5973
8.51983 19.923 47.3944
8.58404 19.9016 46.7305
8.42227 19.6404 46.0804
8.2441 19.5951 47.1232
8.38421 19.5578 46.258
8.16573 19.508 46.4648
7.99209 18.7614 45.4218
8.25684 19.362 45.9559
8.20782 19.6823 47.2743
8.2786 19.6908 46.8903
8.04318 19.0541 45.7749
8.07629 19.5629 47.4841
8.19849 19.4501 46.4228
7.91846 19.0853 47.4195
8.33235 19.9797 48.3216
8.17544 18.8903 44.8055
8.02376 19.7634 47.7146
7.79925 18.6219 45.937
7.92283 19.0581 46.2048
7.77231 18.9071 46.0752
7.84749 18.9587 46.0651
7.64585 18.8679 47.2944
8.05915 19.328 46.2825
7.50906 18.5689 47.5921
8.04055 19.2656 47.057
7.83417 18.909 46.0137
7.6846 18.9316 46.8279
7.70446 19.0662 46.7455
7.58182 19.0424 48.0375
7.68984 18.5004 46.409
7.65151 18.6608 45.6679
7.48 18.6296 47.4532
7.77654 18.9786 46.2961
7.32159 18.0705 45.3494
7.39826 18.7196 47.4272
7.65712 19.0963 48.1439
7.44733 18.1541 46.4425
7.69076 19.1286 47.3886
7.47247 18.5389 46.4878
7.56929 19.3935 48.2008
7.25707 18.1839 46.9285
7.56005 18.8767 47.7411
7.45565 18.7181 47.4812
7.38512 18.6665 47.7517
7.4341 18.9065 48.1674
7.24492 18.034 47.2936
7.62715 19.1334 47.9355
7.35629 18.4854 46.3405
7.23176 18.9352 48.6966
7.30173 18.5949 48.1238
7.24524 18.1633 46.7297
7.15824 18.3628 47.684
7.21427 18.2178 46.6149
7.00699 17.9862 46.7012
7.00967 18.1895 47.9251
7.23752 18.4111 47.2268
7.07779 18.1637 47.1512
7.02382 18.6488 50.1295
7.35007 18.6288 48.9445
7.30042 20.6046 65.4927
11.327 26.4429 55.8689
7.04873 18.4395 48.4001
7.15187 18.7339 48.1211
6.83644 18.2298 49.1472
7.1793 18.6309 48.7043
6.97475 18.2944 48.8623
7.13593 18.2111 47.2531
6.81861 18.0134 47.5785
6.75816 17.5093 46.4556
6.70553 17.6649 47.0753
6.78025 17.8419 47.0526
6.66636 17.7833 48.2778
6.89882 18.1007 48.2059
6.77799 17.7045 47.1905
6.73802 17.6113 47.0941
6.74443 18.0464 48.2562
6.75964 17.6473 46.7837
6.58719 17.7486 48.0899
6.61911 17.5324 47.7637
6.65522 17.6067 48.0468
6.76471 17.5724 46.2287
6.40027 17.1791 46.0348
6.31337 17.0098 46.9411
6.59412 17.6007 47.1483
6.46586 17.8314 49.0253
6.67317 17.6938 47.5543
6.49824 17.6937 48.4011
6.58558 17.4609 47.0729
6.40394 17.354 47.4236
6.45103 17.8315 48.646
6.45918 17.5282 47.9522
6.34747 17.2601 48.2764
6.46874 16.9941 45.922
6.30303 17.4634 48.3014
6.37821 17.0346 45.8374
6.03069 16.9463 47.5659
6.23239 16.9974 47.6033
6.21722 16.8089 46.6946
6.18358 16.8449 46.8778
6.22537 17.194 48.1046
6.26884 16.9872 47.0867
6.20182 17.1368 48.0054
6.26851 17.0338 46.8023
6.24113 17.6259 48.433
6.08357 16.5175 45.7384
5.91006 16.6371 47.3141
6.02432 16.397 46.4651
6.18202 17.1266 47.6743
6.1592 17.1276 47.6108
6.04435 16.9304 47.7091
6.01056 16.7396 46.6455
5.8241 16.774 48.904
6.16963 17.0595 47.8123
5.95686 16.4876 47.2463
5.99945 16.7262 47.4519
6.04055 16.9542 47.3367
5.92313 16.7388 47.3707
5.87372 16.6535 47.879
5.91222 16.4389 46.6465
5.78135 16.3473 46.3191
5.67063 15.9113 46.547
5.94824 16.8916 47.7572
5.7615 16.1617 46.0092
5.59043 15.6698 45.0037
5.59541 16.2747 47.6152
5.79447 16.2715 47.0712
5.75244 16.157 45.9453
5.63582 16.0531 46.2621
5.68834 16.2489 46.2761
5.56888 16.3039 47.7677
5.66986 16.0848 47.0994
5.80604 16.9069 48.7355
5.71539 16.2117 47.3549
5.72309 16.6169 47.708
5.51715 15.7139 46.6117
5.70064 16.8421 49.2669
5.74032 16.1675 46.8643
5.56734 16.3168 47.8203
5.57779 15.9762 46.6418
5.5123 15.817 46.6628
5.5263 15.8978 45.9084
5.414 16.0498 47.9009
5.58179 16.3284 48.4359
5.57452 15.9154 46.2149
5.40058 15.8175 46.7979
5.45208 15.9943 47.2869
5.38492 15.5368 46.3951
5.38936 15.7791 47.4327
5.61776 16.5247 47.7745
5.4541 15.9789 46.9107
5.38768 16.2906 47.7676
5.33349 16.0942 48.6979
5.33037 15.3043 46.6026
5.29971 15.5654 46.8876
5.33995 16.1203 48.3381
5.29334 17.4273 68.5759
8.7743 22.5674 52.6051
5.40236 16.1807 47.3835
5.2028 15.5598 47.2486
5.35432 15.8492 46.9438
5.22757 15.5679 46.5766
5.13207 15.2997 46.1877
5.22147 15.8208 47.1143
5.12613 15.4043 47.116
5.20094 15.5925 47.9257
5.29531 15.628 46.5541
5.13018 15.7253 47.7765
5.17195 15.5493 47.5343
5.13114 15.3125 47.2303
5.21887 15.6181 47.5518
5.22232 15.6156 46.7551
5.14191 15.9159 48.7417
5.18497 15.5869 47.4757
5.11317 15.3058 46.8626
5.09991 15.4005 46.914
5.07756 15.5398 47.3172
4.99055 14.955 45.9565
4.94984 15.0023 47.2368
5.10253 15.1364 45.2999
4.85023 15.0992 46.9373
4.99413 15.2014 47.1296
4.99476 15.124 46.3015
4.85319 15.0222 47.441
5.0169 15.2691 47.2086
5.01568 15.3444 46.9168
4.94988 15.5425 48.3077
4.97143 15.0764 47.2369
4.93906 14.9796 46.2613
4.82423 14.904 46.986
4.92858 15.0254 46.2986
4.88253 15.2972 47.0118
4.82992 15.1517 48.0931
4.93699 15.252 47.8641
4.86132 14.5958 45.4271
4.7372 14.8006 46.2431
4.81224 14.9929 46.2609
4.68058 14.768 47.4222
4.77896 14.7086 47.6501
4.89504 14.9825 47.3406
4.902 15.3284 48.0807
4.8337 14.8759 46.6677
4.74465 14.9007 46.8918
4.70893 14.9646 48.1513
4.87024 14.8656 46.567
4.67868 14.6691 46.4957
4.69022 15.0374 47.7599
4.70782 14.7708 47.6436
4.77152 14.6201 46.1669
4.64103 14.3654 44.6681
4.44993 14.3764 47.2289
4.6737 14.4021 45.1282
4.48998 14.4549 47.0863
4.70713 14.8351 46.8159
4.68418 14.9327 47.2196
4.56399 14.402 46.9741
4.58146 14.3354 46.8776
4.60347 14.3136 45.5536
4.51912 14.6393 47.4584
4.64624 14.8899 48.4248
4.65098 14.4694 46.0753
4.43517 14.2243 46.0952
4.42773 13.9466 45.6919
4.52115 14.7233 47.5245
4.55337 14.4847 47.4412
4.59715 14.7304 47.3636
4.51321 14.2314 46.0698
4.44347 14.3466 46.0076
4.35686 13.9185 46.0541
4.47176 14.5349 48.3721
4.65967 14.7334 48.0872
4.65519 15.0926 47.6998
4.48372 14.6199 48.2884
4.52144 14.2328 46.1778
4.34761 14.0368 47.172
4.5497 14.6029 46.2229
4.3196 13.9659 46.6116
4.43784 14.3989 47.4675
4.45708 14.1158 45.8181
4.31063 14.146 45.6459
4.18959 13.7582 47.1156
4.4252 13.9101 45.6164
4.29966 13.9943 46.958
4.41898 14.2457 46.2802
4.30929 14.0998 47.119
4.40753 14.3898 46.747
4.32336 14.2804 47.3195
4.29739 13.7213 45.5159
4.26136 13.945 44.4626
4.12367 14.0269 46.6626
4.21071 13.8425 47.0693
4.31646 14.2088 46.0702
4.18526 16.2345 71.6033
7.05444 19.7318 50.1467
4.31643 14.7736 47.9613
4.20367 13.987 47.3627
4.27948 14.0553 46.5545
4.15462 13.727 46.5922
4.20911 13.7416 46.0362
4.18967 13.7744 46.1137
4.23505 14.1386 46.5271
4.17755 13.9478 45.652
4.06175 13.9701 47.6711
4.17365 13.4739 45.6468
4.05667 13.5308 46.4993
4.14144 13.7178 47.0863
4.19507 13.8672 47.335
4.18449 13.4135 44.9582
4.02408 13.5591 46.971
4.15708 13.7942 46.2548
4.14288 13.956 47.3801
4.22419 13.7827 45.1702
3.95941 13.3049 44.526
3.93421 13.4733 45.353
3.92759 13.5126 47.2493
4.09251 13.4482 45.928
4.00623 13.323 44.5886
3.84431 13.0377 45.9314
4.07718 13.5813 44.9472
3.88969 13.4225 45.4555
3.86077 13.0328 45.9347
4.02258 13.3621 45.5268
3.96858 13.6664 46.8608
4.0141 13.3777 44.7983
3.82547 13.2323 46.7336
4.00631 13.3485 45.9546
3.99994 13.6029 46.4231
3.92619 13.1108 45.6009
3.98627 13.8129 46.509
3.87463 13.0126 45.9056
3.95896 13.3162 45.7906
3.92539 13.289 45.1075
3.80888 13.2761 46.2259
3.87222 13.1538 46.5655
3.96056 13.1948 44.8762
3.77852 12.7847 44.6903
3.82658 13.3014 45.2067
3.75933 13.1038 45.7446
3.78402 12.6669 45.0311
3.79817 12.9505 46.3806
3.95427 13.5153 46.0734
3.85977 13.1269 45.7893
3.82196 13.217 45.7282
3.77959 12.8798 45.7231
3.83276 12.9454 46.0215
3.87297 13.1833 45.4232
3.82388 13.2815 45.404
3.76848 13.1818 46.2163
3.8251 13.1292 45.7681
3.74403 12.8962 44.4275
3.64356 12.7798 45.6827
3.79438 13.2305 46.8386
3.81331 12.8237 45.6001
3.81517 13.3354 45.7715
3.7194 13.0681 46.895
3.81575 12.6922 44.0149
3.65873 12.9585 45.6101
3.68595 12.9037 45.6565
3.72413 13.1419 46.4061
3.76305 12.9871 45.864
3.68893 12.5832 44.8459
3.68042 12.8775 45.4228
3.66897 12.8922 46.5242
3.78227 13.1043 45.5354
3.61555 12.4865 43.8526
3.54891 12.6177 45.8006
3.70658 12.8149 45.2798
3.67345 12.8013 45.4183
3.64335 12.7446 45.3177
3.63131 12.8102 45.7849
3.65366 12.5653 44.2471
3.56886 12.8999 46.8644
3.72769 12.9433 45.2723
3.59187 12.5737 45.0275
3.63481 12.9587 45.6365
3.57654 12.6701 45.6787
3.62804 12.8812 46.0037
3.66611 13.106 46.0955
3.58892 12.6256 45.3666
3.56983 12.8047 46.5312
3.64576 12.9019 45.4771
3.58261 12.6883 46.3339
3.60546 12.5679 45.6534
3.5921 12.6254 45.0568
3.54919 12.6645 45.6429
3.61673 12.9861 45.2796
3.5012 12.9656 48.2268
3.72338 13.3418 48.9065
3.78227 15.577 74.8324
6.14625 18.3856 49.953
3.72922 14.029 48.304
3.64804 12.9504 47.4833
3.64537 12.7582 45.965
3.55712 12.7672 47.064
3.6513 12.5503 44.1606
3.41675 12.5586 45.9558
3.55269 12.6631 45.6005
3.50544 12.7337 46.2701
3.52698 12.4565 45.3534
3.51529 12.5776 45.1852
3.42738 12.3386 46.0545
3.52631 12.3091 44.8029
3.44601 12.3286 44.5947
3.4161 12.4918 44.8515
3.37246 12.0859 44.9868
3.43745 12.6019 45.9775
3.47993 12.3724 44.2452
3.3283 12.1638 44.8379
3.34884 12.0131 45.0947
3.40988 11.7254 43.3143
3.34344 12.1328 44.3547
3.37404 12.3472 45.3623
3.42204 12.5038 44.9808
3.36877 12.1916 45.1697
3.4398 12.5166 45.7136
3.37164 12.057 45.5473
3.4584 12.4481 45.1822
3.40757 12.5262 44.9997
3.35479 12.1704 45.1699
3.39362 12.3737 45.3679
3.35038 12.2012 44.9588
3.31406 11.8556 44.4439
3.35448 12.282 45.5634
3.40615 12.5616 45.7226
3.34172 12.0795 45.5405
3.38674 12.2466 45.4066
3.36885 12.4308 46.0578
3.41131 12.2519 44.4672
3.26177 11.9174 45.4081
3.36849 12.2063 45.7984
3.39749 11.9847 44.1456
3.29766 12.1702 44.9737
3.32953 12.2676 44.1705
3.22014 11.8662 44.6889
3.27736 11.7988 42.9821
3.14693 12.0287 45.9114
3.34215 11.8791 43.8338
3.23248 12.0283 43.9818
3.18667 11.9544 45.1384
3.28715 12.1529 45.0091
3.23136 11.5602 43.5842
3.19982 11.838 44.4748
3.23268 11.7666 43.5166
3.16449 11.7995 44.6534
3.23347 11.6599 44.2036
3.2155 11.8556 43.7264
3.19265 12.1033 44.5316
3.20405 11.807 43.803
3.15797 11.9425 45.4398
3.27156 11.7588 44.9982
3.2592 12.107 44.6385
3.1965 11.5599 43.1178
3.11626 11.5806 44.9915
3.26184 12.0708 45.2049
3.22238 11.5881 43.7499
3.16429 11.7421 43.1091
3.08452 11.6903 44.183
3.13643 11.5141 43.6405
3.12366 11.5372 44.0706
3.16927 11.7702 44.491
3.15852 11.4383 43.7375
3.13717 11.5206 44.1263
3.17473 11.714 44.2929
3.16579 11.7987 44.4457
3.18772 11.7795 43.8095
3.11659 11.8084 43.2458
3.02797 11.3446 45.0383
3.21197 11.8274 43.8979
3.09746 11.5748 44.9501
3.2049 11.8164 43.8858
3.10775 11.7673 44.8397
3.15975 11.7226 43.9938
3.09957 11.5141 42.4874
2.98384 11.4756 45.14
3.15404 11.8174 45.2581
3.18187 11.8051 43.6185
3.05268 11.3923 43.992
3.10098 11.6526 43.56
3.03937 11.4509 43.7203
3.06022 11.5478 42.8108
2.95349 10.8456 43.3683
3.03766 11.354 42.7667
2.98482 11.4308 43.4954
3.05985 11.4972 42.3229
2.96967 14.2752 74.8272
5.3104 15.9096 44.6031
3.0496 11.974 44.2783
3.05823 11.4611 42.8453
2.98548 11.554 44.4691
3.07593 11.4566 44.2473
3.07311 11.6064 44.0251
3.05068 11.6074 44.5837
3.09119 11.4881 42.8973
2.95065 11.3219 45.1783
3.12445 11.3295 42.7337
2.96999 11.5391 43.3454
2.97597 11.4642 44.1028
3.0086 10.997 43.0353
2.97356 11.3637 43.6091
2.98051 10.958 42.6833
2.96866 11.2239 42.5127
2.92345 11.4272 44.5214
3.03331 11.3319 44.0793
3.00765 11.387 44.3046
3.02119 11.3395 44.0182
3.03573 11.2705 43.0979
2.95864 11.0835 42.8276
2.95201 11.3755 43.9494
2.98167 11.1269 42.5612
2.91954 11.2784 43.9774
3.00309 11.1385 43.0061
2.94467 11.3991 44.1374
2.99943 11.5851 44.9483
3.0547 11.3663 43.7173
2.9622 11.0642 43.3084
2.96761 11.4049 43.3964
2.92815 11.1538 43.6702
2.95883 11.0189 42.4901
2.90638 11.1583 43.0013
2.88841 11.0962 43.5048
2.95233 11.0343 43.0031
2.92297 11.3957 44.126
2.99151 11.1108 43.0092
2.92179 11.1456 41.9648
2.83823 11.1376 43.6061
2.92917 11.1303 43.7748
2.95559 11.0149 43.3976
2.93138 11.3389 43.2434
2.90453 11.2557 43.0959
2.86182 10.6385 42.562
2.86993 10.8891 43.1621
2.91444 11.2665 43.3643
2.94347 11.1104 43.5357
2.92314 10.9837 42.508
2.86256 11.0571 43.1736
2.89511 11.0092 43.2195
2.90825 11.1655 43.2998
2.88409 11.0796 43.4121
2.93006 11.0341 42.7806
2.87908 11.1725 42.7457
2.85032 11.001 43.2717
2.87422 11.1061 43.101
2.85866 10.831 42.7623
2.86795 11.2495 43.2138
2.8616 11.0058 43.5736
2.90317 11.1308 44.1998
2.92812 11.0338 43.6531
2.90094 11.1459 42.1375
2.78745 11.001 42.5073
2.81217 10.8591 43.6598
2.88709 11.2029 44.4918
2.94555 10.9434 43.8172
2.93838 11.2331 41.9032
2.7636 10.6207 42.3747
2.81073 10.7198 41.2248
2.73618 10.8324 42.6175
2.8051 11.0312 43.7227
2.88465 11.1647 42.6886
2.81264 10.9431 43.451
2.85372 10.8528 42.857
2.82346 10.681 41.8943
2.77873 10.937 43.8279
2.86609 10.4403 41.2009
2.71085 10.7444 42.2495
2.78819 11.0145 43.7836
2.90051 11.0185 42.6174
2.8005 11.113 42.9026
2.80425 10.8381 43.0069
2.8197 11.0333 43.0444
2.80507 10.7459 42.7247
2.82346 11.1006 42.9654
2.80387 10.3803 42.3897
2.79751 10.9659 42.2214
2.76191 10.9148 43.5935
2.86965 11.1525 43.5644
2.85026 10.922 42.943
2.81576 10.6335 42.4541
2.78475 10.975 43.7109
2.8627 11.2568 44.0742
2.86114 11.239 42.6027
2.78252 13.8644 75.7923
4.9744 15.1722 43.9208
2.84642 11.2883 42.2263
2.74999 10.9957 42.9178
2.79449 11.2166 43.6164
2.8214 10.5672 41.5938
2.71038 10.9598 44.1026
2.85223 10.8435 42.977
2.78247 10.8441 43.5537
2.84804 11.1316 43.1058
2.78614 10.6207 42.56
2.76597 10.8762 42.626
2.77124 10.8399 42.7315
2.76756 10.8548 43.3905
2.81199 10.6551 44.1745
2.86587 11.1036 42.5625
2.75787 10.805 42.8769
2.76952 10.6409 42.0348
2.71641 10.4828 42.1446
2.71589 10.7215 42.0716
2.73601 10.4586 41.2456
2.67776 10.3949 42.1942
2.73241 10.7811 42.1649
2.72456 11.061 43.4435
2.77938 10.6922 43.3463
2.78743 11.0635 42.6716
2.76528 10.6664 43.6346
2.82237 10.8936 42.795
2.76838 10.9796 44.0489
2.85241 10.8985 42.0492
2.717 10.8178 43.4415
2.81097 10.9084 42.897
2.76912 10.6426 42.3188
2.7213 10.7147 41.9662
2.69369 10.7171 43.2989
2.78647 10.7218 42.1826
2.71524 10.6248 42.9217
2.76468 11.0375 43.2116
2.78606 10.3832 40.9084
2.6289 10.5965 42.9836
2.74855 10.519 42.0357
2.70448 10.4989 43.3863
2.81085 11.0894 43.4417
2.78704 10.7402 43.0188
2.73188 10.7751 43.3611
2.78003 10.7045 41.5053
2.667 10.4609 42.2721
2.72317 10.4563 41.9268
2.70663 11.1177 43.7507
2.81176 10.8688 42.1783
2.71037 10.576 42.4551
2.7314 10.7297 41.7113
2.67232 10.5839 42.7219
2.75016 10.9947 43.2535
2.77521 10.5389 42.3223
2.7193 10.5666 42.6149
2.72117 10.8617 43.3055
2.77652 10.7269 43.6035
2.7903 10.3903 41.1809
2.63282 10.5055 43.3029
2.76637 10.8658 42.0567
2.68217 10.6687 42.4415
2.7146 10.6233 42.6689
2.73874 10.8638 42.4565
2.72821 10.5929 41.5551
2.66996 10.5617 42.1189
2.69063 10.3887 42.633
2.72256 10.7136 43.5087
2.78103 10.9667 44.016
2.78674 10.7978 41.734
2.67253 10.497 42.5071
2.72107 10.795 43.1184
2.7559 10.7834 43.584
2.8002 10.9909 43.17
2.75175 10.4972 42.1034
2.70745 10.606 42.915
2.73329 10.4887 41.5605
2.67205 10.4896 41.1952
2.6465 10.5401 43.6498
2.79107 10.8488 44.0107
2.79035 11.1235 43.0871
2.74331 10.5379 41.4173
2.64593 10.7687 43.4888
2.78738 10.8796 41.8048
2.6823 10.6979 44.0256
2.81707 10.5905 42.7213
2.73732 10.783 42.9284
2.75937 10.7943 43.8351
2.80577 10.8696 43.1926
2.78702 10.8061 42.204
2.69384 11.0396 44.4645
2.83684 10.7937 44.046
2.81202 11.0863 43.0021
2.75765 10.8564 43.3061
2.75489 11.3947 46.5866
2.95326 11.9106 46.9521
2.96401 14.5542 73.2375
4.70955 0 0