# pn-170911/RbIIR-54-RbIIA-1280-1959.psd
# Power spectrum* (dif=0,1,2) (really just |FT|^2)
# NOTE: only the first half! (symmetric)
# weeks: 1280-1959
# 3982 clock-days, 234 excluded
# PSD: 1441
4944.47 0.212133 0.0385435
516170 10.5714 0.0394589
1.68298e+06 32.04 0.0410228
313470 10.0839 0.0392152
196214 11.3621 0.0399499
96810.5 7.18987 0.0421684
65204.1 7.51763 0.039932
43498.8 6.62869 0.0428113
35527.1 6.78332 0.0429532
26071.6 6.35419 0.0431594
21728.2 6.27542 0.0427462
17738.7 6.15771 0.0429156
14492.5 6.01611 0.0425885
12236.1 5.89954 0.0439726
10910.2 6.28369 0.0461179
9366.22 6.02983 0.0463962
8412.96 6.12447 0.0469789
7320.99 6.17228 0.0486388
6673.39 6.11523 0.048828
5708.06 5.95188 0.048059
5459.65 6.32105 0.0515515
4849.31 6.24858 0.0532921
4522.09 6.4916 0.0571232
4061.84 6.20393 0.0583628
3847.69 6.48554 0.0584414
3465.31 6.39906 0.0625948
3209.7 6.43046 0.0620887
2983.82 6.53307 0.0619526
2928.83 6.87482 0.0670986
2776.84 7.16129 0.069358
2577.66 7.00216 0.0704558
2434.47 7.15942 0.0744036
2310.42 7.15478 0.0769416
2194.98 7.46186 0.0790248
2065.58 7.37853 0.0818991
2040.41 7.75921 0.0872399
1920.44 7.89408 0.0893908
1854.73 8.12817 0.0921203
1747.71 8.01796 0.0953734
1653.04 7.97685 0.0989182
1601.85 8.18714 0.102833
1550.91 8.56282 0.111296
1503.06 8.84016 0.114253
1467.95 8.70633 0.119355
1429.87 9.1477 0.12499
1372.9 9.06965 0.13077
1325.48 9.33808 0.130236
1282.01 9.64263 0.140225
1267.02 9.81805 0.146536
1235.8 10.0018 0.153595
1165.31 9.93543 0.155492
1177.31 10.5401 0.171259
1122.78 10.4146 0.172216
1090.77 10.4377 0.179246
1086.96 11.0875 0.192556
1035.29 11.0786 0.198479
1043.8 11.6236 0.216747
980.818 11.2171 0.215137
962.562 11.4044 0.222889
970.574 12.2059 0.238787
942.926 12.3708 0.254157
938.465 12.5064 0.261174
896.053 12.4876 0.269549
888.349 12.7494 0.283794
895.523 13.1211 0.29334
867.662 13.4848 0.31443
838.257 13.2384 0.314009
816.148 13.3848 0.323309
797.87 13.511 0.332036
778.522 13.8514 0.352755
797.855 14.1943 0.372492
779.75 14.5783 0.39058
751.868 14.5525 0.405162
720.73 14.4014 0.401704
710.869 14.4523 0.415007
710.125 14.8152 0.439428
727.304 15.7468 0.473094
693.01 15.4953 0.47637
662.918 15.2139 0.479004
677.918 15.9122 0.509328
641.978 15.3652 0.512121
660.398 16.3193 0.542877
630.804 16.1364 0.54755
630.888 16.7046 0.580877
616.755 16.5693 0.595678
618.33 16.6811 0.608816
581.916 16.6821 0.63308
586.42 17.2664 0.652505
570.926 17.0618 0.674629
571.006 17.9191 0.717869
562.597 17.4773 0.71579
572.371 18.7433 0.777613
548.663 18.052 0.768593
529.201 17.7588 0.765926
519.8 18.06 0.80037
526.283 18.4398 0.823653
577.424 21.3719 0.98168
518.664 18.8198 0.878138
512.983 19.2492 0.914567
490.776 18.6063 0.900694
490.43 19.0869 0.949411
487.878 19.4615 0.986555
491.131 20.0742 1.03296
477.518 19.6596 1.02362
486.231 20.7108 1.09187
455.202 19.8412 1.0793
449.916 19.8313 1.09201
455.611 20.5297 1.14937
442.773 20.2263 1.14921
438.07 20.8722 1.21336
426.882 20.5141 1.21383
438.955 21.5526 1.29696
429.198 21.2264 1.30092
424.017 21.6813 1.34797
410.798 21.4308 1.35485
404.23 21.4654 1.38482
402.456 21.6672 1.4137
384.268 21.2395 1.41875
391.846 21.8485 1.46385
402.724 22.7404 1.56251
385.391 22.7023 1.59052
398.123 23.7099 1.67497
369.781 22.1778 1.60351
382.569 23.4179 1.71346
381.987 23.8736 1.77348
371.184 23.6406 1.78157
355.059 22.4871 1.72111
356.924 22.8028 1.77015
344.942 22.6917 1.79374
354.104 23.5274 1.87652
345.656 23.7759 1.94814
340.654 23.4907 1.93288
334.274 23.793 1.99075
336.107 24.3527 2.06061
329.844 24.0264 2.0555
321.441 23.8559 2.0851
323.048 24.3397 2.15302
331.209 25.5456 2.30835
317.149 24.73 2.26753
320.605 25.076 2.31675
313.32 25.2451 2.36119
308.096 25.2625 2.40942
306.315 25.0746 2.41246
303.106 25.2705 2.469
301.672 25.5597 2.52247
285.343 24.4052 2.48
293.398 25.59 2.62234
293.759 26.031 2.66183
290.26 25.3631 2.66865
286.723 26.2681 2.76709
295.761 27.1316 2.93864
277.486 25.567 2.76282
286.255 27.1624 2.97609
279.989 26.81 2.98564
267.499 26.1595 2.94089
274.043 27.3706 3.13533
270.55 26.8561 3.10715
267.626 26.8701 3.14358
265.702 26.959 3.21371
264.943 27.6946 3.31044
266.042 28.1236 3.4438
260.606 27.6748 3.39311
258.571 27.6827 3.45024
251.484 27.5283 3.46167
249.719 28.0544 3.58663
247.461 27.6764 3.54779
240.917 27.8966 3.64062
251.465 28.9726 3.83731
247.663 28.9342 3.86135
242.599 28.6935 3.87484
238.609 28.1946 3.84592
239.927 28.7484 3.95141
232.395 28.3675 3.99534
226.349 28.0387 3.96818
230.672 28.7706 4.13052
231.81 29.3288 4.2651
228.988 28.8109 4.21288
220.982 28.7742 4.26984
228.147 29.8064 4.44384
215.936 28.6152 4.34675
216.842 28.842 4.39505
215.144 29.0933 4.50404
213.604 29.1797 4.57561
205.434 28.8448 4.56306
214.692 30.2255 4.83242
212.99 29.765 4.77563
211.339 30.1536 4.90681
204.405 29.7361 4.90647
204.906 29.8473 4.95832
202.964 29.8107 5.04831
194.561 29.0327 4.94629
203.156 30.8656 5.35455
246.923 38.6931 6.64831
195.388 30.1024 5.22937
195.187 30.1887 5.37307
196.228 30.8422 5.53363
192.964 30.525 5.52533
186.947 30.1 5.48565
194.056 31.1633 5.71652
187.895 30.5842 5.70343
186.388 31.0891 5.88276
186.051 31.3952 5.95956
185.574 30.8632 5.87781
179.99 30.5103 5.90279
182.769 31.1616 6.08978
177.191 30.9903 6.11976
179.73 31.7671 6.32488
174.886 30.9157 6.17417
178.232 32.2521 6.59559
176.195 31.6433 6.50386
174.836 32.0351 6.5998
164.939 30.3938 6.37498
171.597 32.0651 6.75815
167.581 31.4537 6.65763
163.445 30.759 6.61883
170.205 32.6147 7.05698
157.81 30.5261 6.69033
169.933 33.0855 7.23461
156.942 30.6623 6.82084
160.128 32.1442 7.25554
163.788 32.8696 7.44834
159.346 32.4244 7.41928
160 32.5829 7.50564
156.629 32.4652 7.55763
154.635 32.7187 7.67175
150.677 31.9866 7.52618
155.557 32.8064 7.81538
153.176 32.846 7.9268
154.111 33.0122 8.01471
153.288 33.9004 8.30576
150.696 33.0728 8.11461
143.306 31.8068 7.93149
147.465 32.7005 8.21903
143.196 32.4647 8.21204
145.42 33.0133 8.39134
142.997 32.8104 8.4641
142.613 33.1938 8.6674
144.215 33.3617 8.7499
143.17 33.3783 8.77237
150.057 35.8322 9.48111
141.967 34.1264 9.1946
137.121 32.701 8.84144
138.357 33.5038 9.17051
136.632 33.3258 9.16354
134.821 33.2119 9.1837
137.915 34.5718 9.6423
134.706 33.8819 9.59087
134.92 33.954 9.6104
133.589 34.0312 9.74665
133.914 34.1596 9.7649
127.961 32.9681 9.65699
128.25 33.2248 9.76143
128.912 34.1184 10.1288
128.2 33.8827 10.0536
127.532 33.9896 10.1987
127.731 34.3973 10.4397
122.104 33.2118 10.1966
121.997 33.6717 10.3402
124.587 34.3758 10.5975
122.742 33.9726 10.5952
126.185 34.8652 10.88
123.037 34.6372 10.9114
119.428 33.9152 10.8674
121.406 34.8489 11.1388
116.337 33.319 10.8516
119.741 34.6391 11.1898
115.07 33.8249 11.0873
117.304 34.6321 11.4416
116.011 34.3968 11.4529
116.968 34.8997 11.7182
114.574 34.443 11.5825
114.461 34.628 11.7973
113.118 34.8141 11.9276
107.952 33.5427 11.678
111.445 34.5481 11.9871
112.35 35.1301 12.2322
111.658 34.9693 12.2838
112.792 35.053 12.4298
108.85 34.5218 12.3239
106.967 34.8405 12.5628
105.336 33.8762 12.2608
105.156 34.572 12.6745
106.94 34.6842 12.6643
104.777 35.051 12.9314
101.341 33.4926 12.4658
104.652 34.6786 12.9418
102.952 34.9886 13.3318
104.951 35.5896 13.6336
136.973 48.0996 17.8383
104.541 36.149 13.9702
99.6265 34.8588 13.5408
101.861 35.5513 13.8652
97.6601 34.5357 13.5868
99.9319 35.4118 14.0565
98.6102 35.2946 14.0588
99.5798 35.6294 14.2307
94.142 34.2201 13.8263
98.3238 36.0706 14.6123
95.8078 34.8003 14.297
97.8803 36.0141 14.745
96.7558 35.8026 14.8999
94.6431 34.5557 14.188
93.9662 35.3824 14.9204
93.6913 35.357 14.9076
94.2915 35.6961 15.1499
91.9741 35.1471 15.0848
93.8222 36.3877 15.6882
91.3458 35.1889 15.155
91.5797 35.6929 15.5759
93.8613 36.8532 16.0862
88.6467 35.1864 15.5274
90.4858 35.4676 15.6132
91.0732 36.4429 16.211
87.8535 35.6199 16.0023
86.8101 35.1197 15.9109
87.9238 35.8974 16.3646
87.83 36.1597 16.4961
85.1552 35.1723 16.2321
85.9843 35.2294 16.3325
85.4498 35.4887 16.4939
85.6227 35.6954 16.5879
85.833 36.0827 16.8886
88.4063 37.4585 17.6639
83.1261 35.8237 17.1524
80.3724 34.557 16.7138
83.6416 36.1463 17.4956
80.4527 35.1965 17.2015
82.724 35.9137 17.4275
82.7926 36.4587 17.9772
82.6565 36.1229 17.6576
80.5439 35.6531 17.6862
80.3183 36.0033 18.0573
80.061 36.2474 18.1005
79.6149 35.5052 17.981
80.35 36.5852 18.6188
79.0401 35.7817 18.288
76.5614 36.1201 18.5492
76.5013 35.3931 18.2256
75.2899 35.1679 18.1784
77.1668 36.5271 19.2427
75.8031 35.6958 18.967
76.8772 36.3916 19.3533
74.7634 35.2018 18.6457
73.6788 34.788 18.4458
73.6555 35.5405 19.1206
74.5719 36.0599 19.4334
71.2158 34.8667 19.0897
75.2153 36.7739 20.0098
71.2561 35.4139 19.625
74.2496 36.8985 20.4478
73.2586 36.257 20.1684
72.1619 36.2031 20.116
72.0758 36.8889 20.7707
71.5935 36.1761 20.4065
70.2697 35.4384 20.1138
70.2436 36.0841 20.5471
70.2289 36.6943 21.0504
69.4633 35.5723 20.4993
68.221 35.5036 20.527
68.2859 35.7864 21.0179
68.2249 35.0694 20.3297
66.7813 35.6189 21.0112
69.3908 37.6429 22.4481
68.8495 36.6624 22.0006
67.0954 35.7948 21.2916
67.94 36.5949 21.8915
65.3468 35.2082 21.3183
66.3073 36.4767 22.3144
64.87 35.5784 21.6193
64.3341 35.3608 21.7485
64.3663 35.7083 22.0595
64.447 36.0086 22.3649
66.6387 37.5979 23.326
64.5525 36.5804 23.0715
64.2586 36.6389 23.2224
62.8644 35.575 22.6875
63.278 36.1904 22.9022
60.6777 34.9476 22.4457
61.4059 35.4925 22.8311
61.8243 36.2069 23.4896
61.7318 35.7276 23.1887
59.4203 34.9586 23.0249
60.9719 35.271 23.1095
61.222 36.7976 24.9311
79.6922 48.2075 30.7
60.651 36.2016 24.2311
59.9783 35.5339 23.5522
58.7355 35.4558 23.9512
60.0513 36.6472 24.9696
59.93 35.7038 24.0819
59.3786 36.2775 24.9121
58.4698 35.3719 23.9867
59.4692 36.5061 24.9537
58.5094 36.3803 25.3041
56.332 35.4852 24.8511
56.6419 35.9393 25.2213
58.45 36.3254 25.1481
57.5331 36.5115 25.8655
56.6729 36.0344 25.4125
55.3127 35.4075 25.2816
55.6109 35.5986 25.4927
57.2146 37.3442 26.9018
57.3233 37.4582 27.0495
55.9988 35.5595 25.6112
54.694 35.8828 26.2353
54.8279 36.1849 26.5342
54.8966 36.0071 26.5253
53.6599 35.3382 25.852
54.4577 35.7587 26.532
53.1276 35.4757 26.4177
53.0551 35.1989 26.2609
53.7095 36.1005 26.9912
54.1107 36.4263 27.3822
51.8462 35.3485 26.6805
51.3416 35.6277 26.9561
52.1127 35.8339 27.5595
52.137 36.1269 28.1527
51.5731 35.2531 27.2492
51.6816 35.403 27.4681
50.1111 35.3495 27.6089
49.8112 34.5841 27.0212
50.2753 35.1382 27.6872
49.6877 35.2206 27.6663
49.4899 35.0842 27.7585
49.5105 35.6712 28.5105
49.2502 34.965 28.0589
48.505 34.6944 27.9161
48.7076 35.3331 28.4316
48.7777 35.9624 29.086
47.8157 35.0178 28.6603
46.8078 33.94 27.7249
48.3528 35.7786 29.3566
49.0286 35.7343 29.3963
48.1443 35.1875 29.1168
48.2977 36.5279 30.9257
47.5582 35.2966 29.2751
47.5754 35.339 29.4649
47.9841 35.6555 29.7906
45.4642 34.7908 29.8856
46.3661 34.4035 29.0638
46.4253 35.7238 30.3098
45.4329 35.2295 30.2777
45.004 35.1882 30.4033
45.8971 35.3532 30.7926
46.4489 36.0502 31.1105
43.9159 33.8234 30.021
46.4982 35.7662 31.0874
43.9167 33.8254 29.5901
44.1861 34.4448 30.2773
44.567 35.8471 31.9067
43.9844 34.1188 29.9428
42.9295 34.2051 30.7468
44.51 35.5684 31.6775
43.9357 35.2132 31.6831
42.2304 34.2458 31.223
43.0389 35.0739 32.0792
44.408 35.6743 32.1659
43.4238 35.2399 32.0817
41.7337 34.1552 31.5285
42.8524 35.6983 33.0369
43.094 35.6708 32.7558
42.5667 35.5285 32.907
42.1701 34.91 32.7467
42.9876 36.0683 33.6598
42.2646 35.3795 33.13
41.4746 34.8678 32.924
41.2153 34.9541 33.0326
40.4017 34.1135 32.5322
40.7985 35.0238 33.5246
41.0494 35.5414 34.1966
41.2727 35.4686 34.1739
40.7928 34.9287 33.6476
39.9858 35.3668 34.6495
40.8849 35.3804 34.5645
40.2226 34.5849 33.9003
40.3987 34.9352 33.8805
39.6916 35.2401 34.6467
39.7571 35.3069 35.004
38.9925 34.5446 34.8666
38.5692 34.1761 35.6894
51.1954 46.6632 43.6489
37.3911 33.8166 34.5242
37.8664 33.9487 34.2817
38.7753 34.9027 34.8033
37.1811 34.0167 34.998
37.4476 33.9816 34.6603
37.4322 34.0851 35.0637
38.0548 34.5152 35.2232
37.0737 34.1117 35.1269
36.2812 33.4288 34.6221
38.0417 35.4275 37.0061
36.9888 34.235 35.6335
36.8018 34.3941 36.2475
37.4769 34.7947 36.2095
37.2631 35.0411 37.0834
35.843 33.4383 35.2813
35.746 33.8671 36.3635
36.3181 34.3088 36.2121
35.501 33.2986 35.4675
35.4282 33.527 36.0518
37.0347 35.3461 37.6481
35.073 33.4504 35.7447
34.1665 33.3652 36.4193
34.3302 33.7077 37.2322
35.7121 34.4102 37.2083
35.2859 34.4826 37.6195
33.9094 33.3351 37.2378
35.2644 34.8664 37.9881
34.3573 33.7768 37.4745
34.6839 33.658 37.3499
34.3928 34.2339 38.2902
34.5917 33.5609 37.4669
34.4322 34.3595 38.2655
34.2654 33.9528 38.329
33.9467 34.1615 38.8075
34.1525 34.3074 38.6499
31.874 32.5508 37.455
32.8664 33.297 37.9849
32.6445 33.3957 38.282
31.7853 32.889 38.1902
33.0466 33.6559 38.7252
32.6166 33.6809 39.2947
32.3085 33.7868 39.0555
32.584 33.8959 39.2583
32.8024 33.5993 39.4611
32.4507 33.6539 39.3155
32.2289 33.2915 39.2062
31.2507 33.4348 40.1708
31.9392 33.4828 39.5096
30.3601 31.5149 37.5237
31.8461 33.7275 40.1491
31.318 33.1602 39.8445
31.1644 33.3853 40.6353
32.4472 34.1641 40.9356
31.1846 33.6749 39.8893
30.1947 33.0901 40.4037
30.1887 33.0514 40.3332
29.8538 32.6224 40.4107
30.6697 33.681 41.4124
30.0249 32.3341 39.3431
30.1373 33.0677 41.1855
30.3143 32.769 40.5349
30.0012 33.0076 41.0265
31.1289 33.767 41.759
29.9889 33.4626 41.7698
29.7627 33.4254 41.6294
28.4518 32.2594 40.8188
28.7105 32.54 41.7892
30.1195 34.0994 43.0524
28.8928 32.9989 41.8304
29.0082 32.4577 41.6018
29.5492 33.5697 43.1436
28.4866 31.9309 40.3165
28.5102 33.09 42.8545
28.8152 32.12 41.3904
28.4141 32.4348 42.3572
27.9002 31.7939 41.3402
28.5579 32.8734 42.3766
28.1075 32.6671 42.6885
28.4259 33.6234 44.6106
28.1915 32.2219 42.2349
28.3151 33.1424 43.6219
28.0571 33.0796 44.2663
27.698 32.2415 42.9456
27.3589 31.9201 42.4175
27.9098 32.685 43.3411
26.8285 31.457 42.0969
27.3561 32.6327 43.9642
26.9943 31.6208 42.5226
26.8268 32.1754 43.6584
27.1031 32.0719 42.9732
27.1683 33.1482 45.5185
26.8999 32.1491 43.7763
26.7812 32.4656 44.8142
26.5169 32.3273 45.7927
27.0853 33.0663 48.7879
36.2759 44.4581 56.1455
26.8305 32.9119 45.3177
26.0807 32.2463 45.4374
25.8081 31.687 44.6281
26.1354 32.0978 44.7581
25.9445 32.2064 45.0481
25.7063 31.8292 44.4782
25.1558 31.0456 43.6084
24.8833 32.019 46.2424
25.66 31.5019 44.6217
25.2176 31.1695 44.4965
25.6582 32.0547 45.6677
25.0689 31.8327 46.0533
25.367 31.8046 45.7329
25.7112 32.3787 46.4132
24.828 31.4814 45.3225
24.4752 31.4834 45.2671
24.7068 32.0242 46.6281
23.8898 31.302 46.2796
24.6498 31.8022 46.426
24.2219 31.2979 46.2118
24.2727 31.4347 45.8867
23.8609 31.3218 46.2879
24.4615 31.3572 45.7711
23.7815 30.9133 45.9297
23.8538 31.009 46.3431
23.5025 30.3946 44.4865
23.8162 31.2245 47.1665
24.2862 32.1652 48.3674
24.3708 32.063 48.0048
23.136 31.0399 47.2673
23.2014 30.3853 46.0214
23.779 31.0668 46.2761
23.3687 31.7552 48.2194
23.1077 30.4328 46.7634
23.0612 31.2738 47.7424
23.1757 31.3479 48.14
22.6593 30.442 47.3483
23.2262 31.0163 47.0114
22.5902 30.7496 47.3431
22.5239 30.5614 48.0655
22.1915 30.2562 47.6828
23.3678 31.6729 48.9493
22.86 30.8786 48.3128
22.6173 31.5367 49.2669
22.8068 31.3944 49.4416
22.4194 30.6826 48.5488
22.0908 30.808 48.9578
21.8534 30.1113 47.5596
21.9735 29.9075 47.3169
22.0078 31.0781 49.36
22.207 30.7068 48.5877
21.469 30.3809 49.1338
22.3593 30.5784 48.1992
21.4425 31.0405 50.4482
21.4112 30.0156 48.4528
21.9225 30.8462 49.3595
20.9232 29.865 48.7291
21.5619 30.5211 49.2533
20.5519 29.3637 48.2318
21.0872 30.3391 49.6126
21.1211 30.0171 48.8277
20.6036 29.779 48.6888
20.3007 29.6174 49.3026
20.5313 29.6379 49.2884
20.9337 30.2697 49.8711
20.8663 30.0924 49.3194
19.7569 29.1454 49.2698
20.5183 29.7151 49.3126
19.8546 29.1081 49.1121
20.5896 30.2506 50.9316
20.131 29.1667 49.7371
20.6169 30.5116 51.3757
20.4897 30.114 50.5164
20.447 30.2791 51.0049
19.8405 29.0209 49.3993
20.5142 30.1895 51.8753
20.2648 30.1295 51.7519
19.9795 29.8944 50.7851
18.9438 28.4077 48.8594
18.7603 28.307 49.3214
19.7831 29.1157 49.5816
19.2034 28.5628 49.5478
19.1596 29.254 51.4677
19.417 29.3649 50.6424
19.1746 28.9357 50.3507
19.1673 29.2611 51.4674
19.2353 29.5932 51.7901
19.4737 30.0853 52.7118
18.9519 29.2434 51.7504
19.1862 29.1273 51.0231
18.7569 28.7761 50.8405
18.5102 28.6468 51.1882
18.7752 28.9004 51.1138
18.2042 28.4904 52.2809
18.7172 29.5317 58.9604
26.3113 40.5739 63.8024
18.7002 29.5846 53.7081
18.989 29.3441 52.0789
17.8862 28.2592 52.0192
18.1887 28.7506 51.6858
18.4447 28.6336 51.9071
18.3414 28.954 52.5815
17.8533 28.841 52.3495
17.9509 28.1139 50.8312
17.8865 28.3622 51.9945
18.2138 29.12 53.1583
18.1007 28.9576 53.6775
17.9448 28.7062 52.634
18.0654 28.8497 52.6819
17.7824 28.7083 53.8438
18.0653 28.5326 52.5567
17.2927 28.1848 52.5746
17.2799 28.0974 52.6841
17.4636 28.2051 52.3481
17.0684 28.1047 52.6996
17.0806 27.8127 53.3825
17.5509 27.9236 52.4998
17.7121 29.0961 53.8442
16.8763 27.6381 52.6287
17.246 27.6473 52.4677
17.1514 27.5064 52.2656
16.9125 28.0096 52.9804
17.3221 28.7655 54.228
16.5856 27.5149 53.4553
16.9977 28.1179 53.5184
16.5816 27.4997 53.5501
17.4771 28.905 54.574
16.7594 28.6846 55.6143
16.9177 28.6754 55.7701
16.7082 27.3661 53.1186
16.909 28.4576 54.0644
16.6155 28.1796 54.3972
16.5438 28.5576 56.0057
16.2446 27.2909 53.5824
16.707 28.5588 55.998
16.4918 28.0131 55.5469
16.233 27.837 55.2667
16.3761 27.5864 54.2921
16.207 27.4632 54.2054
16.1844 27.6893 54.6701
15.7325 27.2153 54.4772
16.1424 27.662 55.7584
16.6806 28.6678 56.2861
16 27.6045 54.3136
15.547 27.5204 55.7083
15.9631 27.4309 54.8164
16.0368 27.6814 55.8169
15.821 27.6794 54.7983
15.4734 27.2262 55.1812
15.6499 27.8736 57.1163
15.8293 27.6674 55.8224
15.8469 27.5199 56.3232
15.6205 26.9695 54.5993
15.1415 26.7249 54.1904
15.1696 26.7989 55.1574
15.4582 27.2605 56.0522
15.2669 27.1831 55.9135
15.5794 27.8092 56.4757
15.006 26.4997 55.2587
15.3872 27.3688 55.5535
14.9508 27.0052 56.2122
15.1542 27.1748 56.9399
14.8402 26.5542 55.9217
14.8614 25.987 54.0083
14.673 26.8374 56.7142
15.3251 26.9546 55.6886
14.5199 25.6831 53.8953
14.7335 26.7752 56.0422
14.6978 26.5108 56.2343
14.3482 25.9053 54.7398
15.0048 27.6284 58.2351
14.8888 26.7055 56.3151
14.3029 26.3576 56.5398
14.5137 26.7382 56.5811
14.3296 26.8551 58.482
14.4085 26.2415 56.8835
14.583 26.7349 56.8374
14.1673 25.8462 55.6434
14.5652 26.7287 57.3922
14.6124 27.6314 60.0266
14.6367 26.6334 57.6628
14.5444 26.8161 57.3003
14.0549 26.3974 57.9171
14.4239 26.8648 57.7636
13.8672 25.5879 55.1455
13.7679 26.0208 57.578
14.05 26.1042 56.6947
13.6917 25.6581 57.0271
13.7691 25.8244 56.8421
13.9112 25.9709 58.6649
14.0409 27.3305 68.8224
18.9481 34.782 65.1854
13.9741 27.3382 61.2353
14.0846 25.9408 57.8857
14.1061 26.9628 59.1687
13.737 26.3679 59.5168
13.9066 26.2379 58.1838
13.7211 26.6067 59.3907
13.362 25.3471 56.8881
13.3561 25.8608 57.92
13.2342 25.3673 56.277
13.159 25.4119 56.6263
12.8067 25.2991 58.3527
13.4008 25.6887 57.8775
12.8511 25.0175 58.1956
13.3609 25.164 56.751
13.1645 25.2213 57.2752
13.3944 25.5985 56.8497
12.7243 24.8438 57.7265
13.2626 26.3882 59.2443
12.8284 25.0472 58.0473
12.8722 25.2134 58.586
13.0749 25.2685 57.5522
13.0649 25.7969 58.9396
12.8551 24.8494 57.9838
12.964 25.7073 58.7697
13.0018 25.7847 59.1601
12.5447 25.2183 59.4705
13.1532 26.0762 59.968
12.9824 25.5089 59.5273
12.4173 24.8757 58.9061
12.6725 24.9988 57.8432
12.8075 25.7747 59.5497
12.3979 24.5556 58.176
12.2988 25.2148 60.6754
12.7313 24.8187 58.3057
12.6688 25.2273 59.2441
12.5344 25.3763 60.0313
12.7151 25.3029 59.6937
12.3805 24.9457 59.2573
12.3921 25.2949 60.4258
12.556 25.2032 59.1632
12.1271 24.6573 58.0496
11.7739 24.1204 58.8306
12.3811 24.8331 59.4915
12.4566 25.1933 61.1428
12.2888 25.6831 61.1814
12.2668 24.6319 59.3285
12.2758 24.7609 59.7342
12.3477 24.917 59.7189
11.9636 24.507 60.0862
12.5517 25.6663 61.5646
12.1174 24.2801 58.5386
11.9454 25.0234 61.1045
12.0046 24.2346 58.2286
11.6668 24.2688 60.3366
11.8033 24.9199 60.489
12.0699 24.484 59.1181
11.5853 24.5329 61.2932
11.9979 24.8599 60.4744
11.9643 24.7977 62.2546
12.0966 24.8896 60.6551
11.6731 24.4065 59.7307
11.5026 24.4657 61.0901
11.6812 24.2144 59.3644
11.4292 24.0614 60.2701
11.5026 23.6844 59.9406
11.6969 24.3418 58.4044
11.0508 24.0461 61.0591
11.3266 24.079 59.2226
11.0628 23.2078 59.1881
11.2623 24.3601 61.1354
11.6576 24.7279 61.0974
11.0926 23.376 59.9849
11.4314 24.2824 60.2776
11.2239 24.0181 60.6516
11.4689 25.1027 62.8624
11.0817 23.7501 61.0942
11.4996 24.3047 61.0467
11.1535 24.0768 61.5369
11.065 23.356 60.4197
11.3564 24.3724 62.3061
10.9823 23.0604 59.4264
11.2853 23.941 60.309
11.0645 24.4094 61.9398
10.988 24.229 62.1296
11.0499 24.0135 62.2062
11.1995 24.4378 62.4207
11.0648 23.7634 62.5402
11.1675 24.2737 61.4976
10.8969 23.9542 61.5421
10.7425 23.8718 62.5778
11.0216 23.9718 62.1719
10.9065 23.8227 61.6948
10.7603 24.3285 64.6082
11.066 24.5945 63.29
10.8555 25.5008 78.6042
14.7307 31.0945 69.3183
10.8166 23.9896 62.5673
10.7719 24.2962 63.6264
10.6706 23.8425 63.3397
10.8125 24.0818 62.5242
10.4703 23.6361 63.4553
10.8485 23.8011 61.9752
10.5201 23.3706 62.508
10.5218 23.0391 60.6226
10.6094 23.4704 62.2518
10.3077 23.2196 62.0469
10.4769 23.5204 63.1793
10.5091 23.5217 62.2545
10.2417 22.9276 60.9581
10.1323 23.1205 62.5351
10.4838 23.3304 62.263
10.3484 23.3803 61.7831
10.1096 23.4769 63.2178
10.1603 22.9557 63.1012
10.3264 23.2038 61.9437
10.2454 22.9847 60.9371
9.98149 22.3306 60.7431
9.99759 22.9385 62.4599
10.0457 22.5821 60.5084
9.89963 22.9403 64.4031
10.3146 23.2132 63.2924
10.4682 23.4015 63.0162
10.1098 22.7933 61.0902
9.89773 22.8431 61.5496
9.7943 23.1517 64.4079
10.1506 22.8949 61.5504
9.71292 22.8516 63.3362
9.89152 22.3666 61.7676
10.0205 22.925 63.5791
10.0236 22.6525 61.3852
9.54712 22.6328 62.5393
9.61272 22.2841 62.22
9.68776 22.1251 60.8402
9.48221 22.1726 61.6599
9.6789 22.5742 63.6029
9.87778 22.6601 62.5453
9.77434 22.9076 63.3563
9.54331 22.0563 60.941
9.69795 23.2068 64.1333
9.4395 21.8597 60.9926
9.3911 22.2091 63.0637
9.50928 22.1759 62.7594
9.58204 22.5272 64.0828
9.70813 22.4048 61.5905
9.41577 22.3383 63.0261
9.40689 22.0852 61.4793
9.44234 22.1555 63.8021
9.40037 22.1055 63.0571
9.50484 22.2853 62.6863
9.294 22.3299 63.8183
9.63829 22.8614 63.3528
9.3963 22.1089 63.036
9.35719 22.2461 63.8647
9.27794 21.5826 61.2313
9.18909 22.0225 63.4122
9.2691 21.5647 61.8055
9.26888 22.0396 63.6153
9.09066 21.5668 60.9277
8.91309 21.3933 60.4706
8.79734 21.7051 63.5689
9.0332 21.2077 61.7255
9.09872 21.4205 61.6455
9.07306 21.9614 63.1556
9.07459 21.9666 63.1569
9.08527 22.3394 64.8726
9.08291 21.5178 62.2724
8.98775 21.9217 64.0527
8.96029 21.4751 63.5364
9.26888 22.246 63.6267
8.88697 21.3422 61.945
8.88727 21.8896 64.6439
9.00641 21.4313 62.5276
8.82818 21.9572 64.9107
9.12375 21.6754 63.328
8.98626 21.5486 63.2438
8.99148 21.986 63.5248
8.84052 21.7533 63.2786
8.70714 21.471 63.78
8.9172 21.7271 63.5948
8.7149 21.5512 63.4778
8.80423 21.7761 64.6927
8.88144 21.4083 64.3337
8.74062 20.9236 62.6465
8.8833 22.2073 64.1808
8.75266 21.4701 63.4098
8.70232 22.1185 65.3106
8.74777 21.7681 65.5077
8.72047 21.1014 63.4222
8.54439 21.0812 63.7453
8.73448 21.8197 65.1207
8.50644 23.195 84.4538
11.7945 27.7887 68.672
8.7454 21.8077 64.2609
8.30302 21.1276 65.1451
8.75544 21.1097 63.0206
8.41609 21.096 63.2934
8.45755 20.7856 62.8117
8.5329 21.356 64.6598
8.47194 21.0966 63.6601
8.56845 21.1711 64.6729
8.4576 21.5712 64.2329
8.53265 21.5715 64.8012
8.34685 21.4109 65.718
8.41588 21.0214 64.7199
8.48256 20.9772 63.9797
8.38642 20.6562 62.4337
8.23389 21.4411 65.8011
8.53418 21.5048 65.5184
8.56862 20.8387 63.3179
8.20159 21.1997 64.9215
8.27497 21.1392 64.6837
8.13157 20.4133 63.2556
8.29897 20.8844 63.8703
8.18355 20.6832 62.4357
8.02959 20.616 63.9751
8.17004 20.7115 64.3515
8.2865 20.8999 64.4493
8.11602 20.8516 64.4943
8.08089 20.5399 63.9334
8.27352 21.3767 65.9327
8.30231 21.4054 66.7754
8.19858 20.6744 64.1261
8.0502 20.3373 63.6437
8.12255 20.9891 65.5892
8.19295 20.6655 64.3538
8.3006 21.3276 65.2702
7.9723 20.6678 65.6461
8.1541 21.3176 66.7867
8.06642 20.1005 63.0479
7.99832 20.54 64.5872
8.01626 20.5283 64.057
7.8939 20.4438 65.4698
7.93832 20.3361 64.5769
8.11798 20.8765 64.953
7.95424 20.9894 65.3731
7.84785 20.2579 63.9442
7.76789 20.4923 64.9862
7.94392 20.6812 65.8966
7.95845 20.5559 64.7807
7.83844 20.2344 64.2845
7.89116 21.4234 67.7064
8.03705 20.6996 67.1566
8.0646 20.1276 63.0887
7.77371 20.3232 64.416
7.62385 20.1239 65.0947
7.77544 20.1221 63.2523
7.63335 20.2144 65.2866
7.86021 20.5993 65.1425
7.72038 20.5785 66.2085
7.63507 19.8571 64.7439
7.85737 20.2706 64.6068
7.65103 20.0397 63.7085
7.4687 19.9867 66.2884
7.80402 20.5458 65.1095
7.62682 20.3271 65.7095
7.55457 19.984 64.2539
7.36524 19.8153 64.6781
7.68263 20.4782 65.1549
7.6052 20.4842 67.9335
7.76869 20.1067 64.7192
7.56844 20.2415 65.1426
7.55241 19.7421 63.8273
7.47817 19.7823 65.596
7.75552 20.1324 66.3453
7.71928 20.166 65.363
7.57855 20.5592 66.3062
7.37723 19.9674 67.0761
7.66773 20.0032 64.3609
7.46036 19.9079 66.2941
7.62803 20.7677 64.7304
7.24931 19.4423 64.4456
7.37611 20.0923 66.795
7.55985 19.9205 64.1959
7.23716 19.5775 63.1302
7.27412 19.8684 67.0738
7.45418 19.9022 65.937
7.46537 19.9424 66.1841
7.29415 19.8801 66.2627
7.54129 19.9073 65.4217
7.31922 19.9736 65.0473
7.23275 20.106 67.5747
7.38492 19.5589 65.2665
7.51077 20.3347 64.8697
7.24935 20.0674 65.4312
7.10456 19.4316 65.2385
7.21891 19.7165 65.6006
7.33646 22.2736 90.829
9.78381 25.0151 68.6665
7.27008 20.6376 67.4331
7.13784 19.4196 67.2238
7.52527 20.1604 65.2702
6.99739 19.331 65.4888
7.10892 19.3111 65.8103
7.23124 19.3369 64.9534
7.18609 19.646 66.0357
7.18394 20.0578 64.7764
7.01127 19.7 67.4433
7.12688 18.9656 63.6742
7.02143 19.3151 65.2689
7.18324 19.3882 66.518
7.19599 19.7148 67.14
7.15029 19.1636 63.4881
6.85053 18.8583 64.9899
7.06701 19.6177 65.3053
6.95404 19.5204 66.9329
7.20127 19.5641 65.5356
6.84485 18.8507 64.1666
6.82694 19.4537 66.3131
6.96817 19.3782 65.6017
6.93614 18.8884 64.185
6.78762 18.7711 63.6139
6.6821 18.8109 65.1344
6.93886 19.386 64.9106
6.79087 19.1469 64.738
6.75548 18.1952 64.5522
7.08787 19.2222 64.875
6.72531 19.4485 66.719
6.97936 19.3674 65.3824
6.85708 18.8006 65.9341
6.86416 19.1617 66.0673
6.9959 19.5671 67.2792
7.07612 19.2753 66.4296
6.93151 19.9529 68.3641
6.85965 18.7487 64.772
6.69197 18.9538 66.7726
6.9728 19.3446 65.0202
6.75394 19.0492 66.5938
6.88099 19.1321 65.9283
6.8263 18.8782 64.6154
6.58984 18.3287 65.9959
7.03274 19.4314 64.3593
6.50627 18.4744 66.0472
6.71575 18.5175 64.9454
6.73326 19.0931 66.619
6.78995 19.2506 66.3685
6.73009 18.9961 65.8387
6.62668 19.1425 66.6181
6.65527 18.8157 66.0937
6.66928 18.8504 67.0035
6.77441 19.3531 65.7103
6.678 19.0874 65.4316
6.62583 18.4862 65.4026
6.64971 18.6804 65.8168
6.73262 18.5889 64.8897
6.63017 18.8493 66.0866
6.68345 19.2691 67.872
6.59662 18.523 66.0677
6.74063 18.7328 65.4115
6.46012 18.721 66.7368
6.63078 18.5165 64.8676
6.56634 18.7975 66.0698
6.46356 18.9351 66.2443
6.52682 18.4083 66.29
6.63394 18.3032 65.4485
6.56213 18.4174 64.8799
6.51334 18.6516 66.1124
6.56048 18.3417 65.4238
6.48168 18.9087 65.714
6.34158 18.2024 64.8314
6.4535 18.4335 66.5553
6.54123 18.4473 65.233
6.4898 18.4647 66.0649
6.43793 18.3165 62.977
6.26333 18.2738 66.6694
6.50008 18.4762 64.7341
6.31213 18.4833 68.2342
6.71693 18.7947 66.2298
6.5146 18.4421 64.9815
6.45045 18.806 67.0096
6.40015 18.7812 66.8067
6.47629 18.5776 66.9405
6.56446 18.9794 66.8054
6.34461 18.0795 64.9995
6.32573 18.4587 67.0625
6.3648 18.588 65.7482
6.36142 18.8129 69.2188
6.5639 18.2944 66.389
6.48008 18.8838 66.6452
6.38635 18.7937 67.4033
6.38335 18.8553 67.5001
6.38357 18.5344 68.4135
6.49809 19.1464 69.7718
6.51333 21.0315 93.4617
8.59892 23.8695 70.2331
6.50673 19.4308 68.6111
6.43778 18.7252 68.7914
6.54935 19.1923 68.8336
6.4951 18.1216 66.1566
6.39976 18.5749 65.3641
6.18024 18.5299 68.566
6.34891 18.6655 65.7864
6.165 18.4309 68.0597
6.39538 18.5959 67.1602
6.30124 18.6603 66.304
6.16351 17.5799 66.9474
6.31144 18.3666 66.4621
6.19667 18.0188 65.394
6.18064 18.1201 65.4449
6.05207 17.5739 65.4619
6.20439 18.2225 65.9406
6.18033 17.8566 65.5055
6.23936 18.3669 67.0276
6.15621 17.6711 65.4672
6.16889 17.6004 64.3286
6.00432 18.3149 67.1938
6.11083 18.3998 67.0967
6.1317 17.8149 64.943
6.06522 17.9597 67.54
6.36452 18.7563 67.005
6.18385 18.2118 67.3136
6.18316 18.2437 66.8448
6.18195 18.0537 65.47
6.0617 18.1787 67.1163
6.1437 17.9256 67.5656
6.22832 18.0124 65.9951
6.01697 17.8531 65.8999
6.12792 18.0707 66.2392
6.10629 18.2321 67.3875
6.10488 17.7969 66.1202
6.00828 17.8481 66.4818
6.1262 18.0397 66.9283
6.00789 18.3344 67.6057
6.05542 17.7926 67.0447
6.19837 18.286 68.7109
6.18763 17.9688 65.8423
5.97803 18.2646 66.8914
6.0472 17.8812 66.2116
6.01974 17.7932 65.3651
5.96486 17.4566 65.2736
5.98615 17.7349 66.4441
5.95971 17.295 64.7573
5.88744 17.8391 66.2648
5.98777 18.024 66.2599
5.94355 18.0177 66.3502
5.93345 17.6564 66.3471
5.98606 17.628 64.2931
5.77755 17.0455 63.7699
5.70366 17.4269 65.7737
5.95225 17.4063 65.7872
5.87477 17.7066 66.3512
5.90685 17.9233 66.5774
5.89858 18.0455 68.0959
5.97313 17.8732 67.5074
5.86853 17.7816 66.6157
5.94715 18.0679 67.175
5.91017 17.4764 64.3832
5.76798 17.5295 67.4188
5.95855 17.7057 66.9906
5.91481 17.3406 65.2688
5.80049 17.4638 66.2139
5.90297 17.7097 65.1237
5.81996 17.1069 66.5379
6.01247 17.6861 66.7085
5.94499 18.0449 66.8794
5.90088 17.4467 65.5656
5.84121 17.3313 66.8926
5.8407 17.4792 65.6898
5.90866 17.3485 65.2776
5.80803 17.4736 66.9845
5.86563 17.4386 63.8734
5.6038 17.3874 68.5167
5.9073 17.3711 65.6512
5.83796 17.5172 66.5328
5.83504 17.61 66.0778
5.81821 17.5261 66.0663
5.75877 17.7695 67.8106
5.87437 17.4249 64.134
5.61872 17.1084 66.9967
5.78464 17.6855 67.0813
5.77328 17.4146 64.5676
5.6035 17.2943 67.7649
5.88042 17.3822 66.2278
5.77187 17.4245 66.6317
5.70987 17.56 65.136
5.61624 16.8789 65.0019
5.62466 16.9581 65.339
5.73129 17.4938 66.4196
5.61389 17.2217 63.6495
5.52778 19.3789 94.0044
7.70617 21.5392 67.3234
5.77787 17.9627 66.7814
5.71775 17.2482 63.9976
5.57295 17.0884 65.7482
5.59913 17.0896 66.6639
5.80159 17.2926 65.6312
5.66468 17.3135 66.7383
5.68263 17.3013 65.0836
5.52618 17.1388 66.5149
5.59508 16.6334 63.5266
5.50734 17.0397 65.8467
5.60071 17.7272 67.9325
5.75962 16.934 64.7599
5.57449 17.4409 68.0768
5.76217 16.937 65.1714
5.59233 17.5451 66.3415
5.5782 17.274 66.8499
5.61752 17.1686 66.5179
5.67527 17.0074 66.6531
5.65644 17.5174 66.5078
5.7535 16.9496 65.395
5.56336 16.6429 63.7419
5.53903 16.9506 66.4731
5.56409 16.9864 65.0559
5.51849 16.952 64.9216
5.52216 16.9205 66.1191
5.61023 17.2336 66.2514
5.61448 17.2499 68.546
5.80679 17.0927 66.0626
5.57927 17.1119 65.5617
5.55057 16.5868 64.1327
5.42011 16.7199 65.0846
5.5005 16.8852 65.4082
5.64755 16.9993 64.8983
5.46574 16.8517 66.9596
5.57916 16.8404 64.3093
5.51885 17.1648 67.1585
5.58262 17.1608 67.5228
5.73553 17.1892 64.9615
5.46298 17.1976 67.2788
5.64767 17.1335 66.7785
5.60588 17.0365 66.7305
5.59695 17.4535 66.9019
5.55611 17.2228 66.0242
5.4146 16.8611 66.9997
5.58666 16.6327 65.1897
5.55207 17.1604 65.724
5.48349 17.3713 66.3287
5.48835 16.5736 66.3706
5.481 16.9732 65.8486
5.50187 16.7001 65.898
5.5002 17.3321 65.8646
5.48763 16.4131 66.0655
5.62224 17.3899 65.5635
5.45339 16.7799 65.3123
5.38858 16.9919 66.858
5.44731 16.8518 64.7286
5.44584 16.7293 66.1288
5.44182 16.5944 65.4747
5.47817 16.9455 66.8034
5.60316 17.3781 68.0958
5.64804 16.9891 67.3072
5.59533 17.3596 65.99
5.40971 17.2478 67.7497
5.52512 16.8429 66.2077
5.36563 16.9096 67.0734
5.52999 16.9726 67.5299
5.65282 17.119 64.3042
5.29106 16.3447 64.422
5.37343 16.5363 64.5087
5.42525 16.5264 66.4849
5.50193 16.9378 65.2294
5.39292 16.7794 64.7401
5.34724 16.6721 66.9136
5.54635 16.9256 66.2366
5.48085 16.4791 64.0255
5.26509 16.8866 67.0656
5.43036 16.388 65.1908
5.35055 16.6458 64.8275
5.37486 16.916 67.2104
5.51854 16.6884 65.3441
5.40792 16.9496 64.9705
5.35409 16.613 67.8127
5.51316 16.928 65.5582
5.37249 16.6995 67.9701
5.56674 17.2638 66.1291
5.49975 16.5034 64.9069
5.31251 16.8356 65.0113
5.29708 16.4327 66.6849
5.40804 16.8094 65.0242
5.30626 16.5373 66.0626
5.32368 16.5434 64.809
5.26062 16.4465 65.7546
5.32305 17.1224 67.8076
5.59657 17.0746 64.9776
5.31348 19.44 98.5047
7.40284 20.9262 67.9364
5.46215 17.5922 66.9631
5.39993 17.348 67.1634
5.38823 17.3084 67.4366
5.37245 16.4974 65.4674
5.32975 16.946 65.9399
5.36587 16.4213 65.5286
5.32803 16.6865 66.7113
5.40222 16.9284 65.4256
5.30425 16.6047 65.8287
5.35949 16.5548 67.2052
5.37596 17.2471 67.5289
5.36833 16.681 66.0508
5.331 16.436 66.0204
5.44829 16.593 64.3837
5.22423 16.411 66.8147
5.32103 16.7122 64.7297
5.16268 16.2868 66.1401
5.30209 16.4107 63.1828
5.07501 16.2497 64.8066
5.15742 16.1223 65.8885
5.25825 16.5086 66.4368
5.3512 17.3077 66.9834
5.39788 16.3694 66.2924
5.31546 16.9902 66.1393
5.32086 16.6174 66.3466
5.37823 16.7401 65.5147
5.30433 17.0458 67.9885
5.47251 16.751 66.8931
5.37066 16.8417 67.8282
5.4617 16.8628 67.0408
5.36165 16.7079 66.3327
5.32079 16.7288 65.434
5.18871 16.603 65.8887
5.28231 16.745 65.1503
5.19779 16.3585 65.0874
5.24278 16.5171 65.4419
5.25202 16.4226 66.1738
5.31926 16.6982 65.9899
5.25411 16.2969 65.2668
5.23928 16.4405 67.7289
5.45999 16.9671 66.127
5.32979 16.1761 66.8902
5.30921 16.8683 66.7113
5.37585 16.6712 65.0758
5.29387 16.3499 64.2067
5.21201 16.2503 65.3142
5.26238 16.9467 67.9644
5.40943 16.8716 67.4275
5.37997 16.7172 66.4276
5.28692 16.6255 65.2214
5.22289 17.1771 69.1182
5.43929 17.3542 67.3409
5.29256 16.5034 65.8593
5.22009 16.5705 66.5133
5.28824 16.8329 66.459
5.23975 16.726 67.4098
5.24781 16.3094 66.0853
5.28839 17.1193 67.3683
5.38029 16.9244 66.5916
5.27307 16.3049 66.3508
5.23778 16.3943 66.1796
5.31516 16.8033 67.2
5.37821 16.663 64.2973
5.15738 16.8755 66.1295
5.31328 16.2949 66.4326
5.26425 16.7142 68.4037
5.37385 17.0354 66.9397
5.29889 16.8708 66.0648
5.37087 16.2151 66.0642
5.30798 16.7838 67.6417
5.34643 16.9281 68.7005
5.4101 17.1174 66.7002
5.30984 16.2713 66.8225
5.32239 16.7734 67.4164
5.36428 16.7153 66.1908
5.26889 16.9027 66.0845
5.16537 16.5227 65.3188
5.30133 16.5588 68.6185
5.43762 17.0173 67.1265
5.26805 16.819 66.356
5.27381 16.6832 65.6422
5.11057 16.8259 65.917
5.21764 16.5324 66.7341
5.33781 16.7533 68.9229
5.47127 16.847 67.0511
5.41074 17.0085 68.1836
5.30643 16.7458 66.603
5.26953 16.9842 67.0704
5.31528 16.6683 68.4414
5.41926 17.1469 67.2433
5.33065 16.6798 66.6424
5.24368 16.6891 66.5807
5.29882 17.3897 71.4133
5.56455 18.1645 70.0329
5.53543 19.5245 90.3669
6.82914 0 0