# pn-170911/RbIIR-av-AMC2-1280-1959.psd
# Power spectrum* (dif=0,1,2) (really just |FT|^2)
# NOTE: only the first half! (symmetric)
# weeks: 1280-1959
# 8265 clock-days, 1796 excluded
# PSD: 1441
840.143 0.0914235 0.0457504
30056.1 0.64446 0.0883571
141690 2.948 0.0889039
18998.3 0.661581 0.0892883
44064 3.27168 0.089992
6206.1 0.560653 0.0898059
5573.63 0.761638 0.0866904
3260.55 0.557433 0.0891347
3614.47 0.908836 0.0874911
2029.59 0.571716 0.0879691
2048.02 0.767174 0.0857022
1399.62 0.599891 0.0865161
1476.31 0.80528 0.0886357
1068.19 0.651864 0.0902475
1163.34 0.879006 0.0914269
857.993 0.71288 0.0863352
974.147 0.992878 0.0873476
727.479 0.803606 0.0883866
850.464 1.12768 0.088558
646.46 0.907328 0.0862602
735.874 1.22199 0.0928102
590.897 1.0327 0.0905963
705.179 1.42668 0.0932443
542.549 1.15365 0.0912369
650.593 1.56927 0.0946648
508.594 1.31211 0.0929743
602.305 1.7501 0.0948575
477.353 1.4601 0.0940221
570.737 1.90917 0.0963212
478.901 1.71982 0.0970277
548.225 2.14899 0.0992225
459.934 1.87177 0.097184
516.543 2.31223 0.101735
442.064 2.0928 0.100844
501.156 2.54641 0.101575
430.444 2.31049 0.102773
500.585 2.85596 0.107001
423.89 2.52032 0.105214
458.492 2.93247 0.107658
412.993 2.78269 0.109621
452.536 3.22605 0.113744
407.96 3.0429 0.111116
460.106 3.6524 0.11881
406.41 3.35417 0.119968
417.157 3.62262 0.119391
389.961 3.55745 0.123999
419.54 3.98589 0.129429
385.406 3.83172 0.12825
432.673 4.49949 0.138053
376.99 4.09345 0.134356
389.14 4.4076 0.138574
372.458 4.39708 0.144632
402.305 4.95348 0.152169
371.484 4.74638 0.153118
381.977 5.11464 0.161031
350.275 4.80824 0.160286
377.399 5.41299 0.171316
351.244 5.23819 0.166499
375.92 5.78741 0.181672
344.42 5.48062 0.179263
358.865 5.93189 0.187146
336.078 5.73065 0.187136
352.953 6.23805 0.201028
330.421 6.02532 0.203091
335.541 6.3107 0.207514
329.815 6.40491 0.216318
340.672 6.83172 0.227702
317.504 6.56197 0.22611
314.076 6.68901 0.23335
313.528 6.81829 0.241382
316.988 7.16217 0.256487
295.003 6.8723 0.246192
323.414 7.74945 0.274214
294.891 7.244 0.266823
299.726 7.60052 0.286439
280.795 7.28111 0.279556
296.708 7.86384 0.298252
276.414 7.57714 0.299946
296.075 8.30413 0.321636
275.119 7.90238 0.316361
276.987 8.25113 0.336524
258.952 7.86236 0.327899
262.728 8.17174 0.345857
262.584 8.31776 0.350166
272.36 8.84497 0.371828
251.138 8.35451 0.368922
252.664 8.63734 0.387751
245.332 8.58317 0.388395
248.069 8.90415 0.403635
244.243 8.96605 0.423209
243.775 9.09359 0.428784
246.796 9.39379 0.446937
242.344 9.53384 0.465108
228.722 9.10299 0.451061
229.765 9.30279 0.47248
219.875 9.15283 0.474613
295.382 12.7488 0.625762
221.249 9.61436 0.504815
220.558 9.82676 0.530742
216.75 9.81096 0.535114
223.897 10.3288 0.567471
212.541 10.0573 0.56855
230.193 11.1228 0.623761
207.268 10.1964 0.588209
200.751 10.0363 0.586157
200.334 10.208 0.612758
206.533 10.7762 0.641657
195.706 10.4234 0.639288
200.644 10.8219 0.671855
188.588 10.4124 0.662489
199.12 11.1247 0.713523
185.886 10.5864 0.691165
181.716 10.6262 0.70519
186.615 10.9999 0.72889
201.585 12.1556 0.816738
184.517 11.2863 0.767995
175.957 11.012 0.778082
173.275 10.9611 0.772119
177.08 11.4109 0.820542
175.226 11.4914 0.843394
188.861 12.5616 0.923389
178.934 12.0811 0.907425
163.6 11.3374 0.866803
168.175 11.8235 0.915455
167.43 11.8975 0.937267
167.46 12.2236 0.971565
179.943 13.2655 1.05472
164.939 12.2243 0.988491
161.728 12.3544 1.02322
158.275 12.1616 1.02019
160.707 12.5731 1.0789
163.167 13.0254 1.11943
170.589 13.7142 1.18192
153.178 12.4791 1.10221
152.674 12.6917 1.13988
150.511 12.7163 1.15408
148.625 12.681 1.16756
151.056 13.1601 1.22862
148.81 13.052 1.23451
144.25 12.9513 1.2416
147.355 13.4392 1.30539
141.482 12.9259 1.27111
139.951 13.0059 1.28505
142.432 13.4983 1.35718
150.762 14.6587 1.49923
142.476 13.6573 1.39929
134.269 13.1903 1.37801
141.253 14.1223 1.49985
134.615 13.7829 1.48485
133.231 13.6555 1.4842
146.495 15.2213 1.6642
135.653 14.2863 1.58593
132.849 14.1145 1.57652
124.08 13.4304 1.53756
129.488 14.1838 1.63982
128.686 14.4224 1.70144
138.064 15.5222 1.81812
127.338 14.4714 1.71619
125.405 14.4651 1.74019
119.523 13.9754 1.72038
122.504 14.5043 1.79199
131.67 15.8377 1.98685
121.96 14.7041 1.84677
120.261 14.8097 1.89534
119.692 14.917 1.93497
120.186 15.1089 1.97793
116.805 14.8906 1.96848
120.24 15.5464 2.09084
123.254 16.2008 2.19308
118.885 15.5616 2.12384
114.088 15.1693 2.09716
114.861 15.5184 2.16489
113.755 15.6341 2.2176
112.351 15.5652 2.24071
117.344 16.351 2.34522
113.132 16.0557 2.34691
111.717 15.8969 2.34421
106.883 15.4664 2.3261
108.152 15.8956 2.40753
104.007 15.4433 2.36968
113.775 17.06 2.61098
106.019 15.9957 2.47359
105.585 16.2314 2.56421
104.852 16.1845 2.57672
103.304 16.1511 2.61263
107.893 17.1515 2.79973
108.393 17.2417 2.82671
101.732 16.4211 2.70726
103.19 16.8513 2.8305
103.101 17.0386 2.88353
102.134 17.0032 2.91931
99.8345 16.9545 2.95661
136.708 23.3079 3.96676
100.517 17.127 3.01601
94.4772 16.4419 2.93043
97.7101 17.1915 3.09001
96.1954 17.0103 3.07631
95.6214 17.0192 3.0938
100.469 18.2871 3.40072
94.7793 17.2936 3.24581
92.7026 17.0611 3.21934
96.5806 18.0392 3.43965
93.8716 17.6607 3.38865
92.5378 17.7493 3.48607
101.544 19.3561 3.7582
92.2975 17.824 3.51402
92.6316 18.0879 3.59825
87.8982 17.2744 3.4855
90.6956 17.9778 3.64096
90.391 18.3411 3.78062
92.2351 18.6914 3.85086
86.9474 17.8796 3.76282
86.669 17.9702 3.78827
88.4091 18.5986 3.97954
85.6964 17.9602 3.88806
88.4178 18.9776 4.11818
89.8688 19.2523 4.19967
88.9903 19.2057 4.19775
84.1033 18.4117 4.11956
85.4699 18.8673 4.23419
84.7498 18.9936 4.32969
83.727 18.7851 4.2754
88.7078 20.2214 4.67035
85.7599 19.4461 4.48698
79.734 18.4916 4.38122
81.991 18.8298 4.41572
82.4455 19.218 4.56331
81.0984 19.3168 4.67363
84.7366 20.3251 4.94654
81.8328 19.4603 4.71325
80.0778 19.4439 4.76594
77.5715 19.0903 4.77433
77.5959 19.1539 4.79865
80.2898 20.2134 5.15268
82.0504 20.4979 5.20958
76.3248 19.425 5.0198
78.1248 19.9913 5.17807
75.7502 19.4938 5.10314
75.8953 19.6207 5.18982
76.7407 20.3373 5.45112
79.9554 20.9388 5.58381
75.985 20.178 5.45245
76.2107 20.3974 5.55782
73.6073 20.1059 5.56688
74.5269 20.2222 5.57583
72.6456 19.9558 5.57243
76.6367 21.1873 5.91835
72.6506 20.4442 5.85409
74.3445 20.9005 5.97212
72.6515 20.5577 5.89821
72.0546 20.6612 5.98247
69.2851 20.1453 5.95111
73.6721 21.416 6.31909
71.605 21.0374 6.27028
70.4475 20.5496 6.11559
70.2484 20.9272 6.33467
68.7237 20.5607 6.21555
71.3186 21.8277 6.75126
71.5354 21.5751 6.62292
69.1128 21.0733 6.51887
67.9344 21.019 6.56073
67.9995 21.038 6.61394
67.4556 21.1128 6.72484
68.1061 21.6336 6.9675
70.8178 22.4289 7.19511
66.2987 21.1165 6.82408
66.2149 21.4766 7.03278
65.6091 21.4019 7.04313
63.2533 20.8302 6.96689
66.476 21.8894 7.29309
66.4896 22.2788 7.54665
65.3991 21.7362 7.30958
62.8887 21.3166 7.32918
62.9298 21.4034 7.36667
62.9549 21.5213 7.45274
61.1325 21.1604 7.45558
64.6352 22.3378 7.80225
62.2132 21.6129 7.66487
63.3521 22.198 7.88034
62.2061 21.9252 7.83109
61.4625 22.1247 8.03222
62.2556 22.3751 8.16683
62.1476 22.5162 8.27597
59.8606 21.8282 8.0839
61.8644 22.7358 8.42885
58.4471 21.4419 8.05485
59.0344 21.9077 8.36057
59.3984 22.5303 8.84134
88.7693 33.0484 12.1816
59.0985 22.3783 8.61827
57.5702 21.9414 8.53623
57.9728 22.4053 8.81837
58.7124 22.466 8.79284
59.7068 23.3127 9.19717
58.5001 22.8853 9.08704
57.2282 22.5748 8.99288
55.9623 22.2756 8.989
58.0469 23.056 9.24978
55.7217 22.4682 9.18846
56.1683 22.838 9.4197
57.3233 23.2882 9.57621
55.7928 22.8496 9.50568
55.2635 22.7753 9.53344
54.7038 22.7263 9.56545
55.2615 23.1419 9.76708
54.1747 22.8399 9.80682
54.9257 23.1792 9.92532
53.3022 22.6023 9.74432
53.9201 23.1714 10.0709
52.2246 22.481 9.83424
51.8294 22.5881 10.0262
52.0602 22.6451 10.0311
53.9344 23.6301 10.4796
52.8331 23.3216 10.4929
51.5924 22.9417 10.3203
51.7957 23.1798 10.5252
51.0627 22.9003 10.4235
51.7323 23.3533 10.6755
51.6908 23.7297 11.0395
51.4185 23.4666 10.8645
50.0092 23.1008 10.8016
49.6019 23.0885 10.8911
50.4068 23.5303 11.1282
49.548 23.1212 11.0106
50.2393 23.7367 11.3317
48.1646 22.9857 11.1108
48.3222 23.0205 11.1931
49.2796 23.5991 11.3696
48.5111 23.5833 11.6289
48.022 23.3317 11.5064
48.8883 23.9825 11.8744
49.0668 24.2068 12.0384
48.1158 24.0049 12.1186
47.8371 23.6951 11.9023
47.4038 23.7694 12.1026
47.7443 23.9814 12.2214
48.2159 24.3951 12.4432
46.528 23.8158 12.3822
46.4475 23.7714 12.3125
45.8951 23.6132 12.3482
46.1101 23.9043 12.6115
45.607 23.8523 12.6273
46.5841 24.4039 12.917
45.5969 23.8993 12.7426
45.3582 23.8511 12.7458
44.6551 23.8493 12.9262
43.8406 23.4059 12.724
44.3427 23.8155 12.9426
44.1097 23.973 13.1371
44.3352 24.1251 13.3154
43.9062 24.0613 13.395
44.2072 24.3547 13.644
44.5702 24.6496 13.8273
43.6733 24.1722 13.6232
43.3283 24.1032 13.5997
43.053 24.1819 13.7567
43.334 24.5036 14.0348
42.7942 24.3253 14.026
42.7142 24.5811 14.2678
41.5865 23.8138 13.9176
42.0609 24.1253 14.013
40.5291 23.4822 13.8385
41.5046 24.3582 14.4809
41.2256 24.1805 14.4055
41.6645 24.6354 14.8251
40.9805 24.3114 14.6364
41.746 24.6915 14.8509
40.1442 23.8999 14.4676
41.0199 24.7805 15.1197
40.7501 24.7077 15.1618
40.1973 24.4526 15.1007
39.8606 24.2491 15.0009
40.5504 24.9209 15.4845
39.2879 24.3348 15.2749
39.8567 24.9612 15.8071
39.5983 24.6376 15.5748
40.5473 25.4349 16.136
39.0943 24.5667 15.6496
37.8111 24.1466 15.6621
39.1478 24.8962 16.0529
37.9503 24.2267 15.7508
38.1173 24.3138 15.7878
37.659 24.4519 16.1257
38.0831 25.0301 17.145
53.6833 34.6003 21.7155
38.2776 25.2348 16.8874
37.5352 24.7457 16.5805
37.6823 24.9737 16.7906
37.4434 24.8101 16.7759
37.3745 24.8183 16.7432
37.25 25.0807 17.1325
36.984 24.9266 17.0823
36.3177 24.4939 16.7431
36.523 25.0246 17.3508
36.2397 24.6821 17.0457
35.9664 24.8999 17.4288
36.4644 25.2281 17.6811
36.0317 25.1156 17.7448
35.4199 24.6226 17.4997
35.651 24.988 17.7947
35.9628 25.1295 17.8339
35.0454 24.7266 17.7186
34.6972 24.8737 18.0504
35.2325 25.0473 18.0496
34.6394 24.763 18.0202
34.0682 24.7421 18.2649
34.8278 25.1277 18.4279
33.8715 24.4035 17.9873
34.339 24.982 18.4951
34.9923 25.4882 18.8564
33.096 24.4925 18.4364
34.0413 25.12 18.8284
33.4071 24.8095 18.6587
33.7037 25.2323 19.1286
32.5865 24.5142 18.7864
33.2813 25.0827 19.162
32.6203 24.7082 19.0457
33.7848 25.6283 19.7522
32.9076 25.0296 19.3351
31.801 24.41 19.165
32.9093 25.2543 19.7393
32.474 25.0552 19.6792
32.8732 25.5421 20.1981
33.0997 25.6257 20.0992
32.5855 25.5509 20.2632
31.823 25.0947 20.1374
32.6262 25.6882 20.4676
31.5471 25.0702 20.1748
31.3999 25.0306 20.2739
31.316 25.2033 20.5322
30.7165 24.7251 20.2729
30.659 24.8246 20.4632
31.3279 25.4142 20.9178
31.0117 25.0104 20.6061
30.7431 25.1808 20.9306
30.3256 24.9054 20.8444
30.3067 24.9099 20.7466
30.1147 24.9802 21.0288
30.1715 25.2479 21.3655
29.4956 24.5548 20.8174
28.981 24.2731 20.7553
30.1701 25.2875 21.5607
29.8229 25.279 21.7053
28.9322 24.4542 21.0572
29.7293 25.4668 21.9636
28.4028 24.5528 21.6018
28.5873 24.4633 21.3563
29.0779 25.1026 21.9998
28.8541 24.972 21.9913
28.1951 24.6924 22.1331
28.8405 25.0732 22.1736
27.9507 24.4007 21.6925
28.4122 25.1014 22.4639
28.4504 25.1654 22.7447
27.6206 24.3514 21.9792
27.9239 24.9567 22.7935
29.4345 26.1603 23.5899
28.4981 25.6359 23.2935
27.7952 25.313 23.3603
26.8655 24.3299 22.5379
27.5502 24.832 22.8479
27.4754 25.0788 23.2577
27.5978 25.1892 23.3422
26.9972 24.8447 23.2901
27.7772 25.496 23.6888
26.3834 24.5551 23.2847
26.6644 24.8386 23.5561
26.6895 25.0173 23.924
26.9425 25.2887 24.1634
26.3536 24.7174 23.6364
26.1513 24.6932 23.7753
26.346 24.8896 23.9434
26.2636 25.02 24.2042
26.2705 25.4252 24.9623
25.8915 24.5349 23.9415
25.3602 24.2969 23.7813
25.5437 24.6736 24.2392
25.8228 25.1495 24.8113
25.3543 24.7644 24.9231
25.8843 25.7119 27.1028
36.3493 34.7884 32.2214
25.7562 25.7315 26.1673
25.4176 25.002 25.108
24.9057 24.7576 25.1263
24.9643 24.9371 25.4533
25.5181 25.157 25.3788
25.1054 25.2207 25.6873
24.5071 24.7218 25.4548
24.5084 24.7206 25.4786
24.7007 24.9441 25.5066
23.9998 24.7416 25.7995
24.1172 24.7657 25.9662
24.0822 24.8235 26.0988
24.1682 24.636 25.6607
24.1349 25.0873 26.474
24.0246 24.7873 26.1999
24.0155 25.04 26.6396
24.2388 25.2775 26.8466
23.7716 24.7677 26.3554
23.6998 25.1488 26.9851
23.7652 25.1412 27.0132
23.3736 24.7557 26.6313
23.1893 24.7069 26.8339
22.9126 24.4794 26.6524
23.1846 24.7875 27.0544
23.2592 25.1051 27.5705
23.1962 24.9444 27.3409
22.9542 24.8052 27.1558
22.7782 24.8995 27.7203
22.7423 24.7371 27.4288
22.4524 24.6837 27.5028
22.7008 25.0514 28.1412
22.4556 24.5519 27.4662
22.2704 24.6257 27.7295
22.1297 24.5147 27.6165
21.826 24.3075 27.4713
22.1339 24.9178 28.6236
21.9679 24.5297 28.2024
22.199 24.6969 28.1005
21.6879 24.3092 27.8167
21.7491 24.6476 28.425
21.6404 24.6406 28.5368
21.6326 24.8 28.9624
21.8083 24.8961 28.8265
21.4538 24.6511 28.8077
21.2026 24.5022 28.906
21.5448 24.9756 29.34
20.8934 24.1475 28.5998
21.2105 24.6377 29.0711
20.7332 24.0588 28.4883
20.8744 24.3456 29.0358
20.6293 24.2035 28.8627
20.6603 24.5608 29.5708
20.7326 24.4133 29.3487
20.6135 24.5912 29.8758
20.8351 24.7689 29.9684
20.3359 24.2407 29.6048
20.3584 24.1973 29.3642
20.2366 24.6522 30.349
19.6419 23.8051 29.8162
20.0879 24.1225 29.7811
20.6889 25.0477 30.8603
19.6534 23.7136 29.5232
19.4341 23.6089 29.2839
19.8174 24.2084 30.0895
19.6186 24.3682 30.5718
19.502 24.1342 30.4587
19.3986 23.8205 30.1264
19.5499 24.1192 30.3153
19.1933 23.7049 30.1267
19.3949 24.1627 30.4343
18.8574 23.7951 30.7114
18.852 23.7634 30.6526
19.0562 23.8678 30.623
18.8814 23.9147 30.7258
18.6061 23.5986 30.7752
18.8175 24.0136 31.4036
18.7955 23.7909 30.8084
18.8794 24.3112 31.6667
18.7258 24.2659 32.0255
18.6129 23.5958 30.92
18.7583 24.2385 32.0471
18.658 24.1103 31.6759
18.2296 23.7935 31.6403
18.2444 23.8946 31.9622
18.0545 23.3702 31.2315
17.9986 23.7205 31.9396
18.1237 23.7565 31.8891
17.8466 23.3379 31.2039
17.8576 23.8142 32.5586
18.2639 24.3316 32.9343
18.1344 24.21 32.925
17.8853 23.7495 32.438
17.5989 23.4832 32.3387
17.6335 23.9564 33.3209
17.6318 24.6272 37.2323
25.4743 32.9351 40.7041
17.7909 24.3737 33.8557
17.377 23.6504 33.057
17.2449 23.5547 32.941
17.3343 23.8397 33.6965
17.3139 23.49 32.9469
17.5785 24.1023 33.4318
16.492 22.8185 32.3189
16.8959 23.5237 33.5044
17.0182 23.3825 33.0971
16.9616 23.7098 33.7588
16.7739 23.3117 33.2055
16.7794 23.3071 33.1819
16.8465 23.7778 34.1078
16.4977 23.329 33.879
16.4629 23.0349 33.1444
16.3807 23.1229 33.3011
16.0738 22.9659 33.8016
16.2503 22.8881 33.2081
16.1419 23.1866 34.0207
16.3241 23.4251 34.3449
16.1734 23.1505 34.0129
16.0475 23.0016 33.8997
15.789 22.878 33.983
16.0637 23.1575 34.1282
16.1159 23.6138 35.1822
15.8858 23.0079 34.5369
15.8079 22.9709 34.3987
16.2182 23.4935 34.8446
15.7551 23.1848 34.9914
15.7153 23.1269 34.8595
15.7548 23.1061 34.6193
15.4661 22.9835 34.6817
15.2338 22.705 34.6102
15.1734 22.6278 34.7902
15.5872 23.2657 35.547
15.4267 22.9853 35.1966
15.5105 23.269 35.4728
15.149 22.6948 34.9982
15.3912 23.3436 35.8875
15.0259 22.7808 35.4945
15.0866 22.8162 35.7351
15.0974 22.8281 35.211
14.5443 22.3165 35.0257
14.7654 22.422 35.0662
14.6356 22.2917 34.9804
14.7291 22.6075 35.6491
14.794 22.7895 36.031
15.2272 23.4898 36.6169
14.5626 22.7823 36.2226
14.2222 22.0119 35.45
14.6279 22.7495 36.1738
14.5382 22.581 35.6261
14.2784 22.5068 36.3105
14.5373 23.059 37.488
14.6532 22.7926 36.3431
14.134 22.4699 36.49
14.1819 22.1687 35.9195
13.9934 22.1685 36.0106
13.9472 22.2918 36.4534
14.4458 23.231 38.0101
14.197 22.4549 36.6058
14.088 22.4716 36.9293
13.844 22.2049 36.5573
13.8236 22.3464 36.842
13.6673 22.0497 36.5479
13.9936 22.8414 37.7209
13.2532 21.5063 36.0798
13.6071 22.0325 36.3742
13.0541 21.2994 35.9134
13.3626 22.0528 37.1846
13.5481 22.4074 38.0665
13.5469 22.0532 37.0061
13.3921 22.0606 37.2729
13.2304 21.7127 36.9793
13.2709 21.9336 37.4073
13.1748 21.817 37.4469
13.4598 22.0702 36.9582
13.0058 21.8533 37.5967
13.2516 22.1956 37.9684
13.0966 22.0364 37.9742
13.0262 21.7141 37.5316
13.2641 22.5447 39.0093
12.8654 21.7107 37.9615
13.0478 21.8376 37.8425
13.0165 21.9903 38.2337
12.9448 21.944 38.1369
12.9005 21.8835 38.0397
12.6203 21.7562 38.4458
12.684 21.5922 37.7255
12.4981 21.8155 38.7885
12.4104 21.3202 37.9548
12.4973 21.6178 38.3625
12.399 21.3475 37.9118
12.305 21.6403 39.4179
12.3276 22.0972 45.1672
18.4529 30.5667 47.4283
12.3554 21.6818 38.4176
12.0066 21.314 38.4845
12.056 21.2885 38.5523
12.0762 21.3346 38.6614
12.0756 21.3468 38.8575
12.2114 21.5075 38.8156
12.1102 21.6013 39.6098
12.1163 21.3339 38.9201
12.0136 21.1819 38.5008
12.0186 21.545 39.3867
11.923 21.3547 39.264
12.0095 21.6393 39.9785
11.8635 21.1831 39.5029
12.1125 21.633 39.3611
11.6023 20.9331 39.1217
11.7574 21.0688 38.6877
11.435 20.992 39.8056
11.9196 21.3191 39.3488
11.5126 20.6689 38.3279
11.3553 20.791 38.6886
11.3098 21.0863 39.9287
11.4056 20.9752 39.6478
11.5255 21.2186 40.3511
11.58 21.0945 39.6584
11.2163 20.7037 39.2764
11.2257 20.914 40.0436
11.3679 20.9482 40.0602
11.2372 20.5945 39.3042
11.4544 21.3139 40.4541
11.3826 21.3891 40.778
11.0412 20.4266 38.9082
10.9997 20.8164 40.481
11.1839 21.1337 40.5673
10.8206 20.3635 39.6504
11.0087 20.9118 40.6093
11.0262 20.7891 40.246
10.8365 20.4109 39.7463
10.8139 20.5251 40.0748
10.9973 21.6315 43.7386
11.3153 20.866 40.1033
10.6229 20.2417 40.0144
10.7621 20.5807 40.4743
10.7609 20.4097 39.947
10.5153 20.2992 40.3136
10.5841 20.3467 40.1667
10.4292 20.2797 40.615
10.696 20.8884 42.4345
10.9762 20.7211 40.4524
10.2974 19.9541 39.8404
10.4891 20.5012 40.8831
10.2534 20.0314 40.3569
10.374 20.3817 40.9231
10.389 20.4038 41.2008
10.3603 20.4176 41.028
10.0318 19.6672 40.1882
10.1741 20.0876 41.0787
10.1946 20.0102 40.412
10.0219 20.1314 41.4033
10.0243 19.5064 39.5955
9.85806 19.8775 40.9857
9.92859 19.8258 41.1762
10.0122 19.7154 40.6244
9.9692 19.7424 40.6074
9.75712 19.5268 40.5589
9.94467 20.0766 41.4468
9.72932 19.5287 40.9133
9.75255 19.4929 40.5064
9.85754 19.6442 40.5504
9.58185 19.4367 40.8549
9.67517 19.4076 40.5121
9.6548 19.8468 41.9037
9.79544 19.6336 40.8748
9.53443 19.4222 40.7654
9.52565 19.3629 40.4387
9.40488 19.4077 40.969
9.17978 18.8607 40.7187
9.39653 19.4527 41.6959
9.49684 19.3415 40.7614
9.41916 19.602 41.8288
9.2796 19.0106 40.5647
9.24421 19.1255 40.9068
9.33162 19.4742 41.6318
9.1174 18.92 40.9457
9.28478 19.2766 41.1052
9.0811 19.1939 41.3274
9.05415 19.1537 41.526
9.01223 18.7975 40.6383
8.87741 18.8963 41.4048
9.01139 18.9755 41.2689
9.14003 19.5365 42.5265
9.03895 19.0672 41.0621
8.73577 18.8737 42.5037
9.10083 19.1976 41.9654
8.7571 18.8893 42.5367
8.79938 19.7077 51.4735
13.3537 26.5489 48.8953
8.72179 19.1896 42.8912
8.81648 18.657 40.9396
8.53934 18.4965 41.3058
8.86122 19.0689 42.18
8.76868 19.0426 42.2495
8.70017 18.6818 41.5296
8.55063 18.62 42.0096
8.65193 18.6625 41.5643
8.55403 18.7133 42.5021
8.68548 18.758 41.7109
8.45282 18.4215 41.8023
8.5338 18.5507 41.9599
8.52024 18.4262 41.6115
8.37651 18.4559 42.2835
8.4647 18.3512 41.5267
8.55717 18.7276 42.0325
8.3105 18.3952 42.3403
8.44734 18.6339 42.4345
8.3087 18.1365 41.6352
8.32713 18.4869 42.0921
8.23751 18.3433 42.1756
8.23123 18.193 41.5991
8.12356 18.1133 41.4448
8.00023 18.0846 42.1851
8.04991 17.8162 41.2889
8.08592 18.1547 42.3458
8.09586 18.0542 42.0311
8.19123 18.458 42.9401
8.2056 18.253 42.5146
8.05827 18.1623 42.0722
7.94765 18.0268 42.4391
8.03659 18.1001 42.3986
7.95537 18.0214 42.106
7.89138 18.0495 42.5742
7.88078 17.6917 41.9108
7.89099 17.9685 42.0423
7.77401 17.7805 42.1105
7.81414 17.8761 42.5437
7.77946 17.5827 42.4367
8.00535 18.1319 42.6514
7.79454 17.8039 42.1484
7.69888 17.645 42.091
7.62211 17.4575 41.89
7.71052 17.9994 42.9021
7.5699 17.4514 42.4181
7.74108 17.8461 42.5648
7.58811 17.6184 42.0124
7.5025 17.7223 43.2116
7.60887 17.5555 42.4674
7.61442 17.7747 42.477
7.37074 17.4588 43.4822
7.60963 17.5712 42.4203
7.52216 17.6167 42.8337
7.42348 17.3952 42.5162
7.49321 17.7895 43.3576
7.46 17.5238 42.4958
7.44391 17.7259 43.1644
7.27362 17.0427 41.9795
7.29543 17.3872 43.0882
7.45568 17.5472 42.7101
7.17092 17.1235 42.8013
7.30113 17.3127 42.4888
7.18751 17.1726 42.7115
7.31896 17.4942 43.5477
7.34578 17.5262 43.1144
7.13876 17.2258 43.4198
7.28342 17.3987 43.5013
7.25103 17.2528 42.5768
7.10294 17.2638 43.3891
7.19347 17.3271 43.5455
7.18863 17.5273 44.1719
7.08594 17.0521 43.0521
7.17996 17.2281 43.2548
7.07038 17.1714 43.8215
7.17823 17.2608 43.1558
6.96808 16.6711 42.2003
7.0213 17.2216 43.5213
7.07865 17.4244 43.9698
6.98239 17.1575 43.8019
6.93121 17.1694 44.0584
7.03231 17.277 44.2002
7.08732 17.3245 43.9324
6.9321 17.2319 44.3778
6.89479 17.0726 44.0393
6.9819 17.0521 43.939
6.95119 17.1938 44.1854
6.98495 17.4007 44.5439
6.8797 17.23 44.669
6.89372 16.9257 43.8358
6.86021 17.2094 44.5426
6.81241 16.9163 43.7708
6.74443 17.0433 44.8709
6.90606 17.2687 45.1508
7.00604 17.8416 46.6906
6.89783 18.6918 59.3537
10.265 23.8431 51.3291
6.85806 17.3623 45.8075
7.00032 17.9223 46.3576
6.75308 17.1074 45.1052
6.70063 16.7589 44.0812
6.66412 16.7667 43.756
6.54435 16.6537 43.7198
6.62333 17.1234 45.1731
6.60333 16.6942 44.475
6.53826 16.6863 44.0615
6.49051 16.427 43.6453
6.46039 16.4404 43.0038
6.36258 16.5323 44.0283
6.3366 16.0529 42.8415
6.26681 16.2753 44.1483
6.43158 16.4361 43.7719
6.29089 16.1452 43.3097
6.26975 16.1529 43.9067
6.37072 16.3391 43.8448
6.28676 15.9899 42.7425
6.12081 15.7343 42.5659
6.26557 16.4334 44.3096
6.2959 16.3313 44.1606
6.14372 15.7565 42.7965
6.16616 16.1041 43.3842
6.13265 16.0755 43.9954
6.12188 15.605 42.4606
6.06847 15.8145 43.2948
6.13708 15.9737 42.9511
5.98424 15.6456 42.5687
5.96169 15.7514 43.3958
5.99462 15.8847 43.5373
6.0301 15.8046 43.9071
6.08216 15.6724 42.9646
6.02688 15.8556 43.4622
5.98497 15.7376 43.0052
5.88106 15.7237 43.4625
5.97295 15.7362 43.4929
5.9858 15.7639 43.1265
5.88463 15.8028 44.0347
5.91166 15.6638 43.577
5.90635 15.814 43.9042
5.88028 15.6901 43.3367
5.82459 15.7224 44.1821
5.89791 15.6782 43.7023
5.81881 15.4794 43.5699
5.80399 15.5823 43.7434
5.79074 15.6025 43.8299
5.84494 15.7022 43.7529
5.76003 15.6112 43.8239
5.72189 15.2705 43.3833
5.77446 15.4805 43.8879
5.74366 15.3635 43.4085
5.70944 15.3713 43.3018
5.70199 15.7925 44.4827
5.67267 15.0378 42.3795
5.56505 15.3711 43.7417
5.60733 15.2026 43.235
5.59351 15.2226 42.968
5.482 15.1726 44.082
5.68809 15.5309 43.8118
5.48255 14.9321 43.2298
5.52892 15.0299 42.6875
5.48967 14.9725 43.0511
5.51327 15.227 43.4875
5.43563 14.9547 43.4414
5.5171 15.0727 43.4544
5.51623 15.111 43.1166
5.40625 14.9094 42.922
5.44786 15.3004 44.3127
5.5487 15.2741 43.7858
5.40095 14.9701 43.9483
5.50083 15.196 44.0974
5.50162 15.2735 44.6348
5.48499 15.0707 43.9018
5.49617 15.2353 43.7698
5.35446 14.9966 43.5948
5.34931 15.0005 44.0966
5.25567 14.4938 43.0783
5.39623 14.9879 43.0296
5.279 15.0169 44.1065
5.32534 14.8993 43.7717
5.29408 14.8807 43.6063
5.29126 14.9096 43.9226
5.31855 14.9802 44.1196
5.26978 14.8803 43.907
5.26249 14.825 43.5162
5.24685 14.9125 43.8203
5.19859 14.7509 43.6622
5.18222 14.6598 43.6014
5.16755 14.6888 43.3623
5.08251 14.4423 43.9134
5.18929 14.6807 43.8933
5.12753 14.8352 44.6724
5.22109 14.8618 44.4554
5.11187 15.8671 60.588
7.97812 20.8793 48.5538
5.09638 14.9385 44.2485
5.05998 14.7466 44.2881
5.04509 14.4742 43.7447
5.04321 14.3182 42.5784
4.92786 14.3925 43.361
4.99985 14.4874 43.4384
4.97168 14.2467 43.2347
4.98823 14.373 43.477
4.98021 14.4552 43.7345
4.96372 14.5345 44.1957
5.00449 14.5411 44.6989
5.00269 14.2227 43.5024
4.99338 14.4981 43.7851
4.91087 14.1226 43.4526
4.99448 14.3842 43.3996
4.91555 14.3294 43.4032
4.86366 14.3108 44.0118
4.88169 14.1631 43.2254
4.86365 14.1798 43.5649
4.8268 14.0197 43.3225
4.85892 14.0931 43.8001
4.97402 14.4297 43.8356
4.87037 14.3565 43.9485
4.78975 13.8879 42.6416
4.75616 14.1132 43.6849
4.80118 14.0306 42.9461
4.66112 13.7444 42.7203
4.69484 13.8473 42.5216
4.66262 13.7644 43.4925
4.72148 13.7256 43.0301
4.77194 14.2551 44.1903
4.80544 14.1353 43.995
4.74176 13.9073 43.3223
4.69571 13.8128 43.5496
4.76083 13.9616 43.3964
4.72256 14.0197 43.12
4.59502 13.7667 43.1216
4.67156 13.9673 44.2453
4.72789 13.9155 43.8502
4.69234 13.7418 42.9779
4.62087 13.8413 43.5994
4.60636 13.6016 42.7148
4.57608 13.6411 43.4817
4.6825 13.8953 42.8222
4.52405 13.5957 42.7816
4.50404 13.637 43.4209
4.59584 13.6707 43.2853
4.55948 13.6183 42.8786
4.49739 13.7296 43.7456
4.62119 13.9728 44.0199
4.60042 13.766 42.8188
4.41774 13.6119 44.0766
4.57967 13.655 44.0701
4.59786 13.6695 43.4724
4.49411 13.577 42.946
4.45312 13.6902 43.301
4.38505 13.6435 43.8625
4.43888 13.2862 42.9259
4.40088 13.4965 42.8658
4.39318 13.3565 43.439
4.47002 13.6647 44.0188
4.49852 13.4812 43.0909
4.44162 13.5666 42.6025
4.3214 13.3771 43.7015
4.39337 13.4067 43.5643
4.4127 13.4646 43.0841
4.38473 13.5864 42.9634
4.22251 13.1535 43.4468
4.3784 13.5085 44.1557
4.42369 13.2253 43.0366
4.36641 13.4652 43.2661
4.30779 13.3749 43.6144
4.32541 13.3884 43.3596
4.287 13.2924 43.6804
4.30865 13.2124 43.2161
4.28649 13.2441 43.2899
4.29876 13.3714 42.8969
4.19087 13.221 43.5913
4.20875 12.8493 42.7543
4.25335 13.1883 42.9589
4.19109 12.9953 43.1831
4.29743 13.3905 43.3703
4.1534 12.8641 43.1348
4.28172 13.2215 42.7682
4.18412 13.1417 43.1269
4.14751 12.7836 42.6964
4.23279 13.4614 43.6875
4.17172 13.0324 42.9907
4.13644 12.8114 43.6329
4.28346 13.5231 44.1686
4.16853 12.9709 42.983
4.13111 12.9234 42.75
4.10188 12.824 43.5804
4.20612 13.4 43.9815
4.13225 14.7926 64.5924
6.55492 18.3068 46.3517
4.09674 13.2609 43.1956
4.03056 12.696 42.4949
4.05259 13.0938 43.5265
4.07775 12.844 42.9262
4.07692 12.7357 41.8701
3.95848 12.7693 42.6632
3.96414 12.6127 43.305
4.08993 12.8108 42.8747
4.04015 13.0584 43.3737
3.99921 12.5885 42.3937
4.01632 12.9342 43.7968
4.09786 13.0108 42.8318
3.95826 12.7333 43.29
3.95836 12.4875 42.7363
3.9859 12.7027 42.6955
3.99834 13.0355 44.465
4.10896 13.1887 44.4432
4.0472 12.916 43.6199
3.9563 12.3794 42.5329
3.9772 12.795 43.5617
4.02906 12.9074 43.7788
4.01862 12.9903 43.5083
3.92499 12.6495 43.2806
3.96844 12.8561 43.8535
3.95942 12.6799 43.2758
3.98132 12.9771 44.1865
3.97893 12.8007 43.884
3.97626 12.8334 43.5249
3.96967 12.8717 43.7473
3.93846 12.7176 43.7829
3.92193 12.6859 42.9224
3.87046 12.5701 43.6401
3.94654 13.0948 44.9775
3.99125 12.6104 43.0851
3.87262 12.8314 43.7339
3.86886 12.463 43.1962
3.83117 12.6043 43.4074
3.86421 12.5982 43.4504
3.86267 12.8052 43.9965
3.85855 12.2382 42.7682
3.83055 12.6383 44.025
3.8485 12.3303 42.9165
3.867 12.6142 43.1494
3.78125 12.3391 43.206
3.84199 12.5429 42.3313
3.74756 12.7081 44.3256
3.83914 12.4093 43.1625
3.77622 12.4243 43.7671
3.83617 12.6118 44.288
3.88547 12.6101 43.0591
3.76593 12.4886 43.0298
3.71143 12.3788 43.5947
3.82111 12.4952 43.4111
3.75514 12.3568 43.4107
3.7674 12.2987 42.6974
3.68333 12.1952 42.4542
3.67481 12.2106 42.1939
3.62507 12.1937 42.478
3.60111 12.0242 43.6684
3.77031 12.2075 42.8999
3.71626 12.1709 41.7349
3.56496 11.9798 42.1614
3.61017 12.0943 42.7656
3.61825 11.8909 42.0796
3.59252 11.7268 41.5622
3.6057 12.144 43.1793
3.65005 11.9895 42.3863
3.67145 12.1247 41.8381
3.5655 12.039 42.4478
3.58218 11.9716 43.2771
3.6561 12.148 42.921
3.59202 11.8252 41.1472
3.51581 12.0017 42.1742
3.55991 11.7661 41.5933
3.50721 11.5691 41.552
3.53408 11.9321 41.9292
3.50357 11.6655 42.4118
3.57077 12.0806 42.7947
3.5893 11.8375 42.0339
3.53029 11.6072 40.8926
3.46004 11.831 42.2984
3.49907 12.0129 43.0823
3.57912 11.9203 42.664
3.5469 11.7688 41.8551
3.48028 11.6936 42.7845
3.63999 12.1597 43.2161
3.57322 11.9586 42.6657
3.55991 12.006 42.872
3.48444 11.7958 42.7815
3.54948 11.7204 41.7265
3.50307 11.9815 43.6372
3.61151 12.2815 43.0268
3.49926 12.2352 45.1498
3.6582 12.4676 45.8519
3.71718 14.4333 68.045
5.69902 16.8397 46.6234
3.69906 12.8465 44.5413
3.58274 12.3349 43.8432
3.52766 11.6686 41.8852
3.45484 11.9147 42.6232
3.46413 11.9596 42.9051
3.45404 11.727 42.4837
3.4766 11.929 42.732
3.46081 11.8155 42.4383
3.44728 11.5818 41.9861
3.38776 11.5005 41.1809
3.30834 11.597 42.8436
3.44529 11.6999 41.8503
3.35397 11.6092 42.9873
3.44709 11.5432 41.1183
3.2986 11.3444 41.6339
3.34053 11.454 42.3076
3.37216 11.4042 41.9745
3.39365 11.5817 41.9978
3.36629 11.6665 42.8733
3.37409 11.4768 42.0206
3.31578 11.3996 41.777
3.3525 11.5153 42.2702
3.37858 11.5439 41.5947
3.27608 11.5093 42.7828
3.34272 11.2866 41.3351
3.25284 11.1203 41.4325
3.32778 11.6054 42.174
3.33167 11.3579 41.7971
3.30836 11.4695 41.5777
3.31675 11.4091 42.59
3.37348 11.615 41.8385
3.28341 11.4878 42.3133
3.30181 11.252 41.308
3.26028 11.2596 41.266
3.25444 11.2786 42.0732
3.30541 11.3834 41.6973
3.23469 11.3208 42.2425
3.26689 11.2163 41.8365
3.29771 11.3615 41.944
3.25401 11.4112 42.1763
3.21772 11.1482 41.2525
3.21258 11.3849 42.2871
3.2585 11.0741 41.6304
3.25203 11.2619 41.3196
3.22483 11.1077 40.7942
3.16949 11.1277 41.3633
3.17692 11.1783 41.5021
3.20354 10.9379 40.9769
3.18884 11.2087 41.2851
3.1574 11.04 41.4194
3.20041 11.3521 42.4752
3.25041 11.0556 40.8854
3.15625 11.0853 41.539
3.16649 11.0654 41.6259
3.21064 11.2204 41.3987
3.16767 11.1148 41.3598
3.17936 11.2735 42.3479
3.19734 11.1585 41.2733
3.12358 10.9155 41.1961
3.15224 11.0863 41.5971
3.1569 11.1168 41.9566
3.15061 11.1075 41.4847
3.18101 11.1631 41.7935
3.17553 11.1915 41.7397
3.16591 11.0389 40.9363
3.10746 10.9176 40.8313
3.1036 10.8868 40.6221
3.05841 10.939 41.5137
3.1205 10.9256 41.1964
3.12379 10.7402 40.8562
3.11063 11.0338 41.9652
3.17553 10.9444 41.128
3.09852 10.9001 40.9182
3.0841 11.0398 41.4108
3.13257 10.9619 42.0361
3.14716 10.9543 40.4089
3.03796 11.0052 42.2841
3.15392 10.9963 41.027
3.04815 11.0039 41.8099
3.10345 11.0175 41.1041
3.0885 10.9291 41.2874
3.08157 10.7751 40.6722
3.03165 10.8607 41.793
3.10412 10.8259 40.6965
3.05731 11.0217 41.96
3.10373 10.9359 40.6837
3.02291 10.7166 41.3848
3.07028 10.947 41.4517
3.07901 10.9426 42.3283
3.10182 11.0045 41.4529
3.0589 10.6136 41.3619
3.10413 11.2037 41.9264
3.09768 11.1372 41.9207
3.08388 11.1796 42.3126
3.07381 13.4016 68.3849
4.96429 14.5179 41.899
3.045 11.1204 40.5162
2.95446 10.6575 41.0528
3.01051 10.8928 41.2415
3.03611 10.8338 40.9692
3.00988 10.9819 42.0033
3.06554 11.0075 41.7566
3.03599 10.7954 42.1704
3.07423 10.7972 40.14
2.94313 10.5307 41.3084
3.01763 10.8099 41.3246
3.03132 10.8997 42.3509
3.06456 10.8254 40.8295
2.98267 10.8882 41.1212
2.96619 10.5583 40.7361
2.97047 10.9038 42.1256
3.03878 10.6583 40.7673
2.95534 10.592 41.19
2.99236 10.748 40.7564
2.95793 10.6788 40.9235
2.9914 10.6724 40.7786
2.93608 10.5456 40.8285
2.96604 10.7849 41.5749
2.99508 10.884 41.3695
2.97587 10.4872 41.2119
2.98607 10.7041 40.2482
2.91088 10.628 41.5988
2.99766 10.658 41.6698
3.04325 10.8833 40.8325
2.93409 10.3762 40.5113
2.95033 10.6511 41.0135
2.95317 10.6448 40.821
2.91958 10.5645 41.0438
2.93206 10.5074 40.2181
2.89746 10.4473 41.1713
2.94565 10.6629 41.0667
2.93303 10.7113 40.8907
2.9369 10.602 41.2563
2.95078 10.373 41.1224
2.94805 10.7276 40.585
2.91199 10.5279 40.533
2.90398 10.6168 41.4541
2.91642 10.4137 40.7812
2.89675 10.5381 40.1257
2.86455 10.5373 41.2299
2.94025 10.254 40.238
2.88776 10.5718 40.3421
2.87438 10.3405 40.755
2.91957 10.6708 41.2368
2.91019 10.314 40.7779
2.91232 10.5828 40.639
2.87311 10.3722 40.8606
2.88015 10.419 40.3374
2.84908 10.5974 40.3936
2.83521 10.3365 40.9202
2.88425 10.4786 40.934
2.88113 10.4979 40.354
2.84438 10.7154 41.499
2.92285 10.4393 40.4453
2.83359 10.5135 40.9318
2.85958 10.4033 41.0099
2.87974 10.31 40.7522
2.87971 10.5051 40.4816
2.81382 10.4648 41.6494
2.92468 10.5265 40.6087
2.86506 10.6106 42.0065
2.953 10.4555 40.8268
2.85527 10.363 40.3841
2.83858 10.545 40.6691
2.84538 10.4312 41.4487
2.90685 10.5024 41.4789
2.91159 10.4327 40.1415
2.82365 10.4021 40.5044
2.83228 10.3248 40.903
2.85489 10.3378 40.4931
2.85289 10.2339 40.4762
2.83644 10.4248 40.9427
2.8549 10.5214 40.8057
2.84907 10.2247 40.5868
2.84356 10.4171 40.9345
2.85709 10.2938 39.8905
2.77246 10.0999 39.99
2.78636 10.4525 40.6047
2.8206 10.0549 39.816
2.81846 10.2273 40.2217
2.81595 10.4001 40.167
2.8216 10.1515 39.9699
2.77522 10.1575 40.8762
2.85111 10.4223 40.6482
2.8157 10.1346 40.2454
2.79888 10.1738 39.8278
2.77342 10.3081 40.7034
2.84991 10.245 39.5077
2.74287 10.3538 39.9984
2.77673 10.5494 40.3571
2.77141 13.0413 68.9633
4.6089 13.4132 40.2311
2.77999 10.7319 41.6548
2.87991 10.4437 40.3565
2.80096 10.2293 39.8352
2.73251 10.162 40.8024
2.81615 10.4374 41.1637
2.83259 10.2783 41.0378
2.82521 10.3331 40.3773
2.82326 10.4245 40.6633
2.78808 10.0557 39.7417
2.76103 10.154 39.5892
2.75363 10.2466 40.879
2.81043 10.3095 40.8031
2.83478 10.2542 40.0172
2.77576 10.2308 40.8553
2.80545 10.3162 40.1238
2.77692 10.0915 40.1566
2.73659 10.0845 40.6345
2.79923 10.4504 40.5313
2.78107 10.3123 41.1409
2.79931 10.1854 39.7307
2.72424 10.0558 39.6664
2.7301 10.0312 40.1774
2.74279 10.1235 40.6202
2.7938 10.3939 40.4832
2.7666 10.3287 40.6747
2.76904 10.0832 39.9591
2.73023 10.1312 40.7002
2.77479 10.1143 40.7841
2.79916 10.4325 40.6446
2.77932 10.1573 40.472
2.75217 10.2459 40.81
2.80639 10.1586 40.0852
2.75017 10.0315 40.0951
2.7371 10.2672 40.8699
2.78769 10.2054 39.823
2.73186 10.0284 39.9011
2.71399 10.2869 41.2372
2.80131 10.4194 41.1876
2.80401 10.1492 39.554
2.69296 10.1858 39.9402
2.72854 9.92051 40.1123
2.74085 10.0271 40.4092
2.77415 10.4455 40.7076
2.78007 10.0424 40.8338
2.79731 10.197 39.8163
2.71453 10.2862 40.6822
2.77003 10.3112 41.1561
2.79587 10.3113 41.2458
2.79172 10.2779 40.8233
2.7775 10.2324 40.4763
2.7658 10.1019 40.2746
2.74297 10.0587 39.4281
2.68222 10.0623 40.3449
2.73205 10.0318 39.5987
2.70473 10.2233 40.2997
2.74056 10.184 41.0414
2.78465 10.2013 40.4623
2.73755 10.3008 40.5425
2.75939 10.1501 40.886
2.77744 10.2813 40.5337
2.7551 10.0888 40.595
2.76389 10.3259 41.3397
2.80581 10.2174 40.5584
2.76354 10.2491 39.8243
2.71009 10.0377 39.9956
2.71601 10.1583 40.7028
2.76153 10.1355 40.9031
2.76805 10.1154 40.7849
2.76732 10.2331 39.9785
2.70959 10.2047 40.7007
2.74451 10.3227 40.8893
2.77504 10.461 41.5312
2.81391 10.2928 41.4774
2.79196 10.0444 40.3314
2.72348 10.2977 40.7875
2.75027 10.2731 40.2886
2.74103 10.125 40.7777
2.77889 10.3179 41.5116
2.80134 10.4053 40.6391
2.75649 10.2143 41.1753
2.81289 10.2997 41.006
2.7624 10.2714 41.2843
2.80814 10.2273 40.1931
2.7527 10.3401 41.1006
2.79707 10.2647 41.0828
2.78625 10.4046 40.7853
2.75249 10.2951 42.1996
2.85899 10.5093 41.0113
2.78488 10.3657 41.5068
2.82142 10.5597 41.404
2.77961 10.4366 41.4436
2.79856 10.5308 43.3086
2.91806 11.0738 43.4661
2.94149 11.3704 44.237
2.98899 13.5084 69.8988
4.59647 0 0