# pn-170911/RbIIR-53-KOKB-1280-1959.psd
# Power spectrum* (dif=0,1,2) (really just |FT|^2)
# NOTE: only the first half! (symmetric)
# weeks: 1280-1959
# 4 clock-days, 0 excluded
# PSD: 1441
150.446 0.045087 0.0388827
19390.2 0.601645 0.0125079
11405.5 0.169646 0.0125003
7591.96 0.101808 0.0125514
33065.5 2.18367 0.0118747
5530.62 0.551532 0.0133131
6570.53 0.900595 0.0124561
2633.33 0.503126 0.0124172
1743.54 0.617613 0.0129635
2041.86 0.395099 0.0121295
1751.64 0.374983 0.0140783
949.228 0.647138 0.00994152
991.296 0.301695 0.0140415
1341.04 1.32684 0.0105724
389.274 0.580225 0.0124734
380.885 0.294755 0.0129897
756.907 0.395915 0.0137228
412.421 0.296151 0.0151557
217.553 0.414496 0.0156859
659.433 0.702486 0.0180698
597.977 0.828907 0.0136069
1052.89 1.56004 0.0228823
516.14 0.937657 0.0168932
437.106 0.81256 0.0113731
355.884 0.480094 0.0136049
565.427 1.15315 0.0127479
153.756 0.306474 0.0158014
116.905 0.405338 0.00901014
418.826 1.08486 0.0138112
389.656 1.03389 0.0227146
319.832 1.29423 0.0218402
54.8551 0.398562 0.0136362
491.158 1.69341 0.0197977
385.197 1.57656 0.018691
134.171 0.840743 0.0136789
211.186 1.20209 0.0114151
197.833 0.681526 0.0113691
327.461 1.89435 0.0168977
307.037 1.45672 0.0247949
367.715 2.1338 0.0430705
298.996 1.64829 0.0249921
238.924 1.03016 0.0213483
290.695 3.33835 0.029414
227.714 1.43783 0.0168462
231.029 2.0891 0.0319553
157.617 1.12232 0.0287633
326.214 2.63999 0.0315869
302.077 2.67137 0.0511345
156.411 2.12574 0.0476954
710.401 6.2232 0.0949724
229.66 2.33621 0.0504197
216.189 2.45779 0.050652
260.033 1.98624 0.0315111
549.879 5.64743 0.0673498
68.5025 0.828092 0.0124312
69.3891 0.924774 0.0295215
316.816 3.68107 0.0636074
323.55 4.50318 0.0905779
171.226 2.55851 0.0556818
295.029 4.57538 0.103909
294.159 4.96685 0.0939917
118.191 1.69337 0.0358292
299.157 6.02375 0.121726
140.69 2.19631 0.0583054
500.857 8.43375 0.19879
191.857 3.45489 0.108023
138.129 3.93956 0.0772421
319.311 7.72195 0.190513
278.18 5.18975 0.169946
185.852 3.33875 0.0815983
151.022 3.43257 0.126354
411.318 10.1335 0.237688
107.228 3.79535 0.111023
197.488 5.05834 0.137013
193.548 4.11806 0.130851
277.565 6.45063 0.252792
82.6606 2.99253 0.0993524
159.689 3.88343 0.0821296
173.703 3.81484 0.0890718
142.31 4.22925 0.139757
127.21 3.4794 0.122081
188.208 6.08284 0.227504
407.784 12.1083 0.487084
213.852 7.93049 0.314026
209.215 6.22552 0.145745
159.526 5.02526 0.215557
148.805 4.37551 0.158026
295.144 9.89868 0.354807
122.141 3.75245 0.195502
90.1563 3.3465 0.0991173
120.401 4.52811 0.160938
331.649 12.0414 0.544988
124.472 6.30628 0.218193
86.3796 4.28681 0.229205
226.702 8.05135 0.331956
207.08 7.58786 0.408261
124.961 6.4188 0.356216
171.266 6.21669 0.299276
277.483 12.5641 0.536499
143.601 6.32661 0.21329
81.7533 3.39689 0.151504
140.685 6.30081 0.280614
27.9108 1.72003 0.128027
84.0407 3.88526 0.145686
224.608 11.8236 0.741824
127.033 4.73051 0.293154
257.011 13.5434 0.633963
184.968 8.21128 0.42891
291.984 13.9632 0.925364
99.5309 6.128 0.373207
121.06 6.32261 0.42401
147.704 8.99603 0.590992
196.391 10.9169 0.688385
104.312 5.05747 0.320437
108.402 6.02712 0.387266
158.044 10.6897 0.702648
211.855 11.7998 0.656404
70.8716 3.84524 0.201958
92.8336 7.18682 0.423434
183.388 9.77836 0.585763
194.359 11.4034 0.761573
110.076 7.54459 0.535004
154.296 11.3442 0.890125
65.0438 5.8751 0.365956
90.2793 6.59852 0.446063
186.633 13.3332 0.868159
97.6479 7.10847 0.486608
112.145 8.14844 0.631316
145.111 11.8989 1.07031
111.557 8.50872 0.777107
130.242 10.4385 0.779413
208.17 17.6032 1.31544
276.74 19.905 1.50144
166.257 12.9693 1.02238
122.445 9.37313 0.831039
79.9924 7.40216 0.69509
109.904 10.6717 0.966806
119.909 9.68654 1.0561
207.951 19.5971 1.5811
250.911 22.0602 2.15553
239.062 21.5449 1.83596
89.8138 9.15299 0.903485
97.4677 9.61704 0.819157
54.0741 4.12838 0.445864
200.748 18.5431 1.84295
52.5187 5.22254 0.545204
69.0352 6.75487 0.816261
174.321 18.4182 1.76392
94.0591 8.92223 1.08637
78.7841 8.08467 0.93041
67.9396 6.37758 0.653738
99.9621 10.0869 1.07186
95.7821 12.1926 1.50023
114.179 10.4331 0.960839
31.98 4.04186 0.364455
166.61 22.3528 2.93015
96.3765 10.0936 0.932523
166.701 20.0528 2.51527
74.7967 7.70255 0.803084
67.417 10.0413 1.38008
128.786 13.4927 1.49872
79.1469 8.03785 0.953949
47.527 3.85595 0.313636
131.192 14.8357 1.87738
102.526 12.8058 1.64018
124.752 18.172 2.56274
186.31 27.4103 3.71537
101.199 12.3652 1.43414
90.7159 9.10408 1.00486
32.7513 3.76798 0.513686
25.7504 3.19371 0.421101
118.85 16.2313 2.28286
172.474 27.9506 4.22768
117.902 12.9763 1.80705
115.144 13.1599 1.81994
136.982 19.8478 2.80822
113.089 15.4701 2.45924
86.2802 10.4711 1.08087
125.811 20.3245 2.93317
65.3422 8.39843 1.07914
76.2156 9.40173 1.39672
81.6206 10.4044 1.44284
88.3103 12.796 2.09376
24.0601 3.82324 0.609798
51.7029 8.83451 1.40941
171.863 26.6791 4.52799
66.6345 9.79219 1.64004
40.4976 7.90913 1.39334
121.611 21.5899 3.57527
51.8288 6.51122 0.95818
79.3131 13.9183 2.74386
95.102 13.3762 2.46634
41.7064 6.09702 0.898774
126.758 23.5475 4.31638
74.1086 13.343 2.38555
113.258 18.4188 3.01761
130.163 22.4126 4.14365
51.0215 6.55401 0.949329
245.524 45.2183 8.77763
151.564 28.4586 6.0684
157.128 24.6642 3.51893
76.9868 12.6476 1.96276
48.7913 10.0576 2.07453
84.2782 15.2509 3.08476
53.8139 11.3652 2.28266
87.1668 17.094 3.45019
64.6386 14.3292 3.50708
175.847 36.0157 6.82288
46.5835 8.53082 1.61931
90.231 17.6043 3.50638
163.7 33.9152 7.0244
85.231 16.7557 3.5234
71.9663 14.1605 2.99072
112.778 23.7563 3.96994
114.354 31.1603 6.99565
76.3332 20.1106 4.89488
134.068 25.0746 5.19526
134.171 31.955 6.43225
46.4696 14.9615 4.20213
35.7673 5.86385 1.54627
105.95 21.3351 4.83279
40.6694 9.21484 1.96371
27.1735 7.30726 1.77657
21.1994 5.37364 1.38674
139.711 32.6237 6.77537
54.2374 10.4006 2.29029
75.2998 15.8946 3.5615
122.328 33.8318 7.97884
61.0614 16.0576 4.44384
60.0023 12.5547 2.3957
65.6019 14.3376 3.04578
100.553 27.4413 6.46988
94.9509 23.0946 5.25616
84.5046 28.2825 8.67811
48.3359 9.99865 1.9178
61.9537 17.9459 5.17089
108.13 26.3578 6.44759
69.0908 20.7787 5.91834
21.664 6.63812 1.64903
37.0137 10.7019 3.12007
22.3192 8.01611 2.74698
103.697 31.1914 8.83081
118.996 24.314 5.50764
51.5319 14.8129 4.30657
103.362 33.6815 9.77966
61.5881 14.221 3.81483
60.3784 17.1999 5.34492
83.9296 26.3566 7.82651
74.064 17.848 5.03362
49.3321 10.592 2.41422
69.153 21.1149 5.66695
20.0561 5.41778 1.89483
104.655 31.2701 9.17755
30.6366 6.19204 1.94115
98.6101 25.8945 6.965
123.029 38.1763 12.2845
36.3281 9.45779 2.61462
80.9116 23.9408 6.30683
32.2178 13.8699 5.80399
125.344 30.8271 8.06414
88.9457 29.6862 9.89618
85.4135 26.7891 8.28199
68.3563 16.8901 4.78604
50.1457 18.1714 6.90384
38.6679 13.4136 4.80055
72.1707 21.4095 6.077
13.1111 5.0504 1.90081
65.9014 20.2855 6.21138
61.8028 19.8908 6.71531
43.5337 14.413 4.53526
61.731 21.8911 7.5498
15.9482 4.41021 1.94096
75.3234 22.2973 7.09942
58.5643 18.6697 6.25417
90.9565 30.0443 10.8227
32.3414 10.2011 3.41766
39.6833 12.0221 4.24319
41.7442 10.8187 2.90674
76.9263 28.8621 11.6081
41.7691 14.0468 4.61291
166.124 64.0305 24.6497
74.1637 22.5358 6.50473
29.9522 15.8739 7.32247
57.9214 21.2865 7.50346
8.96934 2.18592 0.987913
73.0925 31.7817 13.5663
54.5895 17.0446 5.65984
87.6205 28.8614 10.1771
48.4663 17.0088 6.76059
69.0677 27.9578 12.258
56.9222 20.5132 8.3326
31.0111 11.7491 4.60933
19.0714 7.95408 3.65683
12.2388 3.70914 1.71613
48.9972 20.4829 9.91711
32.028 9.62528 2.56228
92.2053 39.1314 14.7311
19.9877 6.50602 2.97693
53.8207 21.2932 7.69216
19.7786 9.74051 4.0512
35.3708 17.4339 7.49329
47.3809 17.5963 6.3238
9.01158 5.56993 3.07701
36.7455 18.5781 8.58214
77.8044 28.7918 10.1922
40.9622 17.0848 7.37957
81.8111 32.5822 14.4941
138.083 59.4334 25.0075
131.971 57.6137 23.5142
44.9499 21.9936 10.2549
63.4129 29.4948 13.6276
37.5203 12.3325 5.45705
44.7752 19.0523 8.75632
57.0788 19.7422 7.76143
47.5467 20.5976 8.95548
26.1184 16.65 10.9949
59.8608 23.0898 10.6781
71.1854 25.5989 7.76487
71.4886 31.844 12.2255
65.7944 38.5697 21.5341
46.7459 20.1189 9.07509
67.3327 32.9309 13.4724
10.896 7.23019 4.68829
25.0656 9.72767 4.71604
14.3807 7.69016 4.19234
27.0232 15.1795 9.95218
67.6608 28.2181 11.9788
36.865 15.7817 6.53778
117.139 61.7377 27.6963
18.3129 11.8843 8.18459
41.7003 19.1275 9.07055
41.4242 18.2347 8.49441
45.0417 23.7301 12.0902
46.2634 24.6432 12.4824
45.007 28.3815 16.5197
39.5019 14.3672 5.8777
40.1571 21.3946 10.6736
33.4096 18.2295 10.8648
101.968 54.1151 28.181
45.7921 21.6518 9.35238
19.3594 12.1386 7.72111
45.7023 22.0482 11.1053
43.6432 21.9116 9.55127
46.2517 30.2102 18.096
60.7726 27.7097 14.156
34.5781 18.1489 9.39298
19.4045 11.2911 6.49427
45.4503 23.942 12.1142
31.1479 16.1535 8.6693
54.8812 33.2987 18.3251
24.2851 18.9005 13.4732
42.7927 26.7555 18.8398
65.5424 33.5294 15.746
53.4594 30.546 18.1612
40.9343 19.0584 8.59773
23.1565 14.0117 8.29696
35.6229 21.5958 12.8797
32.2634 21.6623 13.5805
46.1134 25.0949 13.362
35.3296 23.9362 15.7348
27.6442 13.407 9.71931
91.6068 54.4895 30.1656
44.7161 16.8404 7.23514
76.4724 45.3629 26.3901
36.0086 24.7438 17.437
48.8687 29.9777 16.0316
24.2889 20.7782 16.5243
20.5405 21.0371 19.6497
39.8948 20.6117 13.9124
39.3244 21.3286 12.7225
42.7264 20.853 11.0508
32.9716 19.2345 10.8617
25.9997 15.5645 8.86933
31.9644 17.6 10.1893
27.8186 14.7114 6.69218
66.2234 43.4611 27.8446
23.035 13.2699 7.79148
30.7369 19.4895 11.5257
39.1492 33.6204 26.9257
24.7344 8.46008 2.63561
41.618 25.7732 15.6234
54.6745 40.1287 24.7527
20.0129 10.541 6.3395
17.6788 12.0365 6.91585
11.819 9.26941 4.99049
28.2281 26.2874 20.1999
32.923 26.6228 20.3806
64.5032 38.768 24.8267
43.646 26.4659 17.4525
38.2683 28.1497 21.2861
39.9372 25.5572 14.9329
17.3053 13.3232 9.46647
26.1807 23.5346 18.7371
15.8521 7.25191 4.21604
17.9667 13.1964 10.0165
25.5071 17.584 12.332
52.8521 35.5061 23.5297
21.9236 14.5999 12.4064
28.2321 21.359 15.022
10.2365 5.17634 4.3719
12.3566 12.7815 12.4829
22.8261 13.3709 11.4371
40.4723 23.9448 15.0602
56.0294 37.1723 23.8394
41.4163 31.358 21.4305
54.137 32.2514 19.3612
30.7435 23.6342 16.1276
38.4556 30.3975 24.9732
62.0342 49.1421 38.2714
43.1701 30.5905 19.8947
40.5949 35.9297 30.6786
24.6588 21.8406 19.5979
20.9764 10.103 8.52287
27.2691 18.6144 12.3936
45.3483 35.3282 27.1473
16.3891 12.405 9.32585
22.0922 16.198 10.9175
22.4073 20.1084 19.1933
24.9986 16.6352 12.245
15.3355 13.7465 11.3536
14.4214 12.6752 12.8418
31.8116 20.8831 12.1042
33.5393 25.5292 19.4501
29.8348 32.215 30.4801
28.096 16.4766 10.6628
15.9189 11.5007 9.82904
40.5478 32.1773 25.6941
27.4824 19.0281 11.4906
23.5923 24.3429 20.7192
25.5312 28.0635 29.7555
38.8114 21.5081 9.20823
26.2141 29.2835 25.818
23.0094 27.4446 29.8157
41.0752 18.9357 9.37988
35.7043 26.5492 18.7074
55.2656 44.8078 31.0052
5.8592 6.8156 7.74105
29.2626 24.8939 20.3958
34.5773 30.1427 26.4376
18.9305 12.6943 9.17951
13.9152 12.1172 11.3077
28.8598 24.7235 23.2263
46.0433 37.9894 31.1943
22.4039 19.6962 17.2794
13.6839 14.515 17.5439
21.7163 16.6246 15.6099
48.0276 40.2668 27.7948
16.4863 18.1052 21.6637
45.4109 35.477 25.9046
25.2045 19.3564 13.6238
21.279 22.036 21.4266
18.8489 15.7396 10.6111
13.2275 19.4739 21.7308
30.8947 36.1296 38.7446
29.4442 17.2386 8.72676
14.751 18.075 18.0721
28.2161 29.4174 32.1834
39.0942 30.9439 24.7505
40.3062 34.089 27.909
15.2967 13.986 10.7204
19.4019 24.2955 23.4285
12.3412 22.3319 31.7498
26.9385 22.1765 26.3026
32.6706 21.4012 16.7767
22.4688 20.082 16.1303
23.3395 17.7078 13.4801
11.4515 7.11631 5.63023
17.064 13.0769 10.794
15.4522 14.2819 10.7106
7.26784 9.46529 10.5913
20.3109 19.9154 21.4399
31.1468 27.438 21.497
10.7397 10.8831 12.7764
24.8298 20.5025 15.2705
16.0922 18.2038 21.4137
13.832 14.554 16.7316
23.8428 18.8256 15.1476
23.3699 26.3973 28.1615
16.8868 19.2665 23.3436
26.1803 24.3699 28.1005
52.8657 41.0382 28.9017
31.2099 33.2326 27.6729
32.626 33.2721 29.532
44.6621 53.0121 45.9008
12.7366 22.6882 26.7974
13.8174 26.1479 33.9803
6.88681 13.7126 26.9269
19.3953 14.7396 17.9465
23.9736 21.4548 18.5084
18.1778 21.3289 22.0127
16.5281 24.0998 36.5749
39.5793 29.6714 21.9851
13.7298 9.10675 6.73517
7.36412 9.91184 10.9375
21.8134 27.7166 31.5043
25.5142 21.3628 20.2295
5.38144 5.02888 5.78141
12.4177 12.6481 11.2301
11.5146 15.8168 17.5838
12.2599 13.567 15.096
12.5474 21.4154 29.1276
34.255 35.2598 37.9109
16.6668 13.0617 16.4575
11.603 5.83777 2.88576
22.146 29.3371 38.6449
33.7715 34.2969 32.2827
14.0548 18.4162 24.1074
22.496 27.3823 33.6461
18.6908 15.0355 15.2883
14.0243 10.4188 9.58042
16.9768 21.4218 24.2448
22.3115 23.3391 20.7085
9.3267 16.4665 26.8239
20.2435 24.4059 35.0298
41.2449 35.2439 28.8408
25.6316 29.6197 29.0327
21.672 31.9307 40.0592
14.6202 21.942 36.9986
40.3548 33.9508 25.0861
17.1447 24.2301 33.6105
26.2052 34.612 36.5143
11.2151 15.2572 23.6622
13.6784 24.5072 41.3427
19.8245 13.6899 16.0433
26.9372 26.8101 28.6256
34.0895 32.957 34.1572
11.9424 12.9902 13.3633
6.39901 6.39079 9.78965
8.97457 10.7393 19.2496
25.5963 25.1231 27.2901
30.4512 28.5431 23.3393
3.12245 5.78682 12.1866
33.417 41.3162 50.1438
26.7376 24.8567 20.8281
16.6136 19.4211 20.8904
13.2337 18.5521 19.2519
7.7182 12.3047 20.5
8.39607 8.85223 13.3817
7.90703 6.6263 6.28346
10.9611 15.8731 17.2529
16.3437 25.1893 34.7204
14.8459 11.623 9.46784
6.2568 7.88788 11.2993
19.6506 33.5187 46.3115
16.452 9.48833 6.06161
14.2423 17.5656 19.3125
14.7048 24.8484 34.2468
15.2881 12.2811 12.6515
10.1871 12.0628 17.2601
14.5871 20.5895 30.1573
22.4625 26.8014 27.5222
15.1449 17.9132 17.8043
7.20888 9.2895 10.5146
7.61081 11.296 14.8
5.70027 11.0468 19.7938
19.4639 31.2304 46.4712
12.012 7.27309 7.31314
4.71156 8.81162 18.6795
19.7302 22.2719 31.3982
20.9962 15.5377 12.786
35.699 44.3092 42.2742
20.8673 33.9975 49.1776
13.2316 19.2922 27.0721
15.697 24.1267 31.2362
12.036 18.2522 28.9351
20.9417 30.8194 51.6086
29.748 31.4692 31.321
6.80627 13.46 24.2865
25.488 35.7304 48.7223
16.5881 21.7658 35.2502
20.5055 23.4758 36.8348
19.6832 17.8816 16.2953
11.9241 15.0406 18.4155
17.4584 26.2867 33.7397
21.5909 27.2538 33.1627
26.5937 45.1836 59.4369
11.3555 19.7664 35.9823
20.4532 25.0669 36.5732
20.6841 23.5717 27.7944
20.2405 33.0559 39.9624
4.15265 12.7554 34.6732
16.1849 12.4113 13.9686
16.3233 18.1859 21.9605
20.7644 32.1048 44.5869
19.8289 29.2606 39.0467
12.4507 17.2766 25.3405
7.84544 6.92382 7.15727
4.7331 11.9928 24.8629
9.5186 9.89985 14.5583
8.1994 14.3295 26.7551
15.5226 13.402 11.2258
8.93178 13.4805 17.7942
7.85282 10.392 14.0577
11.1107 19.6448 33.0191
16.0983 17.96 20.3862
13.9181 25.2116 46.1213
41.8404 53.9588 56.8705
15.5542 24.9327 35.5324
13.5102 20.842 33.6917
9.24028 13.2345 18.9873
5.46236 7.84821 15.8831
13.7428 20.0791 28.0473
11.4125 13.3603 14.5859
8.64253 9.2324 8.65045
9.75262 16.4225 21.7802
10.5 22.7998 40.0432
5.8531 7.60553 21.2349
15.3628 15.5313 18.6835
24.3383 47.8715 78.9844
19.8794 23.9871 26.0208
10.6798 19.0747 27.97
9.46776 20.9572 37.5025
7.72655 14.1626 30.8587
13.0824 17.2292 28.017
10.8495 12.9418 19.1275
13.4165 17.9044 22.7718
14.6626 30.1983 57.9958
20.3025 21.1396 18.14
7.06999 17.1409 30.8781
4.59123 6.12099 17.9194
16.618 27.1242 44.1084
11.5057 11.742 15.4951
7.93898 11.8442 20.1961
6.2347 5.26484 8.74238
19.7557 33.5899 47.8224
10.3272 17.8431 34.784
7.82437 7.18559 20.5118
31.7982 48.5732 62.1703
11.256 17.5691 32.5174
17.5912 24.8226 31.8452
12.9423 30.2559 56.0863
14.4192 23.9226 44.7905
14.8313 13.8938 10.3073
6.57994 17.0067 35.1989
9.70963 11.3967 20.8317
13.0914 19.5713 32.129
20.9947 37.8053 61.7568
20.8771 37.5689 70.8627
15.2382 9.43458 6.17812
10.3717 17.3176 23.5833
10.7106 19.5215 36.3141
14.9404 19.2439 23.43
4.65977 12.8556 28.6456
12.6837 21.5468 46.5697
22.7527 29.1834 42.8122
21.5155 33.1794 44.1656
14.2847 27.7226 41.8069
6.68686 11.1385 17.7757
2.66685 8.62626 31.7305
16.5096 20.1168 21.9674
8.95358 11.9645 15.7312
3.39677 8.08653 14.9811
9.74297 15.4991 25.0368
21.1909 43.8691 78.0402
12.9256 21.1687 38.8211
10.5722 12.946 23.0366
8.31962 13.9311 32.4581
12.1699 12.1236 15.0313
5.67817 6.15888 25.6828
34.1969 46.7889 41.2988
9.7255 22.8288 33.6805
6.43868 14.1418 26.041
8.26111 16.1844 26.8461
15.388 30.7497 48.2657
3.94163 11.9993 34.593
8.20892 17.7049 35.3337
4.991 6.07799 24.0379
25.308 44.2865 60.0321
10.4916 26.2386 61.5026
7.68611 7.7197 18.8866
6.94942 12.7353 26.5209
9.18291 10.4762 9.6887
8.98725 19.8509 32.341
4.92986 17.1145 50.3347
12.8654 19.8255 47.7366
20.8846 30.2522 53.5521
19.7953 30.0669 46.3069
23.792 49.8696 68.8526
5.1879 4.3515 10.3809
11.245 24.1511 41.6855
8.52001 10.7905 18.634
9.93008 23.4992 42.6744
14.0939 26.5621 53.51
14.3123 28.4467 50.1158
5.46424 8.4358 24.3231
17.2829 29.7058 43.4662
7.11227 16.8265 44.9872
9.35105 9.36656 10.7922
11.1209 33.0576 66.1751
10.1076 9.56829 25.1589
16.2143 25.4561 26.9946
3.68537 10.5124 21.3207
9.32952 20.0752 48.314
14.8277 30.5271 53.1218
9.47204 16.0247 30.5912
10.1162 21.3295 38.5585
10.6935 23.1606 42.9751
8.49824 11.5669 19.7725
8.27068 22.5141 56.6285
11.0363 9.67029 10.8155
8.61033 15.4541 21.8724
1.40281 8.07628 37.5673
14.3616 22.6874 36.1803
9.87776 18.6145 36.3047
17.1353 29.9771 39.3689
5.97799 12.7624 20.9023
9.92737 29.3446 64.2482
11.3039 13.0101 18.398
7.86854 15.5719 31.2041
11.8948 26.1336 42.5737
11.0301 28.1532 58.7286
8.86026 16.8163 34.3921
7.34577 14.3236 28.3366
10.4727 23.1943 37.3362
6.6758 18.2144 48.3552
14.51 20.2268 25.0819
1.94985 6.35955 21.5592
7.44221 15.2496 25.6857
3.38776 10.5339 25.6636
3.59838 3.21558 11.7511
7.31155 9.42177 15.2357
7.03775 13.38 21.5767
7.32908 24.2423 62.399
12.1202 21.7317 39.5441
7.99296 15.9228 32.7503
7.98406 11.5739 20.7733
8.51574 20.1387 34.325
4.72337 10.2056 18.3564
3.76382 12.1594 26.971
6.76439 14.5839 30.6083
11.0123 33.3234 80.7047
9.55305 16.1408 56.0722
15.5634 23.0782 42.0678
10.6941 16.6306 19.7887
4.7505 12.1904 22.3509
5.41703 13.5833 32.0172
4.2716 8.13095 32.2427
16.1514 33.1736 47.58
4.00807 7.18433 22.0062
9.41793 22.8266 40.0476
7.57919 15.3624 36.0033
3.33109 4.28577 23.925
8.77069 10.2723 14.1506
15.6145 41.8752 65.0026
5.95597 20.6227 64.3857
22.3752 47.1066 85.5487
6.91002 12.8816 42.536
11.3487 12.6777 11.742
4.98265 19.2085 51.48
7.53292 17.9866 56.1508
18.9513 43.1712 85.0136
9.98466 10.6953 25.2237
9.90013 17.5481 36.1755
5.90426 10.3701 27.9864
10.9497 20.071 28.9888
7.65995 17.0001 37.7284
12.485 22.9533 30.5532
2.35063 7.97166 28.8023
7.56858 15.2088 29.8509
8.56641 19.9356 33.0148
3.5655 12.7492 49.4916
11.9123 21.9066 44.5879
10.8941 19.4381 23.2602
7.15916 27.3263 81.3868
16.706 31.7228 55.0871
8.47897 18.7026 50.4618
14.0752 33.9914 71.316
12.763 21.4165 36.9638
6.6057 11.4431 18.8652
10.8346 33.5267 63.2687
2.94061 8.62158 37.783
13.0484 28.8989 73.9057
17.6994 36.5593 60.5082
2.15654 4.23248 24.2818
12.2855 33.3551 68.6559
5.96415 13.6675 41.2163
6.32522 11.2059 26.8896
6.48675 15.4558 37.2296
5.61146 13.1643 44.1456
7.70879 14.7048 54.7791
15.922 23.6115 26.7233
12.9401 37.1493 74.3386
9.18262 14.8228 26.2688
9.66081 24.5145 44.2803
4.90901 20.7867 65.3227
7.73866 12.2226 21.7916
3.30631 10.9325 37.3282
8.34583 17.2045 49.6438
9.15915 14.9824 33.5196
9.18675 19.7141 46.552
9.17685 13.9683 20.8234
5.23107 8.76957 13.1888
4.17685 7.90377 6.6024
4.25096 14.0287 26.3554
4.015 14.7799 44.4114
9.01311 19.0006 40.3831
6.69069 17.4214 42.5452
5.65286 15.1488 36.3777
4.52941 12.6808 44.1243
9.3599 20.0872 30.5925
4.27265 14.9471 49.458
6.09518 11.8017 49.7035
12.3191 23.1294 45.8087
10.3121 26.9428 52.2669
5.94025 12.0764 28.4899
7.15927 27.7587 105.315
11.6293 9.84896 28.1247
21.1085 56.5967 93.537
7.54966 16.0767 49.0794
14.1493 31.8111 44.6649
5.4756 24.7945 59.1518
5.1624 11.2224 30.4082
5.5906 13.9708 41.3429
5.08697 11.7843 46.3248
11.8783 30.6527 62.646
9.03889 15.2416 25.5217
6.87664 23.3734 58.8088
8.61387 29.4653 78.9825
10.2486 21.9579 53.5209
8.04447 11.5326 31.8089
11.9675 36.8681 72.7837
7.47939 14.4403 44.8962
7.81579 10.092 20.226
8.6396 23.6196 38.9985
2.29265 9.65227 30.0022
3.59369 13.4481 41.4963
4.79927 7.98447 29.1594
6.96853 11.4368 22.8988
4.58918 11.611 25.3824
2.25584 3.56185 21.3293
8.92382 28.5826 72.9083
9.81199 23.7314 68.5468
7.28943 10.0542 16.4414
3.73799 11.4148 25.2699
2.93523 7.09224 29.4854
10.1042 21.0374 25.0315
3.37886 13.2113 20.8826
1.89479 13.3281 39.0375
2.661 9.13979 40.8553
5.9324 5.72991 8.14508
1.71738 5.70442 25.9255
4.16156 5.95386 16.0632
9.07233 32.4235 53.3152
2.91684 10.8809 36.9954
4.12404 8.07514 28.0739
4.66412 8.52474 23.8096
9.23252 27.5129 47.8495
2.20539 9.29854 45.1069
6.34908 12.256 29.1046
4.90415 14.6836 46.1441
4.31665 5.60975 32.249
9.58308 17.9776 30.3832
5.80325 12.0167 16.8685
5.13112 21.532 56.8756
3.3599 5.48373 46.0838
11.2258 16.969 24.4914
10.1263 34.0648 82.832
11.0505 20.918 42.7454
7.2462 17.7943 22.4283
5.14997 27.6695 80.247
6.86671 15.0089 35.2479
4.43529 12.7903 27.014
2.94795 10.0503 41.6711
7.24541 16.4764 27.4968
3.81818 13.6426 32.5549
5.61462 23.1045 65.3025
6.34656 13.6927 28.8364
3.76447 19.2093 65.6051
6.98958 18.817 64.0983
10.0248 25.3961 65.8314
7.74277 15.6523 42.5887
7.03604 32.0758 125.18
14.9814 17.4953 28.6859
4.88138 7.8074 14.5982
2.3182 9.19122 50.0172
9.19737 17.5584 32.9587
3.4476 8.1095 25.6496
5.57069 17.6011 57.0331
7.12177 10.8143 15.1971
2.99513 10.248 34.2559
7.43321 18.2689 38.0932
3.82639 3.74539 8.7149
4.00673 12.082 35.8881
5.24163 9.70168 25.5022
6.55398 16.4634 37.7226
7.96612 24.4733 61.2524
4.70732 5.74046 18.0122
6.82127 20.2734 45.5004
6.15621 16.9671 37.4429
4.28717 13.1854 34.5239
3.30925 8.27974 26.0577
7.89011 38.565 106.417
4.40915 5.11983 39.8018
7.59841 16.3987 50.4329
8.22917 16.134 29.5587
5.19209 15.3687 35.8598
3.52699 10.0408 41.7341
6.33115 15.5196 33.0911
5.477 20.088 47.644
3.73875 5.92825 6.36119
2.55694 12.8195 28.3321
2.08123 18.0002 84.1042
9.629 19.7845 64.3247
8.24887 14.7411 34.3187
6.23203 16.8534 35.4086
5.24781 24.6077 84.4093
8.9134 16.608 42.3611
4.71521 8.01762 13.7892
0.459071 3.3631 18.0789
2.21872 11.0935 74.181
10.6137 15.405 38.6622
9.58861 23.464 25.9763
0.794195 7.34384 44.832
6.8377 21.9924 52.9103
5.05488 10.9634 22.4728
3.85171 18.5914 58.8732
5.32492 5.78588 33.3532
7.21217 13.7717 20.7519
3.65413 11.2141 34.0186
8.48613 22.2531 45.2917
7.15724 30.095 78.3081
5.21569 8.08874 47.8704
13.33 53.7794 118.284
6.46578 9.48421 39.5311
5.87211 15.5284 24.7951
0.419718 6.16703 38.8116
4.88957 8.38133 34.4151
5.52062 10.3388 12.9352
2.12991 12.0753 30.7438
3.78003 10.9052 23.347
1.18995 6.51894 29.9884
3.07187 8.12466 40.9546
9.37569 27.3554 62.8071
3.45314 9.41389 43.7677
3.87837 9.81895 48.963
5.86495 12.2031 36.569
5.34943 11.6288 26.9462
4.8029 16.9347 41.7403
3.61086 7.5976 17.3834
2.51483 10.4466 25.6715
3.07004 9.45537 36.2908
6.20949 25.0789 71.7723
4.13956 6.3205 61.1371
11.5778 19.9192 21.0444
5.79421 22.7137 39.0287
2.26406 9.30551 30.3131
4.6342 14.8482 46.9794
4.45066 8.4308 9.59536
2.30929 13.6399 47.0316
5.69221 16.9599 33.6762
3.18534 21.4532 94.3663
7.77964 8.67969 12.7377
2.60384 9.46266 22.0171
1.69109 6.05738 40.1407
4.82132 11.2073 41.6094
5.90187 11.6191 16.9573
2.43421 10.938 35.6612
5.25256 14.621 25.156
2.62387 15.9638 45.3515
3.58614 5.2829 20.2812
4.27648 21.0807 47.0808
2.62324 14.1403 85.9295
10.8347 17.3437 24.7696
3.1413 10.8136 40.9076
5.12771 13.9098 29.2322
2.64934 8.79292 25.8047
1.60624 4.09385 17.5784
2.86453 8.15193 32.3711
4.65711 15.2366 40.1191
2.80729 3.57106 14.7775
3.51165 12.5996 31.3266
1.97146 6.3402 18.9683
3.0736 10.4262 41.9782
3.25185 3.9584 5.24476
2.02765 9.63387 23.7662
3.85344 17.9705 34.2421
2.08259 11.9757 49.5293
4.18112 8.16555 21.24
1.98844 6.6577 24.8375
3.15446 7.13214 14.7772
1.92676 11.5754 37.5612
3.51726 8.32784 33.0236
3.60982 10.2086 30.8656
3.02491 7.49442 29.3465
5.09256 17.6889 36.5407
4.2328 15.411 46.9848
2.4531 8.94456 44.3849
6.26809 27.2947 85.2346
7.4482 17.0579 49.4074
3.75032 6.2112 35.6023
5.66368 14.4188 20.0738
2.5877 14.5526 43.5359
3.45397 10.7688 29.3472
2.22517 13.6997 64.2079
6.01151 11.476 36.6617
3.17395 9.89865 63.3848
9.16661 18.5738 40.5028
5.52348 18.8226 55.9566
5.743 18.4192 68.0537
6.72519 21.8456 74.2285
8.01731 23.4001 67.4381
9.05203 25.2528 49.2757
2.88232 3.9174 8.67043
1.5698 5.87978 8.64123
1.2711 17.7503 80.2706
6.99662 11.36 40.4493
5.47134 12.6389 25.169
2.2747 14.4555 58.4946
7.52664 20.9058 56.0776
3.70555 4.3508 13.9044
4.00804 15.5624 33.0408
3.17203 15.6143 43.207
2.74405 12.1286 59.7456
4.51226 8.33088 58.6575
10.178 30.1986 60.7804
4.98635 15.1226 49.463
4.20792 12.5324 26.1405
2.63092 12.5902 44.2926
2.85718 11.4597 50.3632
5.13387 14.2106 40.1848
3.20748 5.4542 21.8976
3.34405 10.9933 31.897
3.15219 11.6629 34.8622
3.30427 14.4065 47.2668
3.79957 12.4207 54.3547
3.91242 5.24227 18.8617
2.89351 13.4476 50.047
4.58809 14.8844 61.084
5.34117 9.15699 30.4014
4.09392 12.1356 18.2414
2.38208 9.19459 23.3168
2.32278 9.26366 26.2118
1.55109 4.9172 25.0751
2.47911 9.56597 36.7966
2.94859 7.34744 15.4307
1.88501 14.1502 79.5981
7.88723 22.0699 65.0342
6.38141 20.2622 44.1186
3.18008 8.12473 33.688
2.76278 10.016 35.8638
3.17225 9.71167 26.3918
2.69363 7.78159 24.0507
2.41499 14.4799 39.1722
1.99248 3.8836 23.5876
2.80182 7.61961 32.823
4.81449 15.8188 32.9164
3.19054 11.5721 42.1918
4.51413 28.4769 67.1294
2.37321 6.49843 48.4482
4.05492 9.85579 48.4897
3.02181 5.72751 52.9556
5.43875 8.09845 29.3277
3.16111 6.20776 35.1461
5.73012 18.9435 21.6919
1.74315 12.6998 43.7151
3.77244 17.1698 66.5145
5.70833 15.0628 50.357
4.52753 7.70858 13.4594
2.57057 20.5373 69.3524
4.42843 12.8623 59.0661
5.75948 14.6671 39.0739
3.47702 15.6736 55.9081
3.98756 5.92621 35.6423
3.03669 5.18302 25.9761
3.32132 9.78396 41.0247
5.53583 16.9716 30.6492
1.88945 6.46305 52.1305
7.7612 28.0538 52.3637
3.6692 11.375 35.1958
3.2935 14.83 35.8401
1.55863 5.19267 27.0813
2.76485 6.79653 20.2935
1.75877 4.76167 33.3088
5.51995 23.5142 64.5229
3.31627 7.92373 20.5888
1.32413 5.43831 28.3771
2.64831 3.68364 28.4256
5.41193 21.1823 37.9093
1.60436 7.08588 27.2798
2.32802 5.83399 32.0728
3.08196 10.6911 39.1974
4.88043 27.0718 74.6768
4.04701 6.93865 40.8559
4.40916 6.84938 7.88647
2.40312 14.9765 32.2993
0.889174 6.27112 58.132
5.25548 15.937 30.9769
1.87906 7.48072 38.216
4.07588 15.0474 27.7437
1.15363 2.19248 22.9853
3.22784 17.083 49.0615
2.15901 5.69014 41.3414
4.2541 9.9215 16.6906
1.29777 10.5533 70.9201
6.1629 13.698 48.3563
5.5059 18.2897 32.0062
2.17322 14.0445 67.6807
4.69823 6.55834 14.8173
2.18206 18.3178 70.6351
4.22361 6.13745 23.9705
2.70424 8.17021 21.5619
1.76056 6.92578 36.2272
3.3776 7.86702 18.6529
1.88936 6.42914 23.7784
3.08314 18.0169 54.6555
2.57777 5.91905 47.3203
3.40837 7.74486 16.0937
1.50496 6.83789 35.8885
3.54294 12.1676 52.7329
5.07283 17.7824 49.1092
4.36475 9.66844 18.8527
0.954443 3.51943 33.7066
4.45783 15.7023 28.8544
2.69077 17.305 65.1473
3.85251 6.64255 27.7105
3.01991 7.03183 32.1408
4.13547 10.1103 16.0868
1.84553 10.7236 45.191
3.44958 12.7855 34.3799
2.55543 13.7269 94.4992
8.41341 23.7671 34.5392
1.7831 5.98733 22.6533
1.29088 3.24843 11.5112
1.72638 14.0582 47.4914
3.9973 12.8372 42.1177
3.57935 16.1041 77.5433
6.54931 20.0713 53.647
3.86593 9.93634 39.0859
3.28757 9.57169 52.252
5.55312 19.3625 32.5033
1.43277 7.83969 31.7883
1.92839 5.37971 21.2157
2.69555 18.5971 70.3023
3.95276 3.95626 21.4075
2.28002 11.6474 26.2872
2.2271 13.7477 68.3782
5.63904 27.1236 111.746
6.80197 9.87099 32.0089
3.24364 11.1556 68.61
6.38582 10.839 25.6766
3.32732 12.8607 11.8631
0.506442 6.74799 30.0195
2.98966 11.0633 37.8908
2.80169 12.4542 51.7154
3.34453 9.26774 27.788
3.14651 21.8978 124.634
9.77735 18.0122 26.6191
2.72971 11.4584 18.5349
0.767054 5.37556 37.2156
2.93462 7.54993 9.25272
0.804769 9.13189 21.6573
1.15 7.95982 50.2803
3.90863 9.45474 31.4179
2.76095 13.7939 45.4688
3.60088 9.89708 38.1174
3.94016 16.2208 43.0497
2.93096 17.0787 54.1412
2.48901 3.71514 27.6516
2.33807 3.90981 12.5334
1.64884 8.61734 15.0688
1.19311 12.8275 56.3965
3.11069 3.17965 8.55708
0.674009 3.02575 17.4667
2.01157 8.84925 29.8519
1.65749 9.66262 48.654
4.06624 9.06632 23.7498
1.20948 4.61006 43.3867
4.39857 16.4877 62.495
4.3499 13.2668 57.0343
4.64034 14.8236 31.0934
1.94507 2.44477 12.4126
1.33926 6.49788 58.666
5.43913 19.458 46.7918
3.33994 12.6853 47.299
2.69963 4.93091 12.641
1.81004 7.89066 17.5032
1.16547 7.25662 46.7628
3.51764 12.1922 35.0381
2.6737 12.3438 23.5675
1.2322 8.72428 46.003
2.51877 3.30722 25.5011
2.33805 3.3219 28.3651
3.02054 11.5067 24.8392
1.83207 8.34741 40.5069
3.2289 11.1647 33.5429
2.1109 6.58394 14.8542
1.31562 6.98537 48.2224
3.74032 18.2871 63.5926
4.74788 9.60587 25.335
2.48322 13.7762 74.235
6.07345 18.3331 55.3419
3.72679 13.8069 43.4567
3.03322 15.4432 71.9956
5.86248 16.7038 42.9941
3.06481 13.7888 56.0735
3.41344 5.82173 20.0978
2.20252 20.3338 78.6341
5.75188 14.2 39.2678
2.67746 7.12497 28.7953
2.27345 9.50556 21.0977
1.17571 12.8607 67.7714
4.87727 10.1624 37.9915
2.3951 7.64884 42.7848
3.72279 9.54446 28.7067
1.83415 8.66829 27.6001
2.38389 10.545 41.6069
2.93494 9.58387 39.104
2.69605 10.691 28.3785
2.4701 10.2675 53.9365
3.83181 16.9064 28.6238
1.42525 4.79156 33.1469
2.30048 11.6435 58.4264
4.85568 11.2404 29.507
2.27023 9.83668 57.716
3.8281 6.89134 27.8198
2.49573 8.32268 18.1434
1.37097 5.99943 30.1149
3.01225 14.041 54.6776
4.97947 26.8488 89.5951
5.0354 11.36 24.5274
1.62375 3.19241 15.3701
1.16444 4.71305 25.5674
2.29702 17.5123 55.1749
3.05831 10.1028 48.5103
3.70379 14.6982 50.8396
4.10691 17.8313 38.4579
1.8528 3.7988 28.5775
2.03869 13.167 87.8857
7.1929 16.6995 56.4351
3.70892 9.09671 44.7963
4.34134 15.0419 26.2109
1.5371 5.60788 13.5286
0.931742 4.60632 27.5849
1.59846 7.03033 53.7334
4.80323 14.111 20.9953
0.745216 2.76369 26.2928
2.19982 6.51789 20.3674
1.85191 9.69056 24.5793
1.77633 10.1329 29.709
1.86722 9.02105 19.393
0.850637 3.86039 20.5165
1.29887 6.93857 38.4065
3.42688 15.2459 36.3914
1.66642 6.95517 49.2481
3.24732 6.77437 10.1328
0.896744 5.43643 30.7018
2.24818 12.2722 43.1808
2.34621 8.34541 47.3565
2.89865 11.8681 58.2847
4.09118 10.4026 35.0624
2.43247 19.0055 46.4584
2.25028 7.30188 26.111
1.66933 2.45279 25.4603
1.77287 6.14032 20.0866
1.32037 4.29604 24.279
1.76814 15.4073 96.4167
6.43406 15.0796 41.8731
2.62688 8.06387 23.958
2.0711 9.68762 32.8965
1.96529 3.96026 21.3773
1.07063 5.4396 21.215
1.83244 9.89431 40.9704
2.65106 10.5564 50.7854
3.03142 4.74594 21.2276
2.27517 11.0229 53.4633
3.79655 15.535 36.645
1.82234 3.80032 19.7904
1.96821 12.1968 28.5313
1.73286 6.72778 34.0169
1.88953 3.91781 32.5015
2.12585 6.73718 18.0476
1.53697 6.64016 27.3489
2.44977 17.0594 55.9521
3.04031 9.1165 48.302
3.33834 19.4914 91.6023
6.25759 22.2254 45.0332
2.13204 6.39054 52.5505
3.52448 7.74704 40.7857
2.99801 18.5826 79.9969
5.90103 14.3063 25.0139
1.53771 9.80933 45.7143
3.05426 9.5176 29.8896
2.03154 7.87315 39.0836
2.76191 12.0079 49.367
2.64853 11.1757 28.748
1.91755 9.1541 36.549
2.54842 6.99898 45.8623
3.22231 8.76377 20.3016
1.23024 3.70669 12.3758
1.28372 5.87939 12.0318
0.769136 13.0194 42.2135
1.94204 9.69092 81.9352
5.05819 8.22088 47.9379
4.10778 14.4394 12.5998
0.728553 9.1042 66.086
4.78813 18.059 39.557
2.06782 10.5235 75.8392
5.25323 21.4644 89.2499
5.82373 6.83988 30.592
2.47643 10.6428 25.8381
1.90183 9.75233 21.6723
1.70758 8.37685 52.0697
3.55345 14.7041 61.0239
3.52762 7.49161 21.6455
1.55601 11.6142 33.2346
2.28406 10.2856 40.1903
2.30647 9.57916 63.5357
4.23742 7.07512 28.3528
1.91028 5.57643 32.4814
2.82828 15.848 31.0919
1.63076 9.76 38.151
2.48844 7.22088 29.5933
1.94922 7.07951 21.2732
1.89377 7.9224 62.9931
4.48152 18.968 31.2577
1.39924 4.04572 13.7209
1.33274 12.7987 41.9771
2.80136 11.4662 69.998
4.50445 11.2845 25.6059
1.65394 5.8015 26.4426
1.416 7.91836 24.776
1.57665 6.57211 39.3525
2.87423 8.59446 17.8094
1.68843 17.8012 60.18
3.06166 7.4327 37.9903
2.40532 14.9949 63.998
3.89889 7.15642 23.5423
1.9304 1.29726 17.8104
1.56076 3.56056 26.5678
2.48782 13.4004 54.5009
3.54464 9.34522 33.7152
2.41552 7.54433 37.9971
2.58488 10.5687 27.592
1.44961 11.6706 89.799
5.57764 19.8437 28.7469
1.89994 10.9171 53.6457
3.48358 4.76733 25.1479
2.10097 10.7522 38.8331
2.12183 2.20791 30.0003
2.0998 4.49162 48.2123
3.63136 21.5599 23.1186
1.1769 4.97319 20.1724
1.18391 8.72475 25.3769
1.16769 11.3294 112.73
7.52563 5.91599 27.0725
1.94464 8.83187 46.9245
3.56395 12.0274 50.2536
3.3167 14.3125 19.3863
1.92328 20.1587 61.2632
3.78575 13.9704 35.0367
2.17258 12.052 36.2248
1.93679 8.65558 34.4317
1.97229 7.78348 24.6475
1.36422 4.32412 37.6359
2.76001 3.93323 11.5261
1.18107 9.96849 38.9496
2.34153 12.4842 85.4829
6.01317 20.2434 33.8574
2.3195 17.6214 82.5566
4.87765 4.69011 10.9468
0.827462 8.46798 28.2426
1.75204 2.74735 55.1212
4.2014 13.2336 47.724
2.8099 11.9307 33.903
2.51689 1.56731 25.4408
2.23546 10.0899 43.1645
2.674 5.30749 29.06
2.35446 20.0703 50.1824
3.13585 10.1002 17.7517
1.14122 11.0823 50.0167
2.96052 6.89873 50.1314
3.42893 19.1826 32.3916
2.02144 17.6305 63.6272
3.53525 5.27958 31.8828
2.25361 16.3456 42.1366
2.16688 3.12579 24.6424
1.48827 3.58139 47.5899
2.74242 10.8036 44.6569
2.69462 11.9741 75.526
5.39655 10.7791 12.9471
0.875968 10.5134 22.3452
1.21007 7.39984 31.6651
1.7052 2.38835 11.242
0.457178 10.0697 111.199
6.7075 13.4076 23.7574
1.24657 6.20997 10.2292
0.526234 8.90973 21.7695
1.76856 3.5472 53.1131
3.62693 10.9922 41.0091
2.81357 16.1514 56.0908
3.34516 10.2206 40.5977
2.61451 19.0526 33.8631
2.23029 6.62857 35.7067
1.78554 14.3427 69.4299
4.58808 17.0321 66.6817
4.21348 10.3093 10.3907
0.794837 5.78076 28.7546
1.91211 6.55985 52.0497
3.84326 15.6943 29.5446
2.03947 7.56955 43.0986
3.22511 6.01761 30.7978
2.29747 23.5695 29.1361
1.63108 10.1063 56.7199
3.10934 5.20317 76.0609
5.04333 10.0486 40.35
2.94462 16.4598 28.8564
1.30177 12.7553 31.8895
1.88944 12.0327 91.4975
6.22561 10.8281 69.5251
4.69454 13.8953 28.9945
1.50993 4.76578 16.0929
1.33987 6.27714 44.2229
3.18466 16.4685 38.0954
1.89428 6.13312 47.3659
2.87978 17.4852 80.194
4.95607 8.58728 10.3052
0.589505 3.79889 23.2749
1.82779 14.7137 78.5116
4.08165 11.6564 30.2733
2.10728 11.2005 57.0177
2.99672 10.0699 29.0771
2.0394 4.41861 63.2845
3.55249 26.5415 51.1717
3.25469 10.6566 32.8473
2.45997 5.52786 21.0749
1.63704 8.65238 35.3134
1.94818 5.61575 37.1119
2.45233 14.6065 36.2721
2.32846 4.34006 32.5884
2.53968 3.39165 26.3359
1.87281 13.8186 73.8657
4.82693 9.73162 23.474
1.44014 6.69444 11.5303
0.826752 4.58356 36.5135
2.38697 15.1612 48.9372
3.36493 10.0038 38.4443
2.41769 11.7137 29.6635
2.14722 4.92668 32.9588
2.01244 12.4084 32.7817
2.2345 7.35959 57.7014
3.25587 0 0