# pn-170911/RbIIR-59-RbIIR-1280-1959.psd
# Power spectrum* (dif=0,1,2) (really just |FT|^2)
# NOTE: only the first half! (symmetric)
# weeks: 1280-1959
# 4491 clock-days, 232 excluded
# PSD: 1441
198.082 0.0971257 0.0459562
24645 0.583572 0.0540742
77330.1 1.51052 0.0544972
29314.3 1.17764 0.0501187
35821.2 2.63015 0.0527245
10876 1.14445 0.0505922
8509.14 1.29655 0.0527762
5645.44 1.1768 0.0507185
6349.66 1.78207 0.053809
3634.39 1.23623 0.0508651
3162.67 1.35088 0.0542634
2474.45 1.2635 0.0531623
2347.73 1.43344 0.0542168
1856.39 1.33533 0.0528177
1716.06 1.44432 0.0554581
1432.13 1.3532 0.0521703
1365.92 1.49643 0.0536826
1167.32 1.44075 0.0522722
1084.68 1.55232 0.0538338
970.648 1.50291 0.0515183
914.146 1.5752 0.0552918
842.1 1.62114 0.0570529
805.358 1.68177 0.0546141
735.404 1.67604 0.0559303
702.971 1.74352 0.0597231
659.131 1.76461 0.0565802
642.138 1.91654 0.0568784
599.445 1.9063 0.0582766
588.548 2.02424 0.0581671
554.178 2.05684 0.0604628
565.55 2.23989 0.0611801
503.523 2.1128 0.061318
506.807 2.33855 0.0647319
479.602 2.31323 0.0639716
487.043 2.52495 0.0656414
471.656 2.58522 0.0661038
452.214 2.62466 0.0703679
455.305 2.78267 0.0687568
449.811 2.8942 0.0718605
443.791 3.02239 0.0719506
424.903 3.06228 0.0753043
409.986 3.11659 0.0759769
416.741 3.31354 0.0815186
410.04 3.42389 0.0829456
411.641 3.60695 0.0839759
390.515 3.58373 0.0865558
374.255 3.62834 0.08682
383.144 3.83204 0.0915807
406.406 4.29558 0.099363
376.602 4.13317 0.0978103
376.198 4.27782 0.100132
377.392 4.48178 0.109781
375.783 4.69139 0.116136
368.979 4.75608 0.117266
374.073 5.01096 0.124656
349.066 4.8488 0.120801
359.353 5.18619 0.125154
340.267 5.01751 0.131606
370.391 5.7427 0.144844
354.827 5.73446 0.148987
352.472 5.79862 0.150476
348.581 6.017 0.159527
365.713 6.53361 0.171969
331.736 6.07639 0.168153
342.273 6.5143 0.178748
337.471 6.64887 0.187146
341.356 6.89669 0.193873
345.449 7.21066 0.204536
322.946 6.92112 0.20341
331.637 7.32374 0.217097
325.221 7.43262 0.223368
339.651 7.97517 0.242598
332.874 8.02657 0.247239
321.374 8.00723 0.256125
321.265 8.20072 0.263148
315.675 8.24301 0.273092
327.044 8.82109 0.292014
317.115 8.73295 0.293786
329.814 9.22246 0.323521
327.482 9.62267 0.337246
310.013 9.23028 0.331834
301.762 9.19938 0.341412
319.382 10.0536 0.367971
297.638 9.53278 0.360664
309.59 10.2275 0.39216
303.399 10.2276 0.403701
308.962 10.7067 0.429393
301.974 10.6424 0.436384
301.718 10.93 0.452327
307.831 11.4278 0.478485
308.785 11.6719 0.495242
311.017 12.1217 0.519104
289.624 11.462 0.512899
279.51 11.2031 0.50087
278.389 11.5133 0.536198
302.103 12.7294 0.5943
393.122 17.1699 0.79926
280.818 12.2793 0.593873
275.678 12.3199 0.61347
265.079 12.164 0.608262
275.767 12.8952 0.664281
280.742 13.392 0.695322
300.131 14.6379 0.769295
283.25 14.0259 0.751983
280.379 14.269 0.781633
273.652 14.0781 0.788106
270.817 14.2022 0.800121
265.546 14.2052 0.817923
275.853 15.1108 0.883116
270.987 15.0932 0.896327
263.288 14.9351 0.901131
261.949 15.1299 0.937491
266.309 15.6172 0.981964
277.537 16.6339 1.04706
285.718 17.3515 1.11743
272.482 16.8835 1.10881
260.793 16.5064 1.08641
249.597 15.9656 1.07856
254.948 16.6907 1.15235
258.355 17.1932 1.19381
268.042 18.1139 1.27954
262.689 17.9562 1.29473
235.02 16.2826 1.18539
251.208 17.8015 1.31553
250.85 17.9387 1.35358
252.284 18.4354 1.41965
253.827 18.8867 1.45847
250.12 18.8361 1.478
247.028 18.9386 1.51216
239.212 18.6191 1.51922
242.787 19.1369 1.5771
236.213 19.1723 1.60873
246.689 20.2223 1.71623
242.379 20.0449 1.70033
238.367 20.0002 1.74034
236.273 20.1632 1.79419
234.823 20.2271 1.80913
233.482 20.4802 1.8563
230.259 20.5714 1.90608
227.019 20.4375 1.90546
230.107 21.2096 2.00796
226.79 21.0896 2.0297
220.978 20.7345 2.01065
235.904 22.7547 2.25638
237.697 23.0688 2.30058
223.135 21.8262 2.19964
218.661 21.8523 2.23484
226.758 23.0696 2.41915
211.138 21.5869 2.27636
218.525 22.7696 2.41127
227.174 24.1446 2.62563
221.096 23.4324 2.55264
212.073 22.9403 2.53492
214.83 23.4882 2.64321
208.965 23.1651 2.62501
219.167 24.7438 2.85181
209.02 23.5191 2.71615
207.459 24.0232 2.83622
210.569 24.5206 2.90644
218.689 25.857 3.11733
207.892 24.9347 3.05005
203.729 24.6281 3.05087
200.718 24.6173 3.05992
208.928 26.0977 3.33471
202.249 25.3741 3.24986
200.195 25.4029 3.28494
200.802 25.9832 3.42924
202.916 26.5545 3.51988
201.923 26.6456 3.57141
198.399 26.4848 3.6009
193.942 26.0873 3.55929
194.016 26.592 3.69894
194.215 26.792 3.73574
189.867 26.459 3.7437
192.53 27.2092 3.90469
193.083 27.7905 4.05644
187.21 26.9222 3.92704
187.707 27.5972 4.14643
190.384 28.0842 4.19753
184.681 27.5718 4.19964
184.779 27.8953 4.25059
183.837 28.1057 4.36312
184.875 28.2846 4.40342
182.793 28.8362 4.6325
182.191 28.5282 4.54695
181.289 29.1791 4.7467
184.203 29.4774 4.78124
177.638 28.8753 4.77986
180.169 29.6079 4.9345
172.013 28.5718 4.83123
172.506 28.913 4.89895
178.785 30.8649 5.40866
227.463 39.0709 6.72457
173.427 29.7559 5.18887
170.329 29.911 5.341
172.566 30.4723 5.45854
171.402 30.5908 5.52894
168.587 30.2204 5.45904
165.473 30.5915 5.6922
163.675 30.1366 5.65381
163.858 30.6642 5.80798
167.248 31.4027 5.97291
164.49 31.2098 6.01375
164.317 31.3683 6.08072
164.008 31.5397 6.15266
161.61 31.6418 6.25361
159.814 31.4787 6.28024
160.675 32.1829 6.50892
157.698 31.6206 6.4438
160.513 32.72 6.70643
159.633 32.5132 6.67193
155.653 32.2948 6.75677
154.26 31.9817 6.71723
155.185 32.8209 7.00211
148.823 31.7762 6.84578
150.479 32.4812 7.06496
155.288 33.6981 7.35628
149.312 32.7168 7.21622
147.768 32.5368 7.2524
146.261 32.494 7.28182
145.922 32.8621 7.45387
143.67 32.5258 7.45446
153.081 34.9963 8.09345
146.452 33.5939 7.81613
147.563 34.4397 8.07259
142.663 33.2948 7.83227
141.659 33.6875 8.10849
141.81 33.7118 8.08517
145.676 35.4521 8.69882
145.1 34.8935 8.48186
139.311 34.0353 8.36297
139.995 34.6338 8.62206
139.672 34.7101 8.71035
142.355 36.0647 9.23418
138.378 34.7067 8.81635
135.496 34.7719 9.03409
135.497 34.84 9.00525
131.5 34.0398 8.92769
130.505 33.985 8.95808
135.937 36.3009 9.75659
141.59 37.353 9.93838
130.915 35.0596 9.47468
128.248 34.8458 9.54141
126.146 34.4713 9.49629
129.089 35.5753 9.87387
135.329 37.4943 10.4835
127.356 35.6598 10.0732
128.666 35.8559 10.1306
130.169 37.0509 10.5843
125.708 35.8204 10.3207
125.486 36.2785 10.5713
125.447 36.6248 10.8025
127.008 36.9701 10.8997
127.814 37.4492 11.0906
122.482 36.3069 10.8474
124.131 37.1943 11.2379
125.055 37.9358 11.561
123.85 37.8209 11.593
121.548 37.1603 11.4502
117.262 36.5027 11.4593
117.219 36.3596 11.3394
117.644 36.9772 11.7397
118.815 37.6273 12.019
115.986 37.109 12.0012
122.51 38.9429 12.4622
113.381 36.3601 11.8375
115.114 37.327 12.2085
110.354 36.3433 11.9896
112.063 36.9829 12.2727
112.811 37.4383 12.5634
112.015 37.7299 12.7866
112.102 37.6902 12.7243
111.125 37.9679 13.13
108.289 37.0115 12.783
112.639 38.7873 13.452
105.461 36.5217 12.8214
109.055 38.0249 13.3347
107.961 37.6763 13.2793
110.162 38.9232 13.8588
106.504 38.2163 13.7987
107.485 38.6301 13.9833
104.456 37.95 13.8805
108.194 39.4921 14.4754
106.335 38.9921 14.3978
102.68 37.8546 14.0403
101.331 37.6914 14.181
102.066 38.45 14.5768
103.895 39.6239 15.3661
137.041 51.3751 19.1016
100.646 38.5311 14.9212
99.1577 38.119 14.767
98.9881 38.4647 15.0212
97.2031 37.9946 14.997
103.261 40.3636 15.8437
99.4455 39.4095 15.7172
96.5855 38.6344 15.5806
98.4461 39.1886 15.7963
98.5061 39.2341 15.7463
96.5509 39.0438 15.8279
95.1489 39.2128 16.2504
93.9358 38.6496 16.0643
95.1235 39.3918 16.3701
95.1521 39.5587 16.5917
93.6932 39.0769 16.3725
92.6722 39.3565 16.8471
93.8785 39.6817 16.9642
94.6429 40.2289 17.1956
89.424 38.7323 17.0005
94.8698 40.7337 17.5733
91.6988 40.0146 17.5171
89.8007 39.2788 17.3255
89.6211 39.6267 17.7008
92.632 40.6715 17.979
89.9474 40.1942 18.009
89.2092 40.1261 18.1484
89.3884 40.0682 18.0688
88.5247 40.2082 18.4119
85.8988 39.1305 18.0339
87.686 40.0599 18.5653
88.8769 40.974 18.9602
84.945 39.7344 18.6847
89.0494 41.7371 19.5535
82.4085 38.6545 18.2203
83.9219 39.9178 19.072
84.936 40.4347 19.3348
83.6396 40.5088 19.6795
82.2392 39.6218 19.2446
83.4631 40.9386 20.2065
84.6659 41.0581 20.1035
83.006 40.8786 20.2842
82.3356 40.2802 19.8531
81.7854 40.2953 20.0457
80.6122 40.1409 20.1777
82.4 41.5519 21.0532
81.3518 40.934 20.8119
77.6592 39.603 20.3898
82.5241 41.9182 21.245
79.389 40.8991 21.1493
78.4606 40.6191 21.0876
78.0183 40.591 21.2412
79.4367 41.5822 21.7953
75.8589 40.1971 21.4617
77.2617 40.6322 21.639
77.5135 40.9123 21.659
73.9572 39.4782 21.3465
75.6557 40.3857 21.7085
75.2362 40.7441 22.1926
74.132 40.2604 22.0306
74.682 40.9981 22.635
74.2863 40.846 22.6426
73.9183 40.7701 22.6559
72.7971 40.289 22.5151
74.2389 41.5097 23.2809
73.452 41.3277 23.3786
73.126 41.2362 23.3213
73.3605 41.7431 23.9552
71.8072 40.7372 23.2471
69.9311 40.4688 23.6595
70.1494 39.9349 23.044
70.3164 40.6308 23.6104
71.0683 41.3675 24.2243
68.2024 39.7704 23.486
69.5512 40.8835 24.1437
69.9951 41.4813 24.63
68.0398 40.5209 24.3911
68.7064 40.9634 24.6035
67.7129 40.4521 24.2811
67.5338 41.162 25.1793
68.3644 41.4762 25.3675
68.5714 41.5196 25.3784
65.0716 39.9447 24.7578
66.8022 41.2022 25.5295
65.9541 40.6517 25.267
64.8613 40.4838 25.4229
65.3898 41.1491 26.1575
68.071 42.6559 26.9216
65.792 41.5094 26.3567
63.8942 40.7035 26.1151
62.6817 40.2513 26.1628
64.0333 40.7366 26.2123
64.332 41.6334 27.1863
62.9096 40.6599 26.5944
62.0288 40.2248 26.5246
63.2941 41.3848 27.7877
81.2907 52.8416 33.6411
61.9659 41.1817 27.5583
62.1887 41.9586 28.3937
61.9621 41.1136 27.4741
61.298 40.7872 27.2597
60.5349 41.4264 28.4805
60.3675 40.5701 27.6591
62.2894 42.3725 28.9346
59.1216 40.378 27.9319
60.9757 41.5297 28.4709
59.4744 41.5654 29.2451
60.3054 41.5595 28.861
59.7186 41.4318 28.9852
57.746 40.4251 28.6178
58.0311 40.364 28.3697
57.4208 40.4995 28.7798
57.8317 41.167 29.4791
58.2798 41.5472 29.7783
57.1808 40.8909 29.4414
56.7714 41.1386 30.002
55.991 40.5855 29.6446
56.3921 41.2434 30.4072
57.3032 41.5217 30.4177
57.0435 41.6223 30.6527
57.3798 42.3742 31.4714
55.6825 41.1821 30.7508
55.8112 41.2531 30.7248
55.4621 41.3004 30.7636
52.7081 39.711 30.2869
54.8273 41.1395 31.0837
53.2862 40.4039 30.9504
55.4891 42.0966 32.0956
53.9223 41.1104 31.587
55.426 42.5983 32.6826
52.3787 40.3961 31.434
53.5332 41.4904 32.199
51.0557 39.6377 31.0877
53.2647 42.2464 33.6026
53.7343 42.0015 33.2659
52.5421 40.8862 32.2976
51.9295 40.681 32.1927
52.1819 41.6619 33.3294
52.9471 42.2707 33.8383
50.2648 40.4135 32.7253
50.0555 40.4101 33.0225
51.7237 41.4943 33.5511
50.2821 40.8233 33.4585
49.7293 40.3415 33.0494
50.83 42.0007 34.8241
49.5997 40.6978 33.6482
50.6179 41.6874 34.4881
48.9673 40.8506 34.373
50.1218 41.2448 34.2369
49.4276 41.7271 35.3331
49.3472 41.0768 34.4847
47.8104 40.4336 34.5031
48.3448 41.1494 35.2949
48.4605 40.9421 34.8537
46.9653 40.0361 34.5616
48.7446 41.8417 36.0161
48.4519 41.8506 36.159
47.1904 41.0396 35.8556
46.9206 40.5103 35.3685
46.8543 40.8435 35.8019
45.6172 40.1889 35.601
46.4661 40.8578 36.2971
45.9255 40.2845 35.7362
45.8621 41.0622 36.8018
46.238 40.8116 36.283
46.0781 41.5278 37.6113
44.6914 39.7677 35.8756
45.4873 41.4007 37.7582
44.9212 40.794 37.579
46.393 41.3156 37.0088
44.5933 40.6567 37.0612
44.0669 41.1425 38.5222
44.5974 40.7663 37.7601
43.726 40.6473 38.2974
45.0763 41.4373 38.4596
44.2388 40.9042 38.1116
42.7462 39.9371 37.6794
43.0694 40.4048 38.1346
42.9832 40.3576 38.2741
43.4314 41.3927 39.6249
44.0864 41.5181 39.5584
43.8965 41.9111 40.1828
43.0614 41.1319 39.5653
41.9631 40.4029 39.3346
42.2798 40.0516 38.438
41.5563 40.4976 39.6083
41.7333 40.4415 39.6451
41.7782 40.5705 39.8975
42.6674 41.5888 40.559
41.033 40.7333 40.6161
41.1927 40.7599 40.6178
39.4861 39.5345 41.3079
53.2088 51.9735 49.3189
41.4128 41.263 41.4683
40.0168 40.1764 40.8118
41.0819 41.2499 41.5951
41.4167 42.2537 43.3504
40.6692 40.6431 41.2806
40.1751 40.9623 42.0779
39.4135 39.906 40.9458
39.8597 41.0064 42.5258
39.083 39.7133 40.9603
39.2267 40.736 42.5391
39.2958 40.7819 42.8903
39.897 41.0715 42.8695
39.1548 40.2825 41.8963
39.2046 40.9594 42.6803
37.2936 39.5372 42.4915
38.9182 40.4918 42.5614
37.4173 39.4476 41.8707
37.206 39.3273 41.9563
37.4651 39.836 42.6719
37.3371 39.7221 42.5771
37.6014 40.3453 43.4675
36.7133 39.5605 43.0205
36.5617 39.2827 42.5163
36.2693 39.5319 43.5422
37.7093 40.8917 44.656
36.8691 40.1922 44.082
36.2279 39.7595 44.1091
36.218 39.7815 44.2534
37.2463 40.8188 44.781
35.229 38.6353 42.5666
35.0954 39.8 44.9516
35.3758 39.4706 44.6905
36.1891 40.2115 45.0536
35.4434 39.9539 45.2152
34.4644 38.783 44.2745
35.404 40.1745 45.8861
35.3038 39.9452 45.8134
35.4986 40.5103 46.5013
34.8726 39.7172 45.7417
34.4923 39.4959 45.6758
34.7838 39.8496 46.0026
34.5851 39.6507 45.6941
34.4256 40.2452 46.8801
33.7514 39.6107 46.9406
34.6625 39.917 46.2707
33.2156 38.621 45.4862
33.1272 39.0681 46.3821
33.6873 40.2544 48.1661
33.5989 38.9646 45.7367
32.6175 39.2594 47.5587
33.3794 39.1315 46.3074
32.964 39.6668 47.5611
32.6264 39.575 48.6081
33.3824 40.1728 49.021
33.4664 39.7366 47.8608
32.8373 39.5761 47.9242
32.3134 39.1008 47.5913
31.6467 38.932 48.2981
32.1462 39.11 48.2165
32.2453 39.5521 49.3504
32.364 39.4169 48.5131
31.4691 38.5231 47.8408
31.2274 38.691 48.6175
32.0185 39.7476 49.6657
31.1311 38.4074 48.3297
32.0554 39.6609 49.3047
31.1935 38.9041 48.9282
30.7782 38.3614 48.0686
30.3764 38.6869 49.4602
30.8502 39.0471 49.715
30.5758 38.8467 49.8641
30.579 38.5781 48.9324
30.1075 38.9376 50.3337
30.4113 38.9274 49.9972
29.0311 37.6702 49.5892
28.8165 36.6816 47.8335
29.8913 38.9565 50.7704
29.7684 38.4219 50.1411
29.0148 37.5288 49.4332
29.7577 38.5098 50.046
29.9002 39.5934 52.2741
29.3447 38.5325 51.3645
29.5057 38.7892 51.1715
29.7468 39.3654 52.2286
29.1283 38.6449 51.4353
28.8054 38.7103 52.3421
28.7385 38.267 51.7328
28.9064 38.5211 51.696
28.3402 37.8384 51.2161
28.4901 38.5038 52.5671
28.7694 39.0482 53.5309
28.921 38.9432 52.97
28.5532 38.5298 52.5399
28.4962 39.2453 53.9733
27.2421 38.7559 58.356
37.4734 49.447 63.1846
28.4032 38.966 54.1004
28.1076 38.9366 53.9614
27.7943 38.5801 54.0279
27.6437 38.2781 53.725
27.3927 37.9388 53.1826
26.8566 37.3363 52.6189
27.486 38.269 53.3259
26.4957 37.2762 52.9842
26.6485 37.7952 54.3926
28.1078 39.3259 55.0959
26.563 37.5616 53.5541
26.0736 37.3062 54.3763
27.1748 38.3664 54.2108
25.9942 37.4129 54.0795
25.3464 36.1476 52.3458
25.7229 37.0353 53.7308
25.702 37.2567 54.399
25.6522 36.8685 53.9662
25.5306 36.4817 53.3284
26.8109 39.0426 56.4919
25.8418 37.5464 54.72
25.6259 38.0522 56.3489
25.0447 36.6941 54.6933
25.1083 36.8334 54.8903
24.8696 36.4757 54.3991
24.9746 36.9755 55.0766
25.2714 37.5228 56.1563
25.3 37.7313 56.3896
24.6446 37.2919 57.3958
25.0976 36.6073 54.765
25.0872 37.5838 56.3087
24.3797 36.7302 56.0599
24.4802 36.6607 55.5122
24.2787 36.3052 54.7227
23.8691 36.5367 55.9551
23.5575 35.8704 55.3746
24.1737 37.399 58.4319
24.1054 36.0749 55.5452
24.3488 37.0124 56.7367
23.9973 36.7988 56.6652
23.4949 36.3338 56.3762
22.9839 35.7699 56.8785
24.0143 36.6061 56.8
23.5707 36.3426 56.4421
23.2642 36.253 57.0881
23.014 35.815 56.859
23.3678 36.5183 57.674
23.4119 36.6985 58.3138
23.644 36.723 57.1436
22.8143 36.3072 57.7648
22.6953 35.9116 57.1801
22.1951 35.6103 57.6622
23.0377 36.7058 58.9993
22.615 35.8961 57.6308
22.0288 35.4359 57.7754
22.2105 35.532 57.7698
22.286 35.5349 57.54
22.6858 36.5416 59.0405
22.6152 36.7308 59.4743
22.0027 36.125 60.3632
22.652 36.1151 58.6281
22.1713 35.9785 58.1961
21.0863 34.8438 58.7562
22.1778 35.8374 58.752
22.0711 36.5511 60.5256
21.8149 35.8176 59.2367
21.5848 35.7342 59.275
21.254 34.9548 58.3546
20.9345 34.6408 58.2448
21.3699 35.8186 60.5476
21.263 35.1635 59.0122
20.7948 34.4523 57.9183
20.573 34.7632 59.1494
20.8784 34.9051 58.8454
20.5161 34.7348 59.6323
21.2827 35.9562 61.4556
21.2044 35.3996 59.5038
20.7043 35.275 60.3053
20.4193 34.6678 59.5669
20.5522 35.1095 60.3593
20.4099 34.7193 59.8985
20.8538 35.8582 61.1228
20.2233 34.9535 60.5879
19.6754 34.2912 60.4542
19.9999 34.4794 60.4813
20.1695 34.3912 59.0292
19.3127 33.6985 59.9087
20.0367 34.9335 61.4318
19.9735 34.5925 60.4511
19.5969 34.242 60.6422
19.6362 34.3281 60.399
19.1255 33.9858 61.376
19.9733 34.9761 61.8125
19.3417 34.1468 61.5275
19.6092 35.6174 68.9638
25.6319 43.5378 70.0431
19.4982 35.3451 63.4891
18.7509 33.3289 60.7553
19.7717 35.0852 62.0116
18.9025 34.3883 62.416
18.8415 34.0028 62.6817
19.7569 35.2127 62.8544
18.6876 34.2461 63.5129
19.5234 35.1945 63.6687
19.0143 34.5657 63.4316
18.9652 34.2435 62.8966
18.7647 33.6202 61.355
18.9041 34.0899 61.2993
18.3308 34.0736 62.8492
18.6295 34.8514 65.1919
18.6746 34.2279 63.6607
18.2477 33.4574 62.3859
18.144 33.6384 62.8519
17.8646 33.058 62.4139
17.7957 32.5205 61.0071
17.9435 33.3928 62.5017
17.8065 33.2567 62.7634
17.8203 33.2664 62.5858
17.6641 32.915 62.4863
18.0214 33.4139 62.0058
17.4253 33.3412 63.4012
17.4429 33.1009 63.1699
17.4081 33.3625 64.8382
17.4947 32.1427 61.0029
17.0938 32.6186 62.1891
16.9475 32.7312 63.8457
17.451 33.1726 64.1094
17.4251 32.8206 63.1877
17.6899 33.7031 64.284
17.141 32.8802 63.5972
17.1934 33.3582 64.542
16.7638 32.4374 63.2926
16.7757 32.3193 63.4189
17.0298 32.7976 63.4807
16.7092 32.8066 64.7666
16.6261 31.9354 62.5331
16.6451 32.9059 64.7772
16.4322 32.3639 64.2527
16.3238 32.0299 64.5877
16.7036 32.255 64.0651
16.6281 32.2674 63.3953
16.2596 32.0766 64.3607
16.7037 33.3788 68.5592
17.992 34.2619 64.7126
15.5548 31.2289 63.5624
16.2946 32.5091 65.1478
16.3042 32.2147 64.3828
16.3725 32.8766 65.1806
15.5622 31.6143 65.2775
16.3221 32.437 65.1752
16.066 32.3517 65.0715
15.6283 31.5455 64.537
15.5445 31.3175 63.7982
15.3762 31.3862 64.6709
15.498 31.2585 64.5445
15.5234 31.3195 63.5843
15.0922 31.0356 64.9943
15.6683 31.7024 65.0473
15.1799 30.6886 63.8086
15.6198 32.0532 66.4539
15.6935 32.129 66.53
15.508 31.632 65.7628
15.1879 30.9358 64.3983
15.4879 32.0316 65.6516
14.9062 31.1884 66.2095
15.1275 30.7848 64.193
14.7595 30.5335 64.0347
14.8344 30.6227 63.365
14.372 30.3151 64.8267
14.7865 30.8519 65.5693
15.0916 31.3654 65.6582
14.8151 31.3141 66.2102
14.5466 30.6608 66.0897
15.2923 32.3595 68.2943
14.7103 30.6133 64.859
14.3451 30.5435 65.3519
14.4379 30.3611 64.2809
14.1529 30.3226 65.3787
13.9697 29.6408 64.6711
14.4236 30.8891 66.2372
14.6132 31.501 67.2482
13.9002 29.9016 66.0047
14.1418 30.4014 66.672
14.4213 30.8139 66.7449
13.9785 29.7613 64.7541
13.8916 29.8636 65.253
13.9478 29.9562 64.3859
13.4513 29.5506 65.8182
13.8875 30.4784 67.8984
13.8455 29.8009 65.8898
13.9832 31.5156 76.9505
18.4392 38.4957 75.4496
13.6741 29.7475 65.969
13.6019 29.6916 65.7289
13.7237 30.1169 65.8442
13.4797 30.0157 66.4952
13.4315 29.93 66.71
13.1605 28.8966 64.7062
13.2544 29.6891 66.9215
13.3488 29.6312 66.8805
13.4572 29.8399 67.4948
13.5827 29.9746 66.4989
13.0824 29.3292 66.8406
13.1531 29.0666 65.6702
13.1305 29.4425 66.2695
13.0041 29.063 65.2984
12.8092 28.8327 65.2081
12.5939 28.4747 65.9343
13.1866 29.6381 66.4243
12.7217 29.253 67.6052
12.9364 29.0555 66.4874
12.798 29.1238 67.3894
12.9749 29.342 67.183
12.7308 28.9162 66.5252
12.6483 28.5439 66.1784
12.7262 29.1497 66.4784
12.339 28.1194 65.655
12.7477 29.6399 68.6289
12.5607 28.5857 66.7439
12.588 29.001 67.0406
12.4836 28.8822 67.6902
12.6635 29.1597 67.1021
12.2683 28.8313 68.4297
12.5861 29.1066 67.2158
12.1523 28.1822 66.3542
12.1594 28.3463 66.7668
11.92 27.4134 64.5128
11.6931 27.6656 66.0302
12.0103 28.3413 67.8392
12.017 27.6443 65.7906
12.065 28.2602 66.4126
11.5819 27.358 67.0516
12.2625 28.919 68.5029
11.7988 27.1622 64.06
11.7135 28.404 68.6216
11.9784 28.0082 66.6957
11.7753 28.2927 68.2645
11.9201 28.2594 67.9515
11.7247 27.594 66.2324
11.5671 27.9766 68.4599
11.8132 28.2432 68.7283
11.8361 27.8926 67.3534
11.8339 28.4034 68.275
11.5533 27.594 66.9289
11.4827 27.6393 67.3027
11.4652 28.2333 70.0316
11.751 28.0106 68.281
11.3018 27.2433 67.8432
11.6326 27.7122 67.0675
11.2316 26.9376 65.983
11.3847 27.8597 67.318
11.1035 27.1046 66.9226
11.1415 27.0085 66.5926
11.2287 27.7529 68.3087
11.2309 27.7294 68.8531
11.0807 27.0789 67.8826
11.1677 27.2473 67.3531
11.2122 28.0655 69.8176
11.2849 27.8944 69.927
11.2548 27.3181 67.2635
10.843 27.1357 68.5778
11.0331 27.4628 69.5093
11.1667 27.2211 66.6314
10.4969 26.4027 68.2786
11.1493 27.7719 69.1841
10.7058 26.7772 68.7451
11.1365 27.791 69.6199
10.6742 26.2903 66.9064
10.6177 26.5765 68.1401
10.9876 27.8424 70.7507
11.0879 27.8765 70.2323
10.6374 26.7413 68.9408
10.6723 26.9974 69.1361
10.7728 27.2547 69.8064
10.6839 26.7626 69.2492
10.6339 26.5898 67.7143
10.5247 26.973 70.4254
10.8445 27.0167 68.1151
10.4801 27.0295 70.2104
10.7708 27.3896 69.7504
10.4755 26.8276 69.4579
10.5658 27.2112 70.5915
10.6828 27.6357 70.6714
10.1638 25.7427 67.7302
10.2014 26.684 70.5566
10.5128 27.1907 71.7185
10.4393 27.9663 84.436
14.2451 34.3511 77.2649
10.2879 26.9188 71.0789
10.4529 27.2634 72.2128
10.5883 27.1662 70.0223
10.3257 27.1751 71.3223
10.1679 26.3013 69.8398
10.2793 26.8146 71.2855
10.3346 26.4004 68.8369
10.1528 26.4854 68.5272
9.78815 26.3301 70.4468
9.92381 25.942 69.0532
9.87612 26.278 70.8287
10.0335 25.858 68.3523
9.82874 25.9378 69.1705
9.82773 25.728 66.9182
9.38343 25.8964 71.7037
9.87618 25.3066 68.4473
9.7801 25.759 68.8347
9.76476 25.7181 68.446
9.52338 25.6506 69.4685
9.57725 25.3371 68.5539
9.67401 25.9406 70.2369
9.74443 25.9022 69.7467
9.60565 25.7377 70.3901
9.77099 26.0512 69.4891
9.401 25.2175 68.8272
9.34752 24.9025 67.5858
9.37805 25.5643 69.5929
9.33296 25.2661 69.7505
9.36397 24.7973 68.1243
9.33677 25.1981 69.4097
9.39803 25.2011 68.4028
9.09339 24.6475 69.4324
9.51544 25.2489 68.7434
9.4746 25.6888 69.1857
9.1029 24.9319 68.8177
9.07491 24.4587 67.5844
9.04745 24.6427 68.5744
9.07766 24.3787 67.1635
9.08842 25.168 68.9959
9.18977 25.4822 70.2782
9.21083 25.6464 70.7481
8.93665 24.5997 69.097
9.00403 25.0918 70.0341
8.9107 24.3168 68.6374
8.84815 24.2875 68.1195
8.85417 24.7702 70.3111
8.9829 24.277 67.173
8.67452 24.0664 67.6335
8.71528 24.4645 69.4988
8.85149 24.1698 66.958
8.55431 24.1968 69.2711
8.68577 23.6525 66.3205
8.55861 24.4566 70.0946
8.78587 24.1358 68.5251
8.77124 24.4677 68.2127
8.57889 24.4675 69.4205
8.59326 24.3898 69.9677
8.53263 23.7626 69.3612
8.82645 24.5177 68.8838
8.61761 24.1911 68.1402
8.42055 23.8897 68.7313
8.52144 24.4862 71.3332
8.79309 24.5877 70.556
8.69091 24.4174 70.0825
8.65718 24.6456 69.9469
8.37823 23.7181 68.4697
8.28131 23.4235 68.3155
8.42138 24.0115 68.6442
8.26818 24.0122 70.9017
8.59213 23.859 67.5462
8.16094 23.9361 70.4243
8.44648 23.9026 68.3052
8.04281 23.2278 68.4879
8.20902 23.4768 69.8058
8.55186 24.2887 68.8219
7.95755 23.1813 68.9534
8.25225 24.0355 71.0399
8.30783 23.8104 69.9197
8.30326 23.9613 69.4234
8.03885 23.1444 67.926
7.85845 22.7299 68.9164
8.29541 23.9002 68.9442
7.99663 23.1312 68.7292
7.97565 22.8698 67.641
7.9409 23.1362 67.862
7.95388 23.6273 70.3125
8.12821 23.527 69.5781
8.07487 23.8284 70.4475
7.99649 23.1154 68.6688
7.96477 23.592 70.2632
7.91317 22.6808 68.5446
8.15898 24.2896 70.8602
7.9076 23.2974 69.148
7.77266 22.9795 69.1675
7.70447 24.3199 86.5173
10.6904 28.9428 74.6808
7.97643 23.7074 69.9563
7.77212 23.1311 69.7962
7.81551 22.8478 68.6276
7.744 22.8072 68.0973
7.65708 22.918 68.8917
7.64181 22.9022 70.1903
7.78749 22.704 67.4732
7.58491 22.7618 69.1845
7.79647 23.6557 71.0477
7.64468 22.3403 67.7183
7.59291 23.1246 70.1258
7.6108 22.8088 69.304
7.53012 22.3141 68.77
7.74085 23.5347 70.3979
7.49286 22.1621 67.5145
7.52467 22.9386 68.8797
7.26982 22.085 69.4278
7.56908 22.5347 68.9209
7.45943 22.4668 69.2185
7.40138 22.2113 68.466
7.43092 22.5594 69.7121
7.4631 22.3672 67.7786
7.29883 22.631 70.0536
7.38596 22.1129 69.0136
7.46293 22.7651 68.9676
7.15271 21.4769 67.2901
7.31227 22.4337 68.7626
7.19289 21.8743 68.5805
7.25218 21.8368 66.732
7.11301 22.2187 69.4825
7.27946 22.2482 70.0829
7.32275 22.1099 68.3227
7.13999 22.1527 69.1038
7.14385 21.5125 67.5728
7.1402 22.2275 68.8556
7.09896 22.0779 69.6852
7.21004 22.0677 69.7478
7.18831 22.1591 70.3368
7.20954 21.5799 67.7071
7.03791 21.5447 67.694
7.07733 22.2592 69.8277
7.11833 22.206 68.8473
6.85419 21.0304 66.2274
6.86663 21.9814 69.2779
6.93973 21.318 68.0308
6.94049 21.529 67.5057
6.76798 21.0972 68.4131
6.93601 21.4047 66.9302
6.79159 21.3888 68.3215
6.96369 22.0153 69.9456
7.05177 22.051 70.7664
7.04248 21.7271 69.5351
7.04442 21.9519 69.4812
6.95598 21.6008 67.6717
6.65445 21.0393 68.4974
6.91756 21.4288 68.5328
6.85915 21.8339 68.5192
6.67454 20.956 67.1694
6.60117 21.0582 68.4313
6.67935 21.0756 68.2561
6.73232 20.8534 66.5935
6.62977 21.2028 68.7553
6.74052 21.2821 69.1153
6.84142 21.9556 69.6512
6.68933 21.0112 68.3445
6.72933 21.5651 69.1917
6.7011 21.4291 69.3924
6.66481 20.8149 66.7921
6.55189 21.3707 69.4587
6.5372 20.335 67.6237
6.69137 21.4692 68.8001
6.60423 21.0979 67.5705
6.47173 21.0132 68.1305
6.47155 20.9952 68.6238
6.37939 20.1836 67.2024
6.46939 20.9482 68.5614
6.46413 20.4953 67.3691
6.46973 21.0984 68.7857
6.45419 20.4046 66.5165
6.30847 20.1249 65.6948
6.21481 20.2898 67.1059
6.33312 20.2806 66.069
6.18159 20.28 68.486
6.48375 20.9747 68.1066
6.33356 20.6863 68.118
6.31917 20.3875 67.2651
6.15089 19.859 66.6011
6.22156 20.1508 67.3945
6.2758 20.2429 66.8011
6.23416 20.3907 67.8496
6.22036 19.9419 66.2108
6.17012 20.4029 67.7199
6.27658 20.6786 69.0187
6.19103 19.9922 66.4505
6.12889 21.915 88.5347
8.65648 25.502 70.5266
6.23432 20.7545 66.6767
6.00609 20.3782 68.3989
6.14527 19.9689 67.2383
6.15728 20.2027 66.8199
6.03518 20.0651 67.4472
6.08801 19.787 65.999
5.99721 20.0465 67.0622
6.04605 19.9349 65.7178
5.93507 19.8756 67.0788
5.99906 19.6727 66.5324
6.04768 20.4866 68.8131
6.1204 20.4755 68.8522
5.99109 19.3334 66.7717
6.08368 19.9399 65.2085
5.78286 19.5721 67.636
6.00738 20.0047 67.4667
5.96326 19.8903 67.7335
5.99562 19.711 66.0015
5.81781 19.4817 66.6784
5.88642 19.8606 69.1183
6.1235 20.3159 68.2989
5.95417 19.5612 66.4324
5.86252 19.5565 65.9726
5.77994 19.5188 65.7439
5.6905 19.182 67.4232
5.95982 19.8747 67.0601
5.77259 19.1676 65.6103
5.80135 20.0576 68.0409
5.84673 19.5951 68.0617
5.88864 19.4666 66.9132
5.76488 19.3677 66.5441
5.83449 19.8701 66.7385
5.69754 19.2595 66.6334
5.80733 20.0711 69.5638
5.84102 19.012 66.2833
5.80839 19.7582 67.7049
5.79774 19.8653 67.0766
5.63768 19.3123 68.3103
5.83599 19.5028 67.1164
5.71284 19.3377 66.3332
5.58729 19.1686 66.6064
5.59349 18.8319 67.0754
5.72297 19.0712 66.6236
5.69808 18.8424 64.8244
5.62042 19.5838 67.1452
5.69489 19.8883 69.0538
5.8294 19.7497 67.7813
5.64132 19.2063 67.7697
5.71055 19.0426 66.7686
5.662 19.4109 66.8701
5.60426 19.0713 66.1297
5.56635 19.5931 68.0782
5.63481 19.6006 68.4209
5.57883 18.768 64.821
5.39245 18.9224 67.303
5.61671 19.5736 68.2376
5.59808 18.9069 66.5132
5.56212 19.2787 67.3282
5.51493 19.1476 68.2784
5.6153 19.026 67.3875
5.59456 19.1685 66.6714
5.5046 18.902 66.2005
5.50788 19.226 67.0695
5.4766 19.0104 66.0165
5.39964 19.0985 68.5107
5.5436 18.9314 66.7411
5.43919 19.0007 67.3379
5.47089 18.6359 64.4738
5.19816 18.4248 66.4196
5.37434 18.4908 67.6583
5.56475 19.3657 66.9332
5.41645 19.0484 66.0822
5.30106 18.578 66.544
5.33941 18.5182 65.1705
5.27093 18.5656 66.8493
5.35583 18.7871 67.2987
5.36038 18.4828 66.7944
5.39011 18.6196 65.5541
5.20696 18.179 65.6574
5.31062 18.6357 65.4573
5.23856 18.7811 68.2307
5.40871 18.8544 67.1554
5.32466 18.5781 67.0364
5.31148 18.4218 66.2182
5.27985 18.8382 67.7306
5.40607 19.0481 69.8498
5.53403 19.0988 68.8475
5.47535 18.7931 65.9116
5.2221 18.5168 66.7053
5.2909 18.3822 65.9124
5.24693 18.617 65.6251
5.19492 19.1077 68.6102
5.29975 18.8718 70.8431
5.55125 19.4936 70.1603
5.47024 20.8048 90.6295
7.3502 23.3959 71.0534
5.38243 19.2219 69.2024
5.36058 18.8807 66.705
5.23523 18.7452 66.7483
5.13378 18.4685 67.1789
5.21436 18.6604 67.92
5.26743 18.5604 66.7781
5.16021 18.4628 67.1032
5.22497 18.7361 67.5592
5.20367 17.9878 65.5314
5.13979 18.6653 67.3571
5.13387 18.5205 68.6516
5.30878 18.3772 65.5133
5.08467 18.6154 66.8148
5.04145 18.0562 65.5238
4.98528 17.9599 67.3016
5.16045 18.3361 66.7205
5.08602 18.295 66.508
5.04062 17.7215 64.9127
4.98862 18.1243 66.6303
5.05444 18.0112 66.6593
5.05914 17.9078 65.0719
4.94175 17.762 64.8978
4.92903 17.859 65.1283
4.91463 17.4345 65.8488
5.04315 18.0235 64.6552
4.89784 18.1535 67.6884
5.10698 18.1428 66.1655
5.00097 17.722 64.5544
4.88626 17.9367 65.5832
4.93505 17.9576 65.936
4.9383 17.8245 66.4859
4.98746 18.0527 66.5794
4.98134 17.8538 65.5959
4.92203 17.4582 62.8645
4.68743 17.2592 66.3216
4.97388 18.0396 66.1433
4.89095 17.5947 65.3687
4.90206 17.9892 65.1143
4.79585 17.2259 65.0721
4.84863 17.8375 65.2129
4.78632 17.0987 63.5075
4.70068 17.2599 65.6614
4.88304 17.3612 64.0648
4.79831 17.9096 66.3145
4.87998 17.8404 66.5138
4.82793 16.9934 63.9667
4.82349 18.0684 66.6227
4.84066 17.6396 65.6662
4.83205 17.4105 64.9983
4.79342 17.564 64.0567
4.72447 17.6223 64.7373
4.72278 17.5363 66.4039
4.81659 17.4917 66.2658
4.80406 17.1533 64.4941
4.77436 17.4588 62.7884
4.56549 17.1427 64.9566
4.72389 17.682 66.7475
4.82722 17.5478 65.8015
4.7773 17.3108 65.0578
4.72811 17.2304 64.3719
4.70392 17.3789 64.9307
4.66854 16.7715 62.6849
4.54597 16.9692 64.8241
4.72736 17.4298 65.142
4.72813 17.2159 63.7555
4.63811 17.4441 64.8853
4.64589 17.2263 64.8889
4.64381 17.1403 64.2115
4.60705 17.1077 64.8779
4.62181 16.4199 62.9853
4.56265 17.242 64.7914
4.62211 17.351 66.4007
4.74563 17.0069 64.35
4.64268 17.3473 64.2601
4.55836 16.44 62.1211
4.46674 16.6531 63.4746
4.59771 17.3699 65.6849
4.6787 17.401 66.1397
4.68144 17.0832 64.2401
4.57351 17.2512 64.7425
4.56658 16.7191 64.5173
4.58976 16.9956 65.091
4.65255 16.9243 62.9922
4.44837 16.7281 62.7654
4.44384 16.8374 64.7447
4.57217 16.8783 63.0571
4.40542 16.2251 65.5124
4.67339 17.2304 63.7386
4.46874 16.3146 63.3213
4.49307 17.2996 64.4001
4.49905 17.0125 65.8199
4.5955 16.8767 63.5585
4.47034 17.2685 64.4701
4.47631 16.7183 63.7787
4.43994 18.9277 90.2668
6.38451 20.7775 66.1375
4.57894 17.3473 64.9683
4.5624 17.3025 64.257
4.43529 16.88 64.5614
4.49156 16.7754 63.9613
4.48874 17.361 64.7936
4.43078 16.2248 64.13
4.45556 16.7813 65.2757
4.54135 16.743 62.7601
4.36038 16.3986 63.9754
4.43765 16.5894 63.6741
4.44883 16.8415 64.3797
4.41926 16.5288 64.7073
4.49932 16.4554 64.0567
4.4502 16.7911 63.4166
4.37987 16.5155 64.6712
4.46741 16.6651 64.9556
4.50117 16.5423 60.8055
4.17486 16.141 61.653
4.20442 16.3232 65.2218
4.46301 16.3342 63.5486
4.39293 16.3581 62.453
4.29926 16.4744 62.7376
4.30584 16.6605 63.4247
4.32165 16.1938 64.3341
4.44409 16.9559 64.6052
4.40259 16.6771 65.016
4.4058 16.4142 63.4247
4.35296 16.3098 63.5531
4.35243 16.38 61.3013
4.2022 16.4624 64.3461
4.3915 16.8647 64.3215
4.32386 16.0923 63.34
4.32544 16.2302 62.9038
4.2794 16.2935 64.2017
4.40619 16.6394 64.0689
4.34436 16.727 63.7933
4.31743 16.3222 63.9481
4.32197 16.2419 63.8772
4.35691 16.2887 62.6387
4.23104 16.1941 63.0047
4.28405 16.514 64.2836
4.32766 16.2077 64.6445
4.37038 16.1713 63.3927
4.29489 16.0221 63.3046
4.32285 16.6534 63.3001
4.30698 16.3855 62.1003
4.1755 16.1035 64.1558
4.33064 16.5816 63.8626
4.27554 16.0209 61.6994
4.17831 16.4411 63.3746
4.23952 16.1023 62.9571
4.22216 16.2619 62.7902
4.20663 16.04 62.782
4.23377 16.1334 64.0726
4.3154 16.573 63.6401
4.24498 16.3124 62.3485
4.15437 15.753 62.6952
4.19945 15.8123 61.1619
4.08885 16.0412 63.0741
4.18833 15.7815 64.273
4.29945 16.0358 62.9687
4.24695 16.3817 62.3468
4.15074 16.0542 64.4557
4.29055 16.472 63.1258
4.18706 16.1835 63.4215
4.20227 16.283 64.8031
4.30537 16.1869 63.3038
4.19441 15.7893 61.5624
4.10709 16.0619 63.5351
4.22679 16.2219 63.8878
4.24793 16.2414 62.3172
4.14026 16.2944 63.2953
4.18087 16.0401 63.4614
4.24655 16.0553 61.7717
4.05902 16.0794 64.4648
4.24194 16.1835 64.0187
4.21925 16.1319 62.6508
4.13444 16.1192 62.9505
4.1311 16.1293 63.5825
4.19168 15.8434 62.6811
4.14369 16.1041 63.7168
4.20988 16.1619 63.5115
4.17198 15.8404 62.1087
4.1041 15.9119 62.458
4.11201 15.6315 62.6616
4.1411 16.0023 62.6629
4.15602 16.2316 64.4702
4.2558 16.0198 62.3816
4.09759 15.6465 61.2233
4.03729 15.7904 63.1435
4.16682 15.7281 61.3301
4.04232 15.564 62.9224
4.13297 16.1349 63.8526
4.20935 16.7892 63.0361
4.13067 18.614 88.748
5.77335 18.6078 63.7706
4.1716 16.3865 63.9992
4.18755 16.3387 62.7082
4.10436 16.2289 63.6021
4.16101 15.9272 62.9459
4.1198 16.1409 63.5546
4.15272 16.0171 62.6325
4.08801 15.7145 64.2467
4.22709 16.2376 63.8212
4.17142 15.7695 62.231
4.05428 15.6531 61.9627
4.05452 16.0263 62.7158
4.08697 15.9326 62.8205
4.11362 15.935 62.372
4.0409 15.6774 64.1376
4.18096 16.3284 63.5682
4.12129 15.9474 63.9875
4.16168 16.3358 66.6761
4.33366 15.9369 60.678
3.93525 15.805 63.3091
4.12435 15.4632 60.7826
3.95977 15.7167 62.0699
4.0394 15.6023 62.7143
4.10635 16.073 64.232
4.14876 16.1547 63.3473
4.09469 15.9315 64.0381
4.11867 15.6272 62.5091
4.08566 16.0863 63.5425
4.13807 15.8272 63.252
4.10127 16.1383 63.0392
4.07882 16.0006 63.5407
4.11359 15.6395 62.485
4.0581 15.6893 62.1551
4.05182 15.6273 62.7628
4.07004 15.3904 63.1935
4.09362 15.9486 62.7275
4.04619 15.8321 61.9161
4.00683 16.0438 63.4247
4.1074 16.2593 64.617
4.17305 15.965 63.6551
4.09263 15.6235 62.7601
4.06955 15.7632 61.7693
4.01093 15.522 63.1011
4.06835 15.9902 63.6132
4.08493 15.8227 62.7973
4.04698 15.6509 60.7446
3.92066 15.3917 61.5574
3.96967 15.7879 62.376
4.03409 15.7204 62.717
4.04582 15.924 64.1932
4.1279 15.7461 64.0532
4.14694 15.9876 62.3979
4.06054 15.803 62.9395
4.06346 15.5216 62.0347
3.99595 15.8867 62.5657
4.05909 15.983 62.4835
4.01943 15.3047 61.7949
3.96261 15.8182 64.1473
4.1213 16.1681 64.9276
4.18564 15.9703 63.1846
4.06865 16.0923 62.5427
4.02365 15.7824 64.0679
4.12914 15.7462 63.8621
4.09924 15.865 62.7517
4.04075 15.7722 62.7462
4.04981 16.0958 62.729
4.02941 15.754 63.4513
4.05666 15.5811 63.2665
4.06194 16.0902 62.3073
3.99501 15.8011 63.4549
4.07048 15.8218 62.5492
4.03272 15.527 62.5653
4.0283 15.7661 62.6533
4.02005 15.4934 62.1109
3.99259 15.6406 63.4931
4.05656 16.0239 62.4121
4.03858 15.7802 63.4407
4.0681 15.8751 63.7278
4.11716 16.0152 62.7113
4.05581 16.0955 64.0641
4.09692 15.576 63.1286
4.04873 16.2772 65.3574
4.2063 16.2031 63.3911
4.04583 15.696 61.9471
3.9641 15.8999 63.9421
4.10359 15.9644 63.8156
4.09539 15.4034 62.0912
3.97185 15.7742 63.902
4.10555 16.2877 64.44
4.1009 16.2416 64.6175
4.16814 15.7837 64.4983
4.14164 15.9413 63.0495
4.05208 16.3566 65.9246
4.24363 16.4219 64.6042
4.14989 16.8331 67.2625
4.30576 19.3241 92.5425
5.88133 0 0