# pn-170911/RbIIR-50-AMC2-1280-1959.psd
# Power spectrum* (dif=0,1,2) (really just |FT|^2)
# NOTE: only the first half! (symmetric)
# weeks: 1280-1959
# 233 clock-days, 236 excluded
# PSD: 1441
1421.11 0.0889577 0.0803863
20800.2 0.378332 0.198625
171699 3.74053 0.18133
15944.2 0.663603 0.173091
53224.6 4.16231 0.185419
5666.68 0.593199 0.192808
5187.14 0.816949 0.186332
2825.99 0.543814 0.172515
3264.78 0.971668 0.176123
1870.38 0.637104 0.172418
1828 0.784308 0.155575
1369.67 0.736068 0.161607
1361.71 0.800385 0.169836
1078.87 0.844472 0.193767
1002.52 0.839749 0.179915
816.053 0.812032 0.174971
822.4 0.916513 0.180168
774.721 1.01138 0.173532
640.644 0.981896 0.186128
602.355 0.996617 0.163091
576.906 1.10654 0.198114
498.463 0.960733 0.176268
523.83 1.18945 0.19803
495.299 1.16282 0.183906
445.206 1.21119 0.185306
439.782 1.23256 0.187713
407.063 1.3392 0.19589
401.814 1.40564 0.17417
405.722 1.38199 0.203781
414.132 1.51261 0.18983
376.051 1.51125 0.184449
343.111 1.48492 0.168309
378.127 1.61639 0.187512
322.706 1.63973 0.176213
302.911 1.63353 0.183379
330.852 1.7699 0.181339
367.661 2.06565 0.194355
289.73 1.75113 0.178905
295.176 1.90676 0.173009
322.727 2.24434 0.181834
261.547 1.86112 0.195371
276.394 2.20777 0.186097
284.468 2.26306 0.180159
278.274 2.38339 0.195465
259.208 2.30974 0.168943
289.567 2.76376 0.2159
271.713 2.53215 0.214103
259.16 2.59728 0.189553
290.779 3.04184 0.206484
269.458 3.02438 0.219989
250.553 2.81185 0.20711
236.169 2.77077 0.18961
249.705 3.09142 0.228128
246.052 3.14436 0.240165
259.84 3.66615 0.243764
237.489 3.19251 0.221031
238.626 3.43078 0.226083
258.406 3.8431 0.223611
230.219 3.67664 0.226594
250.745 4.08041 0.253416
245.171 4.14082 0.230194
222.559 3.87395 0.230633
229.611 3.94933 0.224706
186.494 3.46212 0.246275
233.685 4.38729 0.25061
205.443 4.12158 0.281087
219.394 4.43848 0.293625
235.691 4.81326 0.291959
218.821 4.59646 0.272034
201.529 4.34038 0.299331
221.924 4.96767 0.28711
226.57 5.29531 0.278708
201.846 4.87668 0.287673
223.733 5.66908 0.319313
226.56 5.70792 0.350138
219.955 5.7086 0.313572
207.645 5.73243 0.310371
183.922 5.23145 0.337394
213.469 5.82323 0.356509
176.076 5.40978 0.335419
217.721 6.50978 0.406444
201.581 6.04867 0.337184
209.348 6.51164 0.365943
174.065 5.53369 0.341709
195.982 6.55972 0.367806
199.917 6.58028 0.400905
183.649 6.19717 0.391395
183.825 6.36057 0.406893
186.48 6.80186 0.401849
174.05 6.57135 0.436331
212.21 7.87895 0.495917
179.974 7.02786 0.428535
173.465 6.73079 0.443967
176.384 7.42494 0.464626
187.55 7.95951 0.470691
179.963 7.55871 0.494737
175.588 7.63129 0.499971
169.279 7.38491 0.533132
163.802 7.35433 0.515509
183.963 8.33252 0.553033
180.853 8.40323 0.56136
210.257 9.88072 0.652334
180.424 8.82417 0.596314
164.622 8.27983 0.570534
179.61 9.02659 0.597737
170.835 8.7535 0.599951
173.175 9.01539 0.597683
175.311 9.33248 0.693791
154.886 8.28354 0.668328
185.078 10.314 0.753868
170.367 9.3939 0.663403
142.143 7.97559 0.598434
148.422 8.7898 0.657036
158.796 9.33606 0.75136
160.72 9.70882 0.727687
152.662 9.5407 0.787295
150.91 9.56032 0.756912
175.814 10.9837 0.847291
157.565 10.171 0.775707
173.082 11.3029 0.981551
180.826 12.1455 0.96706
178.055 12.0146 1.02809
149.003 10.4132 0.922048
165.263 11.9168 0.99484
157.931 11.0371 0.970103
149.649 10.9077 0.973058
170.827 12.5237 0.982643
141.433 10.4546 0.926128
142.332 11.0034 0.943375
147.211 11.5498 1.02368
157.024 12.248 1.14486
162.351 12.9537 1.19972
160.231 12.6075 1.13813
156.797 12.9501 1.18165
165.564 14.1531 1.38363
156.895 13.1192 1.16027
136.223 11.8282 1.19189
135.848 11.8095 1.21371
135.528 11.9555 1.23834
139.135 12.4032 1.27333
148.162 13.5546 1.36967
151.798 14.0066 1.43628
142.418 13.4482 1.42524
139.64 12.8164 1.38191
142.154 13.726 1.40483
123.739 11.8834 1.2311
133.526 13.3069 1.5073
145.437 15.0373 1.62214
122.887 12.5265 1.40291
133.074 13.7985 1.48458
129.645 13.7819 1.66712
135.788 14.1032 1.5555
123.559 13.28 1.57572
114.586 12.6595 1.54965
129.823 14.0562 1.69212
125.277 14.0188 1.70347
139.332 16.0043 1.91653
123.403 13.9313 1.69697
139.059 16.2212 1.99037
118.366 13.8325 1.63298
128.297 15.0756 1.86405
128.394 15.4909 1.96276
100.253 12.3076 1.66523
118.529 15.0325 2.09213
121.243 15.6483 2.09183
119.704 14.9338 1.96962
106.6 13.5751 1.85471
122.564 15.905 2.15076
109.924 14.3652 2.01231
138.991 17.8475 2.44118
109.096 14.9021 2.13079
118.97 15.7683 2.21995
118.011 16.6907 2.40463
128.662 17.678 2.61212
123.434 16.9266 2.3903
112.336 15.8213 2.4624
120.271 17.1952 2.57187
113.281 16.5346 2.57877
107.802 15.8963 2.41843
115.431 16.8362 2.52338
116.962 17.8806 2.74476
127.144 19.0339 3.02889
106.785 16.4896 2.64878
124.314 19.0247 3.05397
107.45 17.029 2.75078
123.234 19.7551 3.1959
105.044 16.7403 2.79476
113.687 18.5191 3.06351
112.624 18.4713 3.05027
106.419 17.5859 3.0547
107.625 17.7672 3.00284
106.478 17.8913 3.052
110.658 19.1376 3.42926
112.166 19.365 3.43642
103.106 17.5384 3.11567
115.224 20.5562 3.75795
110.602 19.7692 3.68244
107.823 19.0516 3.55477
101.17 17.9856 3.37191
111.52 20.8341 3.98884
103.604 18.9927 3.58694
113.291 21.4897 4.09212
105.303 19.7003 3.72787
112.152 21.912 4.36313
121.237 23.6743 4.62863
97.6995 18.986 3.89698
102.052 20.1002 4.01214
101.596 20.3069 4.22858
106.618 22.0145 4.577
90.8262 18.5917 3.78054
83.637 16.9594 3.59928
106.187 21.977 4.64427
101.199 20.9994 4.3566
98.3314 20.0792 4.1453
103.34 21.5092 4.61195
102.129 21.8456 4.66107
109.878 24.1014 5.32628
98.558 21.0691 4.56546
96.2885 20.7391 4.57834
94.3946 21.1362 4.87134
81.4919 18.3011 4.29944
92.2112 20.6006 4.74216
95.3481 21.2214 4.79578
96.0129 22.1338 5.17014
78.3451 18.4629 4.42198
97.7197 22.7438 5.3313
93.8675 21.0327 5.04416
88.2356 21.6211 5.10187
93.7417 22.8158 5.64768
106.596 26.3196 6.16365
83.8054 20.6322 5.13035
92.4305 22.5631 5.82798
86.8903 21.9688 5.47815
81.9378 20.5822 5.21591
85.5931 21.1903 5.33565
93.6404 24.0231 6.38199
86.9531 22.6775 6.06834
84.1758 21.4112 5.52454
82.1974 22.0137 5.81346
82.5426 22.045 5.99316
93.3477 24.676 6.47222
87.7532 23.2689 6.47253
80.1541 21.6899 6.0073
85.7674 23.7283 6.30117
81.1627 22.2452 6.09092
88.5303 24.304 6.86976
86.6806 23.5739 6.65872
103.333 29.3331 8.39114
79.043 22.1106 6.17763
86.3596 24.6768 7.18138
83.1641 24.307 7.30649
88.76 24.8229 7.1225
78.9277 23.0563 6.80471
82.1539 24.711 7.50777
72.7814 21.5111 6.55165
90.0298 26.1931 7.79396
85.778 25.9639 7.88636
77.5632 24.1867 7.31894
81.5878 24.3252 7.50023
80.6272 25.3151 7.93989
82.4606 25.9513 8.35225
80.3788 24.9897 7.58091
76.7697 24.1121 7.66987
75.1498 24.2931 8.04268
77.8217 24.5289 7.73415
84.2543 27.2293 8.63468
71.6829 23.8521 7.69435
72.6302 24.1861 7.69786
74.6086 24.7335 8.27631
79.2168 26.8919 9.20683
85.4421 27.8711 9.15943
77.4888 25.955 8.76683
69.2624 24.3031 8.46695
80.1658 27.3003 9.26108
71.3473 25.0048 8.73851
81.563 28.3901 9.86765
69.6362 23.8105 8.51536
73.1085 26.3088 9.47876
67.0876 23.2191 8.13614
73.0855 25.3168 8.77019
70.7561 25.6087 9.40263
72.5149 26.4864 10.0192
74.9536 26.4949 9.51356
69.981 25.534 9.46468
70.3615 26.4098 9.91267
70.2231 26.1781 10.1271
71.5815 26.4556 10.0814
74.0416 28.1432 10.9
77.0712 28.5304 10.9088
74.1482 28.19 10.81
70.2617 26.7744 10.1969
75.8596 29.7761 12.0281
86.7749 32.4277 12.1482
75.273 29.4764 11.4635
73.7827 29.6357 11.8395
73.0221 28.979 11.5712
65.4804 26.1657 10.1842
68.7519 27.9804 11.3221
74.6882 30.3867 12.4968
72.37 29.3669 11.747
60.7302 24.578 9.87281
69.6209 29.7662 12.724
69.8101 28.8464 12.2204
67.7267 28.541 12.4022
75.7705 31.9366 13.4554
68.6788 28.4279 11.8679
76.4519 32.5882 14.0809
66.0314 28.6331 12.5498
74.5081 32.0882 13.7289
66.1207 28.2585 12.2922
62.507 27.5418 12.4423
66.3648 28.223 12.2247
67.1937 29.3366 12.8561
67.6045 30.371 13.6768
64.1718 28.2471 12.8811
66.9374 30.3256 13.4279
63.5263 29.4611 13.5509
61.1214 27.4118 12.4033
62.6054 27.7981 12.5871
61.2716 28.2788 13.0604
63.4444 29.9103 13.9006
61.027 29.5597 14.3683
70.3241 32.5372 15.5807
68.2125 31.1056 14.1203
67.0549 31.9707 15.0862
62.9891 29.5745 13.9492
56.7405 27.5786 13.6907
59.7838 29.6736 14.4452
60.9909 29.6222 14.5795
62.8127 31.9734 15.8704
65.5958 32.1347 15.5111
60.8202 30.4109 15.4452
62.9482 31.7293 16.1629
63.1637 30.9857 15.5274
54.0019 27.1516 13.9556
58.9181 29.5048 14.7653
58.6254 30.1152 15.0762
60.5685 31.8447 17.0456
62.7547 32.3805 17.0359
61.4661 30.4603 15.1157
54.6091 28.0116 14.3357
55.0092 30.1252 16.6229
60.6612 31.4156 16.5447
65.6696 33.2422 17.1948
59.1878 30.6995 16.6634
56.9376 29.6357 15.8777
58.8346 32.401 17.5517
54.1581 28.0698 15.2734
53.2961 28.9532 15.8871
55.6825 30.6613 17.0295
51.337 28.4221 16.0023
59.5812 31.9831 17.5904
60.6373 32.893 18.1985
48.5038 27.0685 15.5399
59.5551 32.6497 18.2814
53.4224 31.4025 18.4318
56.6069 31.4023 17.879
55.9408 31.6954 18.0308
55.5634 32.5328 18.6638
52.9388 31.058 18.8855
61.2163 35.0361 20.2031
55.6642 32.1944 18.58
50.1023 29.7033 17.9846
49.3421 28.9655 17.2649
54.8293 33.16 20.4952
59.8526 34.4458 20.5632
61.2247 38.3536 23.5542
55.0846 31.1807 18.1078
50.9227 31.494 19.7227
47.448 27.4338 16.2619
51.8429 31.3473 19.1669
51.1864 31.8091 19.9514
54.1419 33.1121 20.2323
48.8834 29.3519 17.9971
53.0773 35.244 23.1901
60.4989 37.8261 23.6054
56.4147 34.9623 21.6814
54.4056 35.9618 23.6481
52.303 32.8852 21.2713
53.8412 33.5208 21.4982
54.4807 33.7467 21.161
55.677 36.7139 24.095
51.9312 33.0161 21.3323
52.852 34.2655 22.6001
57.9524 39.4075 26.78
50.2113 31.5481 20.1659
46.8589 31.1921 21.4165
62.3006 41.5918 27.3344
54.5727 37.1642 25.715
59.3618 38.7384 25.0389
53.8262 36.5464 24.7635
49.0108 33.9213 23.8848
47.2502 31.4684 21.5583
51.2692 35.572 24.5365
52.0033 35.7961 25.086
52.1892 35.7182 24.5851
53.4289 38.113 27.3051
51.4954 34.328 22.9918
48.932 34.9786 25.3055
54.4161 38.6947 28.0918
55.7515 37.7222 25.3306
45.2601 33.9747 25.4514
45.5479 31.741 22.9443
48.4103 36.156 26.7224
48.6676 33.6595 23.6538
46.7315 33.9851 25.3406
47.6716 35.2568 25.4867
43.5541 32.4468 24.8462
50.9177 37.144 27.775
52.513 36.0221 25.0099
40.9496 31.0299 23.9302
44.83 35.6597 28.6384
58.2977 42.783 31.345
48.2591 37.2403 29.0946
49.5108 35.9202 27.3102
47.7294 35.5311 26.7789
48.6157 36.2205 26.4131
42.8748 33.9361 27.1999
44.5644 33.7657 25.6516
44.0455 35.1196 28.3969
48.5718 36.7609 28.157
46.1034 36.4798 29.3489
53.3026 41.404 33.4729
57.6229 43.4703 33.0983
47.2478 37.2663 29.3836
42.1174 32.0163 25.5445
50.0205 40.0965 31.1396
41.2282 31.4072 24.7969
44.2353 34.6222 26.5058
41.0417 33.3694 27.0487
45.285 37.3339 30.2282
37.6727 32.1594 26.5948
39.0309 31.3383 26.0391
36.835 30.7221 26.0816
34.2267 28.01 23.533
39.6359 35.2564 31.963
35.6042 27.2509 22.3325
45.5044 39.186 33.3347
44.9111 35.5068 28.5559
38.7243 33.2234 28.4215
40.2182 34.6213 29.6436
37.8783 31.39 27.5846
46.7265 39.7215 33.4159
41.3421 34.7124 29.39
48.9335 42.882 36.8518
36.4834 30.9324 27.6123
40.3865 34.4008 29.7019
41.4785 34.9881 30.1169
43.583 38.1167 33.2236
32.5684 27.9717 26.0103
40.8499 35.3433 30.3488
36.005 31.9394 28.2419
43.3188 38.5735 33.6401
39.7544 33.9654 29.9184
40.7789 37.2303 33.8639
41.4075 37.1136 33.3855
36.0375 31.4461 28.5407
38.0351 33.2876 28.6803
36.7237 35.2132 32.963
32.4271 29.6996 28.5798
34.3503 30.4121 27.6644
31.0615 29.5987 29.6121
37.1627 32.4072 28.8401
34.3895 31.3408 28.4449
37.0649 34.2975 31.8757
38.8528 35.6201 33.1572
36.1592 33.8392 31.9357
34.2815 32.5177 32.1697
35.2513 33.0414 30.7457
34.0882 32.9472 32.2285
35.4735 34.4781 33.3488
35.1125 33.5393 33.1201
34.4956 31.8554 31.8474
35.9204 33.2561 31.6225
42.0419 41.2798 39.9359
35.978 34.0085 32.6401
32.4065 32.3018 33.0416
37.8716 37.1771 37.1267
38.3477 34.749 33.434
42.5612 43.0436 42.7513
35.6895 34.4044 34.0564
36.8656 37.7058 39.2205
37.8745 35.9429 34.8749
40.132 42.4983 44.2037
42.3042 41.9294 43.8588
38.7009 34.9176 34.0678
39.4636 38.0398 35.7964
30.7214 32.6216 34.987
36.2579 36.6645 37.3572
35.0123 35.3541 35.2407
33.4493 36.1647 37.8566
30.0294 31.5194 34.8835
33.6233 34.7466 37.0057
37.0925 36.4109 35.3872
34.878 39.0688 42.9896
37.4082 37.9973 39.5353
39.6033 41.8477 44.433
39.3602 41.5394 44.5004
36.7055 38.5896 41.0332
39.0664 40.6007 40.8593
31.2939 34.5296 38.713
33.5752 35.8648 37.9045
35.0119 39.8689 44.854
32.3845 34.2851 38.3436
37.8766 39.1897 40.2818
36.4486 41.563 46.6641
36.2911 40.4228 45.755
32.9768 33.9093 36.6042
32.6378 35.1375 37.9737
29.1272 31.3391 34.2686
28.2341 32.8002 38.9086
31.0346 32.3848 35.4123
31.3284 35.8905 39.7166
33.1133 37.0121 42.4003
30.6867 33.6909 37.3373
32.4421 36.3857 40.0154
30.7092 36.021 41.9392
29.204 33.0655 38.384
29.1105 32.9686 38.9669
32.1776 36.6687 43.2739
34.1594 36.3237 39.6889
31.388 36.9272 43.4812
32.1989 35.9005 40.7873
29.0343 33.2257 38.8372
30.5713 34.5351 39.5931
33.6517 38.4006 43.2568
31.4904 37.5892 43.9477
29.1828 35.496 43.8016
29.2003 33.3514 39.7659
29.4173 32.6373 37.0344
28.3135 34.3527 41.3896
25.8599 32.2778 41.2733
30.3918 35.4532 41.8289
30.4437 34.3496 39.8488
30.5578 37.1499 44.6371
26.0816 29.8448 36.8118
29.32 32.9645 38.1331
28.6767 34.4937 39.9954
26.7727 34.2622 42.9459
23.2929 28.4803 38.1408
28.5157 33.0013 38.7383
27.1336 33.0764 40.3222
26.6793 33.6454 44.7851
27.2498 31.5042 37.608
26.6659 33.4324 42.5944
28.7222 35.0981 43.4413
27.2917 32.9677 41.3617
26.6493 32.1186 39.6626
28.8218 37.409 46.292
24.663 31.171 41.8755
29.2371 35.3859 41.7995
25.2851 33.2023 43.1069
23.1311 30.7816 40.9511
23.286 29.5501 39.1944
25.3895 31.3262 40.0653
23.5997 30.448 39.212
26.5265 34.8264 46.4734
26.2416 31.8465 40.3789
27.2185 36.5195 47.1263
24.7414 32.6772 44.0613
27.9186 37.0349 49.23
25.9521 30.8492 39.9942
25.4376 33.2265 43.7858
24.4673 32.8846 45.1514
25.4765 32.4962 42.2494
25.2037 33.7061 44.3663
24.4662 33.3406 45.3942
25.3043 33.2113 45.2754
26.4311 33.4526 42.3309
25.7209 34.0982 45.3167
23.22 31.5985 44.593
23.6365 29.1961 38.3219
27.0879 37.2258 47.7982
22.6814 33.3559 48.9157
26.7139 35.0248 47.9107
27.634 37.8368 51.1626
25.6774 36.9865 53.3483
24.0276 29.5813 39.7341
24.7727 34.5616 46.4181
21.4918 30.4251 45.2466
24.7519 34.1956 48.8847
23.705 31.9168 47.7798
27.836 35.7444 45.3826
24.4814 34.9767 48.9821
24.0516 34.8509 49.1616
24.8676 33.1992 46.9763
24.8728 36.161 51.4697
25.2402 36.6612 53.3
20.8174 27.0134 40.5505
23.8675 32.5038 44.282
20.3321 29.7216 43.382
23.3092 33.4845 49.6059
24.702 33.7429 47.5393
23.9642 33.852 48.3302
21.2583 29.8655 42.3881
21.538 32.3215 48.76
24.1602 33.1483 46.7074
22.5264 32.5874 46.3419
21.7331 33.291 50.2344
21.3124 29.8843 43.7185
23.4477 34.4363 50.5336
21.5383 30.585 43.6724
20.4361 32.1233 51.7006
22.3964 32.0523 48.2675
24.6911 36.2897 52.6372
22.2101 32.9235 49.1397
20.6336 32.2981 50.9676
22.284 31.5581 45.3591
20.2038 32.2625 51.4676
21.32 30.0355 45.0849
21.3454 32.0321 47.6313
22.023 34.0731 51.2396
19.592 28.7919 42.1004
19.3382 31.1704 49.1057
19.9004 29.5614 48.1413
21.6698 30.867 44.1641
19.7729 32.6599 51.8465
19.9218 29.5381 46.6178
19.7176 31.0685 48.9124
21.0151 34.3718 54.5799
19.7398 28.7809 44.3091
19.1213 31.2793 50.4691
22.1099 33.743 52.0741
20.7869 31.4896 49.2058
19.3269 30.8976 50.0007
19.7059 29.881 46.8629
18.7476 28.2894 43.522
17.8659 29.0592 46.6163
20.0576 31.5141 49.4306
17.4679 28.2402 47.8903
20.773 32.4818 52.0744
19.8866 30.8799 48.3356
17.9918 29.1666 49.614
19.8749 29.5605 46.8671
18.0741 26.8048 42.0712
17.1259 28.4779 47.0169
18.4952 30.9411 52.6429
20.2628 31.5225 49.8518
19.5366 31.2396 52.2926
18.0496 26.7677 43.7554
16.2202 25.0583 40.4858
17.6242 29.3146 48.3291
19.4661 33.6819 55.5142
17.0242 28.6015 50.4438
20.0964 31.9943 51.8239
16.852 26.2449 44.803
18.7469 31.695 51.8525
17.0318 28.2287 48.9173
17.6218 28.4286 47.837
17.7522 27.9236 46.3445
18.3332 30.2333 50.6465
18.24 31.5157 54.9467
17.2633 27.5499 46.6354
17.5283 29.57 50.91
16.8495 27.5267 47.4655
18.0658 29.938 49.2292
18.1685 32.6054 55.5277
16.9053 27.3928 47.6042
18.1495 30.6276 52.9859
18.0059 30.3249 50.6205
17.4758 31.8884 57.5485
19.6844 33.199 57.0322
17.3045 30.4237 55.8853
17.1387 28.1552 52.2275
18.7562 30.5431 52.3568
16.4652 26.9813 48.553
16.7452 27.1257 46.555
18.2589 31.6723 54.5891
16.833 30.1603 52.5782
16.7858 29.4281 52.6053
16.4037 28.7224 52.5112
17.0265 28.9899 52.9709
18.1602 32.2077 56.113
15.6015 26.2742 48.6271
16.4782 28.2878 49.6862
16.7537 29.1673 51.4423
15.4893 27.66 48.8064
14.5461 26.601 47.7871
14.5285 24.8233 44.7091
14.5414 26.4673 48.108
16.0882 29.7459 54.0901
16.8629 30.4664 54.6287
16.3794 29.3826 51.7164
15.0199 29.1203 57.6092
15.7443 26.8557 51.3832
17.374 31.6181 60.2656
17.3938 29.5737 51.1227
15.4187 28.9609 52.6472
13.9763 24.8562 52.257
18.4252 31.3279 53.0112
15.7418 29.8876 52.8448
14.4872 28.5428 56.4762
15.7271 26.708 49.1147
15.851 30.8658 58.1904
16.2436 30.2127 56.6447
16.3887 29.0689 53.1575
15.1764 27.5081 53.8161
16.6779 31.1282 57.2517
14.6019 26.9425 54.1498
16.7836 30.8906 55.5926
13.931 25.6049 47.5912
13.1322 23.3638 42.5547
12.169 24.6006 50.2227
14.2959 25.9974 47.8828
13.5859 28.7801 60.4986
15.56 26.0258 48.7902
14.5476 27.6019 53.5946
15.2901 29.5673 58.6636
15.4056 30.3211 60.2071
16.3056 28.7951 50.4554
14.1332 28.6076 55.7723
14.003 26.4689 56.0852
16.053 30.7766 61.5722
14.9695 26.3775 49.4729
13.0561 24.007 47.0823
14.5208 28.5088 54.4165
13.1703 26.3518 53.1593
13.7453 26.6395 53.6269
15.0035 29.1832 57.846
15.875 30.0939 58.385
13.1893 25.5291 52.5101
14.1812 28.3681 59.3138
15.3297 28.1806 51.8035
13.7289 29.2668 58.7497
13.8965 27.0505 57.9158
15.904 30.0456 55.2389
12.6225 27.054 56.0208
13.2437 25.6641 52.6361
14.1076 26.8871 51.0849
12.7861 27.0589 55.0033
13.4869 29.8201 63.4383
12.7549 23.8383 50.3246
14.0559 29.2202 60.1288
13.6032 28.3753 61.3486
14.6682 28.6407 57.5491
13.5907 27.3378 60.3353
14.2577 26.988 56.0379
14.6289 29.8351 61.6841
14.1927 28.0557 56.215
13.0811 25.7938 53.6817
12.9755 24.3474 48.8857
12.5443 27.2501 57.4786
13.0898 25.2944 55.1491
14.4119 28.6863 57.3915
13.9971 28.7266 56.9985
11.8236 25.4246 58.2022
14.8272 29.628 59.0452
11.9041 25.2083 56.0487
13.4994 26.4377 54.3589
12.425 26.8356 55.6511
11.4255 23.2673 51.5229
12.6894 28.1671 59.3015
12.573 25.2945 50.1321
10.9811 26.5709 62.398
13.6348 27.0106 59.5609
13.474 25.0686 50.5654
12.8544 26.414 53.6877
11.7921 27.0449 58.1666
11.7854 26.2296 60.3855
13.2508 25.7094 50.8448
11.4917 26.4456 58.2046
12.1014 26.6774 60.0529
13.3274 28.4876 60.5267
12.1013 26.9049 57.7158
11.6602 26.115 60.299
12.0939 23.1141 51.142
12.0371 25.8452 58.8317
12.6223 26.0492 56.5718
11.7085 24.6523 53.8696
12.0831 26.9202 57.5663
11.4988 24.9549 54.3334
11.9011 27.4102 60.7612
11.4675 23.9277 53.6223
11.6481 26.6428 63.0466
12.4034 25.9668 60.1387
13.1134 28.3083 61.0609
11.126 23.4214 54.4904
12.0184 26.0546 57.688
12.0639 26.6468 60.1121
11.4872 24.1321 53.5216
9.83512 22.035 52.0548
10.7887 22.8929 52.682
10.6051 23.1646 55.3776
11.1203 22.8822 47.9098
10.5472 24.9088 58.4279
11.334 24.2416 54.4385
12.1765 27.325 60.1931
10.4761 22.9796 52.2228
10.139 23.3327 56.1208
11.6197 25.6413 60.3777
12.1657 26.325 56.2816
10.3418 23.4691 54.3643
10.072 23.3186 54.4107
10.2956 23.5794 56.5511
10.2716 21.5263 50.5118
10.2588 24.0087 61.0704
11.8011 23.7893 53.8596
10.9403 22.8164 51.8132
12.5733 28.6429 59.352
10.5097 24.7907 56.6538
10.3669 23.2204 54.413
10.0934 23.0274 53.7002
10.0111 24.898 62.2992
10.969 22.7061 54.6305
10.8956 24.1454 54.3965
10.2786 24.222 55.3063
10.653 24.8937 57.9263
10.25 24.2552 62.5696
11.6759 25.4465 62.0918
11.6577 27.0896 64.1384
10.6718 22.3942 54.6049
10.671 23.7556 52.7056
10.0898 24.2778 57.0348
9.70967 21.8162 53.3096
9.52243 22.5989 56.5706
10.766 23.9947 54.3405
10.4439 24.6705 56.3416
9.73648 24.3702 58.092
10.362 26.387 65.7794
10.1464 23.9832 61.569
10.2523 22.8224 53.9735
9.86442 22.1437 54.4667
9.54241 22.3651 51.8595
8.88415 22.2393 55.5608
9.86143 24.6732 60.3052
9.89696 22.1013 53.1132
8.85808 20.6661 51.669
8.9241 20.4755 51.3114
8.18577 18.8891 50.8911
10.1803 22.9933 53.9977
9.64669 23.1395 53.9801
9.75605 25.3486 64.4084
10.0485 23.0482 57.6774
10.1605 24.5582 57.9858
9.36679 22.9643 58.451
9.28222 21.3021 50.9073
8.78212 22.0513 55.4754
9.09328 21.8883 57.7344
10.2863 26.6865 70.6897
11.7023 25.1947 57.6607
9.18805 23.3828 60.235
10.4698 24.7281 56.3148
9.24489 23.1215 60.827
9.25268 21.5218 53.8518
8.95659 22.3992 58.2187
9.78302 24.8117 68.5063
10.276 24.3866 58.4285
9.46354 23.3494 60.5721
9.27316 21.8967 55.7961
9.60156 24.2862 64.8495
10.865 27.7185 66.9312
9.73633 22.8008 55.6407
8.34688 20.8528 54.7451
8.6216 21.5206 56.3787
8.9507 23.3662 64.543
10.4815 25.6271 60.4317
8.49465 21.6882 61.35
10.0861 23.1741 57.8856
9.10575 25.1505 69.6703
10.4425 25.1394 63.4894
9.68248 24.9023 64.6026
9.586 23.168 63.1224
10.2966 24.9661 62.9711
9.71832 24.735 60.1347
9.22916 24.3888 65.0724
9.48375 24.0549 65.456
11.0742 27.3999 67.1651
9.32573 22.2596 57.3935
9.15824 23.489 58.1477
8.16421 21.0933 59.1176
8.90014 22.1151 54.3029
8.00401 21.6315 61.2467
8.937 23.4161 62.0903
9.94586 25.49 61.9753
8.92376 22.9016 60.061
8.42665 22.0167 57.0211
8.53232 22.4285 62.2874
8.82271 21.9093 57.2184
7.47374 19.8446 59.3922
9.1566 23.4156 62.2533
8.61106 20.5063 53.8039
8.40042 22.7011 62.5843
8.99116 22.7963 57.7371
8.85211 25.2623 68.6107
8.39927 20.1911 57.2193
8.07866 19.6065 54.8224
8.79072 23.954 61.6636
7.99296 19.8782 53.9538
7.55812 18.7566 51.301
8.03812 20.9131 56.0832
7.71996 19.7817 54.6028
8.02242 21.3077 58.6023
7.78114 18.6228 51.7732
8.14676 22.0964 58.7572
8.61365 23.5652 61.4173
7.68629 20.2034 58.7381
8.35609 21.8507 66.0788
9.83439 22.5482 54.9535
8.46971 24.021 60.736
7.54616 21.2397 63.182
8.84968 21.9828 55.9864
7.74753 21.5961 61.4848
7.84935 18.5194 49.6295
7.2267 19.943 56.9123
7.74239 21.1558 60.8495
8.30138 21.9653 56.7941
7.63093 21.3505 61.8905
8.40501 21.7006 59.4631
8.54432 23.0904 62.037
7.76286 20.7353 56.9839
7.0261 19.9865 56.0764
6.91684 18.107 55.4904
7.91282 21.096 56.1372
7.19255 19.5102 56.3172
7.52154 20.6202 62.3765
8.80404 23.2932 62.7064
7.92304 18.9951 47.8358
6.26788 19.6805 60.7745
7.61917 19.6711 60.0651
8.30385 21.3442 52.3223
6.52685 18.0986 50.4811
6.65929 19.33 55.5071
6.94095 19.6639 57.9533
7.02557 18.1415 53.8726
7.70352 20.7425 55.1288
6.96126 20.6373 58.9155
7.1416 20.227 58.5635
6.52509 18.3186 58.124
7.63548 21.4404 61.7047
7.47122 20.9677 62.7344
8.22459 22.3611 61.5523
7.31282 19.2349 54.1864
6.55421 18.4218 52.4965
6.9169 19.2582 62.8983
8.15984 21.1808 58.0156
7.09241 19.8146 58.8583
7.33501 18.8287 52.5767
7.42255 21.8859 60.7588
6.68197 18.396 55.9665
7.0997 20.3328 58.564
7.01279 19.693 61.6701
7.97153 19.8294 54.5183
7.08572 20.1543 57.3241
7.25481 20.7939 60.0103
6.61143 18.15 53.0293
6.72228 19.5903 56.1831
6.64517 19.7676 61.6561
7.26605 20.8234 66.1284
8.09924 21.2982 60.4247
7.38549 19.7915 54.4268
6.629 19.9642 61.4509
7.41257 19.9839 59.2013
7.67956 21.1785 53.4611
5.8093 17.1734 54.2232
6.41965 18.3026 61.5806
7.86691 22.6079 63.2764
7.21653 21.2362 65.6418
7.31668 19.3808 62.6268
7.88975 20.918 53.6771
6.55648 19.3801 56.9812
6.7801 21.2563 57.6414
6.56205 19.7281 62.3169
6.63594 16.9829 51.0123
6.54572 19.5738 58.9993
6.79268 19.6631 56.6182
6.30499 19.8198 62.4387
6.68099 19.713 60.8258
6.45144 18.1604 59.2459
7.05385 20.3068 58.3047
6.81706 19.5442 62.0567
7.25157 21.3881 61.1566
6.28893 17.9347 56.3714
6.74108 20.2589 60.8667
6.61285 19.7018 63.9822
7.07572 19.5027 57.0134
6.67244 20.0348 62.2078
6.81074 19.6967 61.1493
6.82534 19.7017 55.2388
6.00959 18.4054 59.8726
6.17878 15.994 53.5458
6.90126 20.4137 62.3656
6.84593 20.059 63.6425
7.41609 19.6474 54.3387
6.27727 20.2147 61.2214
6.2517 18.2894 55.3925
6.48686 20.6727 67.5805
6.99416 19.9229 59.2916
6.4411 19.7828 61.0483
6.30652 17.0271 52.607
6.47348 20.2113 62.2962
6.35777 17.9396 58.5049
6.52642 20.0719 59.9363
5.98947 16.8058 56.664
6.12697 18.4061 58.4069
6.76709 19.211 55.05
6.00704 18.8771 57.968
6.3627 19.9721 60.3606
6.01425 18.2822 59.0717
6.06914 17.553 59
6.49371 18.9305 59.4399
6.33149 17.8615 50.9266
5.24218 16.1311 58.1572
6.63955 20.8194 57.6578
5.68771 18.4883 66.3356
6.57954 17.6075 56.4061
6.22543 17.9153 53.3452
5.90538 18.228 57.0471
5.65825 15.2124 51.2381
5.70549 16.4729 54.2805
6.52089 19.9307 56.2703
5.69419 17.3888 56.5389
6.31969 19.5469 62.0303
6.6401 19.409 59.9901
6.19061 18.4225 60.2395
6.51611 19.8837 62.4391
6.46752 19.0404 60.7991
6.54423 19.039 60.4506
6.17079 18.4497 55.9198
5.83018 18.407 57.7482
5.67532 18.8993 58.5281
5.55042 16.9882 58.5489
6.20044 20.493 67.2329
6.60088 18.6526 58.4936
6.05869 17.7989 57.8744
5.79349 16.7693 54.4251
5.81809 19.2222 61.2613
5.79303 16.6024 54.4134
5.67957 17.4538 55.3789
5.82354 18.0521 53.084
4.97993 17.9412 64.7435
6.3973 17.641 56.823
5.85338 17.4607 54.1734
5.70859 19.8335 67.2407
6.18227 18.1485 60.5535
6.08877 18.0863 60.6195
6.27388 19.2832 60.2981
5.84817 18.0167 56.948
5.7278 18.5752 59.9379
5.59295 17.1257 61.8717
6.50359 19.4642 57.6108
5.26288 17.3733 62.0371
6.09315 17.5551 56.8311
5.36608 16.5951 59.2397
5.66106 17.8343 61.2857
6.11628 18.4258 61.76
6.22278 18.1026 54.074
5.17616 16.1829 56.0413
5.77387 18.6782 58.0832
5.75381 17.6044 54.759
5.04666 16.2916 57.9137
5.53338 17.3272 56.5405
5.33707 16.678 59.1017
5.87616 17.6259 57.9553
5.77221 17.991 59.1133
5.82106 16.6174 54.5306
5.59486 18.6141 62.0737
5.85395 17.732 56.7585
5.30913 16.3273 51.1731
4.93132 17.1333 63.3926
5.94656 18.5997 51.3743
4.39149 16.0337 54.7333
5.0035 14.9534 51.8068
5.0687 16.5556 59.7961
5.75266 17.9172 59.803
5.38137 17.6898 65.5694
6.29543 19.2553 60.9691
5.6356 19.2514 67.9218
6.7037 21.71 66.8646
5.49133 16.252 53.4213
5.10409 16.8314 62.9224
5.58277 15.5241 54.6608
5.50338 17.746 58.9487
5.74047 19.9644 65.7402
5.75863 17.344 63.0878
6.02344 18.0812 56.4664
5.21632 15.568 52.0144
4.77604 14.6643 49.3378
4.95524 16.6429 58.0366
5.41575 17.5446 61.0173
5.67348 15.99 49.3205
5.02798 16.9702 56.6941
5.12273 16.1604 55.1496
5.23622 18.1774 60.5311
5.41408 18.8953 61.4682
5.17374 16.9247 60.7242
5.85294 17.6494 59.1732
5.61118 17.5258 59.349
5.35956 19.629 66.8128
5.78565 16.1935 58.8814
5.68125 18.2099 61.6318
5.40736 18.6796 67.6843
6.5191 20.3142 59.4865
5.26642 17.1911 60.4593
5.14332 17.4981 61.2092
5.05964 16.0292 53.646
5.04847 17.4517 56.8326
4.68958 15.2166 57.7453
5.422 16.6831 56.9128
5.18884 16.177 58.9148
5.66746 18.8467 64.1234
5.32897 14.459 53.5508
5.29948 16.7642 51.0681
4.58376 16.3192 51.5058
4.3767 15.3831 60.9849
5.29719 15.2059 54.6441
4.97267 17.9357 56.7619
4.95305 17.0455 63.8544
5.58032 18.4033 62.5821
5.33705 17.5439 53.9065
4.69095 16.0134 64.0835
5.68064 18.3851 66.6585
5.57796 17.1717 59.167
5.32378 18.1817 59.1975
4.91816 18.5902 63.812
5.08076 15.486 57.7547
4.89355 16.1347 61.5042
5.61871 18.0993 58.1522
4.68812 15.6543 57.1461
5.05006 15.7779 52.6143
4.35636 16.7657 60.3838
4.89213 14.39 50.9769
4.42625 14.6107 56.172
5.12905 17.2688 61.2516
4.93226 16.4794 57.4843
4.9725 14.7786 50.7699
4.50945 16.0422 57.7926
5.22758 15.0827 55.6313
4.94223 16.8779 56.5305
4.66149 15.6071 52.8819
4.51948 16.7705 55.6992
4.38921 14.017 60.3462
5.4282 17.4299 59.0504
5.28347 18.2627 63.7337
5.28086 16.3465 56.8292
4.6041 15.6637 53.1775
4.42212 15.1887 57.0771
4.79869 16.3491 59.5368
4.87619 16.2862 59.0814
4.84929 15.7124 61.6414
5.35018 16.318 56.2624
4.83752 15.7227 53.5423
4.39959 15.0662 51.4591
4.37178 14.5653 53.6767
4.70269 15.7125 57.4535
4.77768 16.2535 52.7322
4.18076 15.6656 58.6847
4.93503 15.3352 54.3193
4.46456 16.2147 60.0108
4.94411 15.8829 55.7136
4.75581 17.6158 63.4325
5.09815 16.2864 58.786
4.72032 15.2748 56.3206
4.80096 17.3358 59.7604
4.68625 14.9366 57.3523
5.13259 18.6729 67.2871
5.15744 16.4033 53.7307
4.32487 14.452 50.5983
4.14829 13.8823 49.3941
4.00885 14.4176 55.001
4.37277 15.338 54.1083
4.52244 16.395 63.5184
4.98363 15.9458 58.0237
4.79738 15.8792 55.2861
4.5865 15.9624 55.6887
4.33779 14.8558 54.9567
4.39711 14.5992 54.6568
4.54766 16.6812 56.9569
4.28534 13.2842 55.0743
4.33774 14.8917 48.8191
3.86691 14.0834 51.4172
4.27397 15.8967 64.4882
5.045 14.6107 47.4878
3.91956 13.7404 51.6698
4.15704 16.047 55.667
4.37648 15.1446 57.3119
4.69924 15.1638 54.4431
4.49217 16.7846 63.3664
4.74857 15.5076 55.4838
4.44605 14.8428 51.0018
4.0489 14.0859 57.4863
4.7997 14.468 48.679
4.15901 17.0564 61.5533
4.48453 16.3065 62.8486
4.78823 14.924 52.1545
4.24532 15.4832 62.3766
4.6642 14.5911 53.029
4.18777 13.8612 50.4913
3.9642 14.111 48.7808
3.87129 15.1286 58.0624
4.17647 13.7354 53.1716
4.21508 15.7323 54.6586
4.08867 14.8227 55.1893
4.14639 15.5891 61.4581
4.55664 14.7616 58.2462
4.70925 15.7497 52.4225
4.33587 13.5606 50.5267
3.96706 14.6265 51.8297
4.1296 13.7649 50.5481
3.84765 13.7677 52.877
4.14712 14.0608 49.2278
3.71519 13.9874 51.5
3.93581 14.2763 55.5943
4.06393 13.695 56.2415
4.37934 14.5619 54.5274
4.24673 14.9101 54.9113
4.0856 14.4867 52.7772
4.20606 15.2051 60.5944
4.39094 14.56 53.6449
4.36217 13.7178 44.1448
3.2494 14.2764 58.1615
4.58805 14.5021 50.1831
3.84984 15.2279 59.9721
4.41241 13.8646 58.2488
4.48299 15.7185 57.4509
4.18799 15.5757 56.2224
4.28194 13.1752 46.946
3.76123 15.0244 56.6384
4.4796 16.4797 58.2323
4.25678 14.7797 53.495
4.05879 14.2186 52.3798
3.84161 14.1692 57.9053
4.4238 15.0674 53.8237
4.08235 13.7896 54.2736
4.1018 14.1463 51.7106
4.0173 13.9516 55.6117
4.1887 14.1784 54.1449
4.50136 16.056 51.595
3.92784 15.5536 61.4185
4.44145 13.8172 52.163
4.15938 14.7157 57.7171
4.24889 15.2132 54.2736
3.8423 13.4611 54.8608
4.23331 15.2215 60.1379
4.52068 15.115 58.9279
4.86652 15.5253 55.1214
4.11342 13.7171 51.3923
3.98623 14.5615 54.2405
4.01762 14.4934 58.2883
4.42378 14.5653 54.7184
4.30254 14.9159 57.4074
4.37513 14.2157 52.3842
3.96007 15.173 59.4363
4.28957 15.0083 61.2807
4.48377 16.027 56.6956
4.2836 16.5739 62.6845
4.5401 13.3665 49.5092
3.78897 14.0449 56.8045
4.16768 17.0361 59.7246
4.21638 12.8253 50.1138
3.92251 14.0944 47.4851
3.51697 12.6859 54.1219
4.07502 14.1668 51.0685
3.9877 14.771 51.2188
3.65362 13.9158 56.933
4.41313 14.9822 52.7741
3.84166 13.9808 57.0409
4.19711 12.6489 50.8012
3.99207 14.1329 49.3353
3.66136 14.7497 60.5943
4.49008 15.5639 56.4545
4.03537 13.3567 55.6925
4.05988 13.5624 52.8217
3.92156 15.1845 58.3133
4.41338 15.4367 57.9176
4.06007 12.7109 49.1226
3.63657 12.9025 45.9856
3.42244 13.9677 53.0057
3.94958 13.5764 52.9335
3.96794 13.2272 53.1133
4.03611 13.2222 53.3878
4.16206 16.0426 53.9695
3.86559 14.1376 56.7622
3.91171 14.2408 53.2399
3.92017 13.3439 51.861
3.75073 14.5723 57.8261
3.97154 14.3596 58.4352
4.16652 13.9264 53.5113
3.90724 13.4052 48.8722
3.33098 12.538 53.7015
3.92371 14.3524 51.2514
3.7002 13.2041 50.6656
3.58893 14.3655 54.1238
3.73862 13.5724 55.1205
4.06935 14.6612 51.7685
3.86715 15.1979 59.0241
4.17918 14.5807 55.7875
4.09583 13.8802 52.9207
3.68161 14.4666 56.5213
4.02545 14.1212 54.9956
4.12145 15.6358 61.9797
4.26942 16.1923 55.6005
3.81967 12.8852 56.9115
4.20704 15.5146 56.5622
3.76782 12.6613 49.3872
3.59969 12.4509 49.1391
3.5985 13.0426 53.4865
3.79584 14.7437 54.5776
3.66785 12.5474 49.3546
3.51086 13.325 50.3037
3.4203 11.7729 49.8964
3.57257 12.656 49.7635
3.47628 13.9132 51.9572
3.53001 13.0881 52.5421
3.72549 13.6343 55.4595
3.9904 13.1481 49.8682
3.4158 13.5499 55.0794
3.99079 14.399 54.0269
3.77943 15.5957 58.5936
3.98487 13.0733 54.3679
3.7876 12.7352 54.0894
3.92871 15.0066 57.3076
3.86491 13.6868 49.0667
3.47564 13.3808 52.1214
3.70871 14.1534 57.8305
4.22087 14.1187 51.9769
3.6004 13.2113 49.5612
3.4671 12.5083 51.461
3.5081 12.5039 50.3615
3.53831 13.352 51.6372
3.70967 13.395 49.0886
3.46395 14.0087 54.6583
3.76073 13.4585 55.9204
3.78846 13.4386 54.1536
3.89874 14.6587 54.7933
3.88791 14.3076 51.6907
3.64966 13.4221 56.2935
3.98934 13.3101 52.062
3.58955 13.1102 53.501
3.68752 12.7266 47.9509
3.60238 13.6013 52.6704
3.56511 14.2044 51.7708
3.63775 13.2104 57.2261
3.96858 13.0779 51.4519
3.69799 14.7161 53.8893
3.79327 13.2885 50.6824
3.52351 11.8543 50.6315
3.67539 12.9098 54.5534
3.99525 16.3161 54.9639
3.93016 12.8276 58.354
4.25032 14.6354 54.096
3.84334 12.7602 49.6941
3.64425 14.0655 46.6182
3.31846 11.987 54.6766
3.7353 13.3928 50.4967
3.70525 14.263 52.5828
3.72474 14.6421 58.1067
3.93756 14.3903 58.6101
4.09852 13.2986 46.1889
3.21324 12.4606 52.9079
3.62912 13.2141 53.4047
3.65406 12.2448 50.637
3.50607 14.5286 59.2791
4.15904 15.1581 53.0198
3.61946 13.1908 52.7985
3.54328 13.8586 60.8651
4.406 15.9435 52.8664
3.48852 12.8146 55.4815
3.92473 12.7094 50.0454
3.83253 15.1321 58.8824
4.0588 14.3157 56.8398
3.9442 12.3213 48.1322
3.40411 11.797 49.9597
3.55503 13.9624 51.868
3.64616 12.7512 56.8926
3.83275 13.4664 55.1098
3.71802 14.0417 54.9471
3.8053 13.9724 50.4441
3.63535 13.5106 51.5921
3.4368 12.5338 53.2301
3.61019 14.2356 52.1591
3.53798 14.6408 57.9893
3.92577 13.8747 53.0086
3.59203 12.4791 49.4258
3.40335 11.8684 53.4152
3.58051 13.2119 47.0592
3.16105 12.5876 54.6125
3.79596 14.4119 55.0957
3.68134 12.837 53.3146
3.66651 13.1154 43.8133
3.1254 12.4368 53.0021
3.7687 13.2544 56.5179
3.93592 13.5475 54.4147
3.6711 13.8459 53.073
3.48214 14.1627 53.0351
3.63213 13.5514 53.4934
3.58283 12.6062 53.5108
3.70184 13.1338 48.5643
3.3922 12.0353 52.5121
3.59891 13.168 51.6435
3.54719 13.2452 51.4502
3.41502 14.0227 55.8752
3.70126 15.3459 50.8025
3.28632 12.0876 56.4611
3.67561 14.1569 53.8678
3.39966 13.2865 47.294
3.30527 13.6872 53.3513
3.41498 12.6818 53.1486
3.46492 11.4447 46.5304
2.96124 12.3738 48.6037
3.13849 11.9688 54.3574
3.70628 12.7048 50.1892
3.38779 12.6257 49.6718
3.60652 12.8621 48.8164
3.31952 12.5973 50.64
3.38086 13.4999 54.9625
3.80675 12.5052 49.1234
3.25952 13.0373 52.7135
3.57919 13.4172 51.0807
3.39929 13.4757 55.6394
3.80682 12.4216 45.3559
3.25986 13.969 54.3184
3.66825 12.4183 51.709
3.52677 12.2548 49.7258
3.35541 14.1385 49.672
3.52053 10.4982 50.1755
3.45712 13.759 50.7722
3.43971 13.4591 54.4313
3.63872 15.3179 58.2049
3.81077 10.6727 47.5085
3.08808 13.3468 48.5247
3.26093 13.0906 48.8337
3.34974 12.6493 56.9744
4.06501 13.6289 55.9261
3.72274 13.707 52.6261
3.63985 12.5991 52.9624
3.62248 13.8746 61.767
4.37471 13.6177 55.6626
3.96206 14.3945 48.2526
3.60939 14.3961 56.7426
3.86263 14.1625 58.2679
3.86333 13.8435 47.6355
3.2604 13.6911 52.7751
3.58104 12.5109 48.2334
3.38125 12.7389 54.3715
3.87423 13.5805 51.8936
3.53612 12.8386 59.601
4.09228 13.2636 51.7992
3.60743 14.5645 54.4158
3.67842 14.1337 58.2779
4.10363 14.4221 60.0234
4.17995 0 0