# pn-170911/RbIIR-46-NIST-1280-1959.psd
# Power spectrum* (dif=0,1,2) (really just |FT|^2)
# NOTE: only the first half! (symmetric)
# weeks: 1280-1959
# 3 clock-days, 3 excluded
# PSD: 1441
114.678 0.022833 0.00613986
25399.3 1.67261 0.186032
63900.8 1.35339 0.0396235
55153.9 2.84889 0.193769
64818.6 2.96072 0.242349
11417.3 1.71323 0.0572546
12851.9 1.06835 0.0846142
9419.24 0.849718 0.146406
5010.09 0.534575 0.0565968
3582.7 1.07021 0.226295
2617.23 0.827633 0.121369
1197.84 0.258532 0.1057
2702.03 0.774728 0.174928
1605.43 0.18491 0.341396
1213.91 0.112698 0.217774
931.122 0.144926 0.113763
389.429 0.777906 0.171285
1459.98 1.81732 0.112509
1573.49 1.02955 0.21877
1710.21 1.54612 0.0468249
1302.52 1.23999 0.179173
1383.4 0.881181 0.047396
808.76 0.611138 0.0551519
604.088 0.778415 0.207845
207.891 0.801616 0.238604
574.96 0.918101 0.0742548
410.931 0.826514 0.197665
653.099 1.00614 0.351458
413.577 0.626351 0.0442958
321.9 1.11156 0.101922
88.3815 0.927281 0.257703
193.204 1.18815 0.324957
221.505 0.401535 0.0831728
512.561 1.64726 0.0297419
250.347 0.806913 0.11514
345.862 2.28261 0.0432173
346.396 1.62566 0.222967
444.806 2.14219 0.142572
335.395 4.35923 0.0825579
96.1023 1.4822 0.188723
480.863 3.75666 0.399725
980.638 8.43715 0.365501
488.524 2.65063 0.0568082
706.722 3.90249 0.344229
266.26 0.812976 0.0659422
350.854 2.50983 0.245575
97.7328 1.89172 0.091345
212.31 1.42697 0.20592
173.62 0.621996 0.0931171
592.976 5.64851 0.138966
793.077 6.12234 0.416308
413.496 3.78458 0.245016
478.21 6.93406 0.208568
87.6426 1.35631 0.159992
216.862 1.48602 0.440595
298.858 4.90719 0.200699
204.021 2.84427 0.119629
102.62 2.64837 0.283394
416.522 8.38416 0.284907
193.845 4.4826 0.0973807
928.601 13.773 0.479385
162.388 2.43997 0.185076
813.893 12.284 0.294741
72.9528 2.55814 0.166672
136.028 1.7188 0.109686
374.588 4.95433 0.151172
463.974 7.61453 0.385461
204.398 3.7945 0.47095
121.526 2.58751 0.286372
763.319 15.1216 0.43462
348.911 6.36925 0.243641
297.148 9.69292 0.551659
239.255 3.05441 0.233933
217.739 4.49469 0.20261
145.799 5.42347 0.202314
841.694 20.0725 0.694891
28.4036 0.920708 0.0942828
445.188 14.2789 0.213454
124.104 4.9253 0.104212
334.477 8.30928 0.284424
63.5832 4.60902 0.361814
472.043 10.7049 1.03013
129.463 6.75129 0.242361
314.296 7.62451 0.174539
223.578 5.90416 0.481083
165.28 5.61559 0.406734
239.697 8.99155 0.400338
351.916 9.57591 0.569803
423.919 10.8267 0.511749
699.942 19.7976 0.629857
380.767 12.3717 0.461768
156.254 6.30301 0.108616
226.16 6.19525 0.411425
83.1197 3.70074 0.806826
40.0168 1.32528 0.551235
235.352 5.662 0.330272
298.471 13.2912 0.738457
303.411 12.7838 0.960964
199.759 13.1515 0.889009
281.332 11.0046 0.719334
447.888 20.9428 1.43097
142.999 6.67146 0.58883
264.051 10.2545 0.327374
219.901 7.33378 0.716397
173.106 7.54119 0.661686
459.115 21.3963 0.989812
139.359 9.08348 0.627901
114.031 6.24408 0.433937
204.865 8.78607 1.09697
103.452 5.92083 0.535737
203.763 9.53681 0.951895
173.708 8.14554 0.225688
167.742 8.78558 0.448571
159.849 12.6092 0.871659
307.438 19.8647 1.22859
168.497 7.20025 0.595407
202.691 10.7728 0.625567
68.2479 3.182 0.448834
91.1077 5.30921 0.518457
355.504 27.8142 2.07566
687.607 46.6062 2.47181
404.172 21.1808 1.853
232.171 16.5608 1.13978
654.66 44.4686 3.06161
391.21 24.7715 1.60885
432.3 29.7642 1.42464
123.558 11.4592 0.772229
437.523 30.0421 2.59858
294.33 20.0706 1.45326
98.5551 10.2246 0.825102
134.271 10.5896 0.658001
148.858 11.3075 1.14064
151.271 8.77604 0.859012
54.2256 4.23857 1.05945
135.853 10.1057 1.24665
191.843 19.5129 1.21062
90.4652 12.2407 1.27705
192.074 16.2997 2.21506
160.108 9.23341 1.13723
104.163 10.1453 0.80564
202.988 17.3316 1.12293
253.643 23.4034 2.53118
166.824 17.023 1.65111
115.437 12.8341 1.3369
219.221 25.9772 1.71433
136.088 12.7135 0.993508
125.198 16.3695 2.25888
268.806 33.7701 3.22328
18.5266 2.51537 0.9119
186.654 16.2132 1.4631
175.754 20.6156 2.44304
32.8959 4.78337 0.373428
347.421 36.0195 4.42768
49.3354 5.5537 0.649517
204.085 18.3225 1.65441
42.206 7.13 0.994864
111.228 7.78035 1.00445
90.3326 12.4139 0.64607
379.388 39.6324 4.7253
108.201 10.9639 1.17461
390.347 39.6519 5.0339
61.6422 6.31356 1.27987
76.2592 13.5815 2.0184
142.414 19.3351 2.2286
308.889 35.1309 5.13388
226.46 24.8281 2.37315
105.152 16.4581 3.09602
122.613 13.624 1.49558
242.59 35.5539 3.91698
139.305 19.3863 3.09523
602.336 73.0424 10.289
129.598 17.9556 1.58772
347.085 53.3481 7.64265
36.3342 1.98019 0.250569
157.314 16.3653 2.29025
286.989 34.8363 4.54068
126.808 17.8965 2.51104
32.9812 5.36789 1.32412
121.999 20.885 2.24853
31.3567 4.89627 0.443369
125.745 23.8709 3.49228
267.928 33.9146 5.29516
59.6224 10.1833 1.08385
39.6562 7.06896 1.20698
86.6237 11.206 1.9451
277.3 55.4685 9.50398
146.884 22.5586 2.99707
222.373 26.136 3.82189
361.637 54.9848 9.1074
61.5162 10.5653 2.43421
134.952 23.0011 4.51574
81.4644 12.9843 1.72637
210.424 35.1844 5.4866
26.401 6.20206 0.809292
344.233 60.8755 10.5092
44.7297 6.28598 1.19635
56.647 13.995 2.71512
48.317 6.92796 1.26143
179.961 31.3039 5.33086
104.607 20.7416 3.57999
35.421 4.883 1.36681
210.375 38.3484 6.55855
113.611 24.5017 4.42943
70.2412 9.91527 1.60229
125.683 28.7448 5.84137
28.1024 7.32271 1.80305
162.919 30.8141 6.97918
122.785 22.1265 3.11428
52.6586 11.784 2.22123
208.44 54.0666 11.9691
112.969 19.8863 3.86279
111.978 33.4778 8.37066
236.858 47.2404 10.5006
19.3004 8.07658 3.25585
65.1839 9.03392 0.92774
40.3688 11.2601 3.0319
10.1531 4.09492 1.19398
100.769 20.7593 4.27105
132.889 28.9832 4.36222
30.5739 6.05061 1.7447
222.147 57.4591 14.1812
93.3368 17.4021 3.07396
42.1712 12.1053 3.32914
196.052 39.6198 11.0379
117.007 18.8893 5.65274
74.5639 16.1762 4.07625
14.0836 4.77415 0.888347
112.167 20.3144 4.79618
29.1184 7.32475 1.47508
16.3227 4.42042 1.11103
79.112 24.3453 5.66457
13.8528 4.03362 1.0236
30.4931 15.3877 3.8021
63.6883 11.1535 3.0647
95.7655 27.5202 7.38605
118.637 32.3966 9.3503
56.7372 8.19413 2.13838
135.224 43.6658 10.9434
51.0818 8.20952 1.41997
29.5879 7.03789 1.19654
93.3529 20.9458 6.26547
66.4116 21.205 5.40712
42.5147 12.4005 3.76957
147.494 40.4991 10.1419
44.562 16.772 6.64264
100.946 32.8786 11.0634
125.279 26.2226 6.89328
198.196 63.8086 17.6068
92.6364 15.6159 2.54432
163.537 44.1635 12.6546
108.549 34.9981 8.35285
83.6957 21.5349 4.77353
56.945 23.389 7.30341
71.3267 15.9651 6.0121
72.9177 19.3879 7.28786
43.0465 10.1443 3.35223
42.4545 10.5729 2.70635
29.9237 8.48855 2.87796
35.4906 8.21799 3.6729
70.6339 17.7218 5.56627
75.8186 31.3154 10.3303
33.0146 8.75113 2.80588
29.7937 9.34121 2.80606
27.4271 4.58418 1.48381
79.9445 27.804 7.50636
54.4604 12.0345 3.54491
48.7791 20.0214 8.57187
29.383 11.338 3.34573
66.7872 20.7352 8.24349
104.181 29.6322 8.75417
83.1985 33.9239 11.6153
66.7722 20.0902 7.15354
93.824 36.4759 13.1154
98.0083 30.3172 8.66263
32.9781 14.8444 6.26936
38.7184 7.13543 1.47208
28.7725 9.37296 3.55262
22.6038 13.1552 5.71476
43.5415 15.7737 4.85716
12.9079 8.41219 4.71217
121.323 31.4767 11.3529
47.6831 14.0234 7.05591
80.6617 25.3956 7.08212
38.6983 13.1905 6.52909
16.0734 2.37449 0.642746
137.303 41.0499 14.1595
69.1002 24.9436 11.2246
32.4623 11.8179 5.33154
58.3619 22.0056 7.17308
34.8897 14.3755 7.1819
84.0973 36.3349 10.2141
14.4051 10.8475 5.51775
97.8943 32.7028 12.1816
140.32 52.854 19.4032
110.72 47.2678 19.3508
257.186 121.654 47.3343
26.7608 8.82657 4.132
60.406 20.91 10.7838
93.32 29.6623 9.15983
65.3474 29.2796 15.5772
24.0773 10.0612 2.99001
70.3885 34.7629 12.7466
45.5304 16.3019 6.94342
42.9075 16.6935 8.33621
50.0314 20.6696 9.18312
120.012 49.4856 20.2068
40.8582 13.4374 6.46421
43.9891 23.4295 9.18658
61.9255 27.016 8.29367
59.9319 21.558 9.97306
28.7601 20.2775 12.6694
114.783 39.6693 12.8579
51.4638 21.6617 11.6004
36.2179 16.9244 10.1942
105.457 46.0281 17.8289
21.4373 11.7766 7.7181
94.2812 38.1588 12.9026
69.3428 43.6084 23.568
33.2182 14.3979 5.91268
43.8805 11.5783 4.1946
50.7821 23.4471 12.3097
49.9052 23.4386 8.79071
68.4168 37.0396 18.065
68.8579 38.2684 17.1359
48.5837 24.2516 12.1045
45.4143 15.306 7.59609
32.8436 15.3716 7.38875
28.6966 11.8933 4.29737
32.436 19.551 10.1502
20.8221 9.62574 5.4228
18.1391 6.43062 5.14634
78.7406 37.994 15.6181
5.5072 6.7875 6.09755
36.1109 17.9514 8.63789
64.003 25.1497 13.5903
44.1822 25.7698 12.3082
50.9354 19.2599 6.789
39.0048 26.1557 15.232
25.0661 17.0917 11.3794
32.55 12.9726 3.69377
34.6452 18.4451 7.02205
24.9364 19.0448 10.834
91.2946 46.3991 22.3665
18.3674 8.39625 6.85835
64.7454 33.0812 18.7491
52.6608 18.5886 9.94417
60.2057 33.3065 17.5673
61.797 37.1509 22.3225
43.5783 22.817 13.5493
13.8383 6.16529 5.04975
98.2272 56.1139 28.7878
22.8932 28.263 22.5564
67.8672 23.2572 10.2099
36.1255 14.8984 8.90537
28.1048 16.3467 10.002
35.0242 16.8528 7.80175
23.9077 13.0631 8.76634
38.3346 33.1172 25.6393
57.083 20.9778 7.17378
13.5051 12.0755 9.37788
34.7982 16.7043 7.64832
34.1031 17.4708 12.4019
70.6327 30.9394 13.6779
43.1002 26.6075 14.2886
43.5802 30.8414 16.9112
48.8269 38.6627 24.6683
33.5552 18.5642 12.8536
68.9119 32.9749 21.1385
25.8608 13.4778 8.59316
24.149 19.0275 13.9638
21.1516 17.184 13.0679
43.7376 15.621 9.8748
21.5845 8.10567 3.69397
22.477 11.3635 7.91625
53.1271 25.7705 10.7007
34.1013 22.4204 14.6503
3.93332 5.43546 4.66376
45.7822 23.6464 16.3791
59.5975 45.2512 30.5082
31.7581 13.4744 5.29443
31.2034 23.229 13.0544
32.1744 22.0725 17.0367
24.9643 19.2639 15.3646
35.8516 33.2033 26.9641
64.0253 31.786 13.1427
54.0513 33.1672 17.3663
45.1811 44.1332 34.8862
62.7066 29.189 17.5725
25.3012 23.2375 15.9266
23.9569 18.6323 12.9376
42.0656 22.1648 15.9868
13.8736 16.4734 15.5809
21.7399 18.8734 20.2738
87.4938 36.3913 15.5054
38.5024 36.256 27.065
80.3915 46.1939 29.6933
26.7387 14.5658 11.5408
111.709 80.8084 61.7175
73.4776 37.1218 18.1864
15.8287 14.1172 10.6554
15.0435 8.22814 6.69937
16.6349 13.5226 14.1329
83.5497 45.9649 27.4845
10.2626 9.24063 9.61936
30.7985 17.1447 10.2189
13.2946 9.48661 10.3924
35.0031 22.9814 15.9034
20.3791 13.8153 6.52171
35.1331 41.798 37.4185
22.8836 18.6557 16.7809
12.3382 4.6053 4.36055
37.5831 29.7858 20.2956
36.0594 16.3223 8.26311
9.9773 8.36727 6.75958
24.8118 17.0649 12.3694
12.2055 10.0549 14.1052
140.535 106.453 71.3864
11.3076 10.755 10.7392
38.591 30.1106 27.0949
28.8892 18.1488 19.1451
52.2373 31.9119 21.731
85.5568 61.0314 45.2369
14.1145 21.7668 24.0519
47.0802 20.4243 10.3532
14.6806 10.5904 9.06201
21.485 14.8854 15.3648
50.9306 43.3744 33.9834
45.8678 43.2208 37.7949
35.5944 20.4339 18.4068
48.6239 25.6086 12.3987
63.9471 43.7636 31.3503
11.6101 11.8149 12.0582
20.6271 13.3403 10.6961
9.74921 4.64231 7.96355
57.6381 43.2365 32.0289
31.4604 30.3873 31.6561
11.9879 7.52616 3.73735
16.7953 19.7434 14.837
16.4324 30.1226 39.8123
53.2405 28.2638 18.1542
59.8037 42.4996 25.2081
13.1965 17.0332 17.6047
31.6352 30.9568 23.6969
18.8646 22.6283 28.35
10.7852 2.70138 8.06815
74.1302 54.5614 31.9067
26.771 22.4108 17.1632
52.9899 47.4281 41.2335
16.4391 16.7271 19.7531
55.2418 46.5541 31.0193
11.4052 8.85544 8.39635
21.8051 21.6071 21.7717
46.2045 36.7805 33.7969
17.0818 15.27 14.7259
20.1195 11.3369 7.81156
52.1743 43.9641 39.4067
21.2002 17.2355 19.0045
16.22 13.009 9.73531
13.5934 12.1317 12.694
19.1631 28.7571 34.7046
46.7944 39.2303 38.8741
48.0071 31.7173 25.5848
31.3393 25.3114 27.9096
44.735 33.2303 21.5447
38.1658 35.3121 31.9107
28.904 26.9059 27.6852
23.3703 17.1969 12.4855
11.8937 8.14365 7.60864
25.4937 22.5239 22.9759
52.3821 68.5208 71.5162
39.3007 18.2498 10.2205
19.5407 18.5937 13.2603
33.3063 26.5057 23.4968
32.9857 33.6987 33.7146
27.2324 28.9704 37.8659
26.3884 23.0271 14.1351
7.71123 14.2553 24.528
42.2721 50.4397 40.2267
19.8295 23.2333 31.0324
34.0065 38.1605 45.3958
44.249 32.3807 28.029
21.9714 18.0106 12.8701
29.7332 18.9265 12.5479
23.6982 21.4848 15.3924
32.137 43.6259 50.8784
5.80459 1.95968 6.83433
26.4555 30.2042 34.0628
19.673 18.2556 20.181
62.9191 73.3533 63.3558
9.10407 7.09274 10.0703
10.177 8.59502 9.20084
9.14769 8.17564 12.9567
19.1672 22.0533 28.1271
60.6147 55.8147 52.6795
33.7562 32.1711 25.9703
46.2927 70.4757 75.9498
25.3361 21.5965 18.2207
57.5203 64.0147 61.2851
32.9161 41.9591 46.7122
14.4141 9.96488 7.61931
8.47669 4.17275 6.11621
44.3664 38.0936 32.6287
21.1099 26.2041 26.3873
14.6352 30.4394 56.4268
48.1078 38.4847 28.998
6.48116 9.57197 9.69973
13.792 12.2762 7.34585
13.6228 18.3032 24.1958
28.5019 46.9346 53.9602
9.01842 4.91496 12.3676
40.3073 33.8556 27.0607
20.8164 28.9859 30.9804
11.7075 19.7808 27.3045
5.62008 7.21964 21.8532
62.4327 59.4013 50.8685
30.8495 36.0565 38.6854
7.3884 12.2173 15.2426
26.2804 28.7928 36.9638
23.8101 24.3855 31.695
10.4295 14.5004 33.5026
48.0442 37.4042 25.0319
31.3509 43.7697 53.0475
14.8268 18.9136 36.7676
24.4865 33.1631 35.6942
13.483 9.04879 7.14187
25.3474 30.4139 41.3401
13.4088 11.3613 6.79752
17.7912 24.9219 29.0428
21.4585 30.5753 31.4457
15.8519 21.459 28.2176
30.6181 37.2079 35.157
39.9466 62.2368 72.912
50.6313 74.379 97.676
29.7974 18.5162 23.5387
21.4717 14.2869 12.4545
8.22088 9.8488 12.4539
35.437 39.7227 45.3588
12.8399 18.6324 34.1446
14.9934 7.53935 6.24957
50.4115 55.577 58.2772
16.418 26.5273 47.0237
29.9878 20.8976 14.6453
42.2385 58.5858 78.1003
14.2358 15.4467 20.1943
2.83236 2.84252 3.10011
8.44551 18.4076 30.3597
18.625 28.2764 47.8022
55.1277 61.1629 74.9695
40.1089 44.5783 56.1426
16.5909 18.5511 21.0986
17.0201 15.3434 14.4218
21.0613 29.5815 41.8334
23.1242 18.5792 15.7036
22.779 31.7971 43.5607
25.8983 24.2422 28.9277
22.5071 33.0812 39.3277
14.5698 21.8152 24.6781
17.1263 39.7766 55.3809
11.9222 8.71458 14.8118
14.8323 15.8268 16.2383
6.54796 13.7211 20.2399
7.90729 9.72593 19.5948
12.0461 19.1467 23.3517
16.4587 14.5898 20.5888
16.1437 28.1709 45.442
29.4366 32.8227 32.4448
8.60783 4.39168 12.9313
36.4596 41.9968 36.6711
20.0571 32.6544 36.4773
21.3959 51.1867 89.1649
28.4029 45.6733 69.8738
23.4644 22.2243 44.6772
25.0126 12.2763 14.317
55.0253 64.3745 68.9955
9.2308 12.3415 15.6703
8.21054 15.4032 43.6004
51.8049 47.9505 36.4316
4.73312 10.4443 18.0437
9.2199 8.46765 9.15823
18.7328 25.319 32.1584
12.3708 19.0142 35.6316
13.7597 15.0207 21.285
17.9976 31.1188 37.7762
10.5658 27.5157 60.1057
27.8977 26.1127 31.7518
19.4021 26.4836 31.4391
16.8438 32.2177 59.3115
27.8465 28.8352 33.3047
14.5438 12.9161 8.67809
5.99223 10.146 12.8404
1.17519 4.65251 14.7681
9.8208 17.5489 39.1844
43.1648 61.8011 75.6663
12.3049 13.0238 14.549
6.30333 26.0442 58.2402
23.1143 11.526 6.39858
22.9519 31.5611 31.8604
10.0687 18.2186 24.5614
5.60345 11.0988 19.392
7.75614 23.929 50.5539
29.501 37.502 42.0434
30.1067 32.4834 31.1956
13.212 12.8695 11.2335
13.2227 21.7161 31.2739
17.7638 35.562 59.7168
12.2211 18.8872 35.2264
25.7381 35.248 54.7612
19.0185 16.7866 21.4975
17.507 28.8894 51.5327
17.7285 14.8251 14.9754
18.1884 31.9658 37.1172
8.31562 21.931 28.8272
6.75194 24.1141 57.9165
12.4131 22.4046 52.0291
21.8152 17.4886 24.3389
17.542 13.9195 8.78534
26.056 38.0965 39.6134
12.2203 37.779 87.4711
13.1548 8.76079 26.9658
25.3757 30.2933 31.8414
15.707 35.6852 60.1554
26.7665 55.7465 93.2931
28.9072 29.5757 28.7993
5.94088 12.7188 30.5648
12.5827 10.9888 14.271
9.2009 10.6035 12.0855
13.5218 26.2773 41.4009
15.5432 19.8296 24.2619
5.35988 7.75058 18.7069
8.13291 24.0822 43.4247
13.9229 11.2038 16.4627
4.5853 4.88848 17.0282
34.1808 63.499 80.3093
21.6366 42.7561 74.6622
8.03259 8.93083 28.3931
12.129 16.0204 13.2875
7.08957 20.5201 45.9985
28.0487 45.0961 88.0023
28.2387 28.376 26.4317
11.3022 16.3106 24.2756
9.06147 11.3703 13.0795
4.19608 7.19968 17.0021
10.1087 30.2505 49.3659
10.8396 12.5807 30.1864
8.23163 3.28408 28.0409
48.3831 56.9269 45.5965
23.3743 54.7937 89.9892
10.7169 19.0487 39.9262
8.34433 8.76861 10.5165
13.2886 36.2452 64.4619
7.36142 15.7091 36.2337
20.7812 32.8725 57.9324
10.627 18.0188 29.3814
4.21042 9.02294 20.571
10.0104 26.5071 52.8498
6.69781 7.06333 41.5634
28.8254 33.4708 26.8272
11.6782 23.3178 66.9732
35.9012 60.0717 92.2783
28.1189 36.9712 50.2964
22.3304 41.105 65.8551
12.5432 31.3083 52.0301
8.42421 7.08038 20.5979
18.4675 25.8353 33.8515
8.24232 15.0799 30.0336
15.5424 14.2901 19.1991
6.17738 5.86763 16.862
24.5028 44.7269 71.513
11.7579 20.2285 25.5791
7.22352 22.0132 54.2434
9.82432 18.4686 46.0082
37.4138 88.2607 182.023
50.3697 91.5569 152.723
27.1607 23.4796 28.655
4.38149 14.4801 51.7841
22.3056 12.6807 3.2163
12.9223 22.1063 37.5403
18.8496 24.9114 35.1707
5.83249 5.71188 13.6365
13.6508 14.9606 16.6868
16.9292 28.1161 32.5858
10.4595 25.4291 50.4924
9.78306 10.026 9.21198
15.4356 32.6492 66.1485
7.8805 13.6527 32.396
12.4369 27.1275 44.7202
9.98407 17.0839 31.841
16.087 18.6877 24.8215
12.0172 23.5757 54.2116
23.0903 54.9121 106.797
7.65521 16.9609 54.8678
15.823 9.25751 7.91386
7.60122 6.11823 11.1111
9.36322 11.7456 21.4175
12.0225 22.6066 29.8465
9.31118 20.8083 48.4188
28.2842 40.2419 46.4372
3.01789 19.7064 57.7498
22.1392 70.9446 187.931
33.0465 46.5384 56.6166
8.82445 14.286 27.685
8.42826 9.74471 24.0864
13.2386 18.9754 19.8436
8.30371 22.8756 37.6663
8.6592 14.3023 27.041
4.30353 12.5996 19.6517
4.55061 6.42816 12.1599
4.74817 7.83495 15.1673
8.1555 13.9217 15.136
4.98157 15.4315 52.7643
13.0859 34.9275 59.6358
9.85063 14.7857 49.4821
19.0037 38.656 64.9157
5.16206 3.73964 7.33445
10.157 14.6698 22.9506
18.0382 39.2736 88.0316
16.9208 34.0326 39.6935
5.57477 21.9047 49.6671
14.5908 23.0662 47.599
16.7653 38.4232 70.164
19.6193 36.92 67.1894
8.30939 19.6091 30.8616
4.8545 16.0042 32.6432
9.14148 36.4855 92.0403
10.7826 5.36964 16.3889
12.1794 21.2691 49.5815
12.8166 13.0834 8.99089
6.19428 9.84938 15.4264
7.30336 16.9412 49.1928
4.04335 7.2007 20.377
10.6667 23.8065 52.0288
8.43091 13.2637 37.6312
19.3426 19.6553 21.6375
7.80985 15.0591 20.1592
16.4227 41.0205 74.1093
6.83594 16.3293 43.9959
9.20179 25.0972 67.1956
11.8434 15.9209 13.0041
3.11194 12.0703 28.0888
6.92454 24.2298 62.8477
14.8714 24.0089 63.8215
12.2672 20.9624 24.4139
9.17315 31.8088 77.8006
15.9691 23.5883 32.7392
5.28028 17.532 42.9628
14.666 26.2417 51.3098
16.6249 30.5883 65.8792
5.74904 11.7908 63.3279
30.7748 62.8653 101.207
11.2274 16.0113 20.7592
14.389 55.6447 121.083
19.2483 26.1331 38.062
5.14219 13.7683 36.3468
11.2759 20.9334 51.5436
7.79814 12.7034 18.2898
18.5627 53.5302 120.801
6.12448 6.311 16.1179
4.43538 20.562 68.8489
8.8672 13.696 77.8828
21.5573 23.9247 11.3637
5.60869 12.7419 18.5703
8.33202 18.8127 26.7127
1.59371 9.03653 37.162
14.5231 28.8046 61.196
8.64545 16.104 46.6157
10.7245 13.6784 27.0092
16.8417 26.5084 44.0989
8.41367 18.0103 22.0995
1.87408 4.57913 19.8226
3.63759 8.44563 16.6402
13.5614 34.1922 56.8015
17.3391 37.8076 99.4036
9.57302 15.2008 22.9562
1.76463 7.0591 15.8351
3.08475 18.9349 64.2889
12.5365 27.9865 58.8063
5.03302 7.07277 25.949
3.64845 8.33722 26.0844
8.88021 15.4116 44.9861
8.67885 14.8534 19.5506
7.13568 11.5819 20.8776
4.40512 6.16492 23.8611
7.90715 13.0085 19.6726
4.19559 11.709 29.3118
6.90273 19.0374 47.5974
7.54907 22.5061 72.8701
7.22935 6.90209 24.8011
10.8988 19.6935 26.0976
2.75489 2.33635 13.1321
7.86302 19.2721 41.1762
8.01838 18.5806 27.3611
1.58158 3.82351 12.3417
4.83522 10.1472 20.501
3.20407 12.6363 66.6031
14.3862 40.8055 62.4114
6.53995 17.933 64.5818
17.5091 34.9208 57.3135
3.57302 4.43302 27.5338
9.73065 17.2441 33.9406
8.06935 23.0195 45.7655
6.79683 11.6284 19.1099
5.41346 7.52044 9.00884
1.83627 2.99008 7.81791
1.99346 12.1371 47.012
7.19456 11.6695 17.3268
5.19298 13.4002 18.2155
3.5927 22.6337 55.7332
4.54207 13.1742 24.9938
3.41933 14.6593 58.8359
14.0856 24.2506 45.4808
9.22573 20.9031 37.0918
2.1218 15.8214 46.5358
4.69377 6.61586 44.3366
10.0857 8.49281 22.2981
11.6091 27.7409 61.9884
9.5534 30.667 71.4884
11.4249 12.5174 13.1651
4.26085 8.3928 25.5517
4.3563 8.96261 14.3703
3.47329 8.59678 26.4801
9.45905 26.2948 73.2466
16.2699 30.0785 43.4106
5.09476 17.3685 59.1104
6.31229 5.55847 10.8693
6.24014 14.8626 32.5637
3.79857 3.96269 14.1419
2.84254 7.32515 14.703
7.36737 28.0228 78.4859
13.7494 23.3345 25.246
0.706728 14.3267 57.0781
5.82726 8.82153 63.0493
23.015 44.7838 68.3562
3.21139 7.07325 38.1066
7.67637 16.9483 41.7339
11.0781 18.0509 28.6464
8.09937 26.7921 59.3934
12.4192 38.392 81.065
5.08862 6.77852 24.5776
5.35821 18.2666 53.368
8.90749 13.8635 49.0242
9.8682 16.1952 36.0673
6.43334 11.0889 8.39058
2.32244 24.9315 101.023
12.8437 19.4188 30.6855
9.07589 12.8698 27.3233
4.40532 11.493 35.1177
13.0078 41.1107 90.9695
11.5254 28.191 58.9736
6.09589 10.9475 16.2479
3.72347 17.5216 42.2204
2.77994 3.50582 22.1961
14.711 42.6569 81.8362
3.7118 6.37227 27.7899
5.09959 9.1055 29.5387
6.26393 7.86349 15.5323
2.25485 11.4497 51.9892
9.63362 16.9984 28.1058
7.48783 10.0411 25.3226
7.07555 30.615 66.9138
5.95856 11.7804 47.8755
6.60817 12.8392 50.4291
8.91187 33.4412 81.8651
7.62963 18.8478 60.7921
5.43064 8.14463 76.89
20.6624 45.2047 39.3762
2.8486 14.9747 26.3389
1.95266 7.60175 23.9174
5.45245 20.2143 55.9829
8.58002 25.5175 55.1317
3.90377 13.8116 50.7382
8.32482 17.1234 30.047
4.22854 10.5817 60.8273
12.0896 20.1444 40.7613
7.94334 12.7774 23.8323
3.71383 10.8544 37.1599
3.29308 6.56135 18.9421
8.19865 17.3077 25.1801
3.67704 10.4151 37.7015
7.53757 25.0247 42.853
5.69065 13.1586 40.1967
5.21448 23.458 65.739
8.14166 16.2525 22.8786
1.53545 10.7878 28.1046
5.58445 21.9553 52.4172
6.12689 10.602 30.8351
1.52082 4.35581 37.8021
5.51795 13.493 32.544
7.49172 20.4203 44.3182
4.26422 14.7878 57.9462
5.27979 14.2502 52.2791
4.98561 9.40411 23.22
6.59207 25.6812 55.8829
5.2974 16.0749 50.4343
7.74286 14.9681 57.2156
6.19189 10.8469 49.3027
13.8724 25.9128 43.6577
5.80864 16.2384 55.9795
8.43841 18.3147 46.4286
3.85498 9.07661 37.3151
6.08589 27.3959 95.2255
8.76182 11.3539 40.6106
7.49838 22.3257 65.4622
8.46899 25.4186 54.4244
7.49326 20.0939 40.5763
3.27954 9.91355 48.9222
7.9052 23.4996 73.4605
11.0187 12.1355 9.45806
1.23704 7.59537 43.8909
6.32498 11.7725 16.8219
4.98838 13.1861 37.1917
8.23248 22.3546 57.4606
8.11274 18.5887 33.7882
5.42428 14.976 42.4228
5.86084 13.0291 59.1407
11.5438 27.1261 57.1326
5.2275 13.2331 30.3227
3.38515 8.50175 34.1366
7.62847 34.3174 104.888
4.74399 12.6144 27.8016
2.29786 3.13282 21.0013
5.46862 14.9402 46.2706
6.65395 9.52705 6.83286
1.83771 7.54887 24.6723
3.26534 5.56098 9.89665
1.87351 12.2894 29.3763
2.06038 5.41904 25.6449
3.5852 7.0288 15.672
4.34619 23.0174 77.0464
8.61095 14.28 23.704
1.87456 3.75482 17.9036
1.29349 10.3943 61.2651
11.5325 12.3964 7.3839
2.42479 12.5376 55.6129
4.16587 4.72236 30.5805
4.0356 7.08048 6.9568
2.94355 8.5847 13.5127
1.08406 13.4688 53.475
10.0138 19.4865 62.6058
9.75919 20.1043 61.0968
9.55809 20.8826 48.2188
10.6727 30.6205 58.7069
7.26861 20.3623 60.3408
4.27479 7.02287 26.0659
2.30566 14.0638 55.4216
6.24839 28.934 94.1001
11.7739 16.4762 22.0101
1.23333 10.2855 42.4928
4.51285 7.10577 37.967
8.84386 35.2373 95.3456
7.86279 4.84069 31.6707
11.0334 30.6044 76.9835
5.25613 8.21382 23.3665
5.30738 20.2045 63.0194
10.0841 22.8081 56.4579
6.02159 9.9624 45.6887
10.9994 20.7893 29.5195
2.49174 18.282 80.3619
7.30679 11.3079 21.0834
2.23559 11.3558 57.4273
2.69626 5.73596 67.5022
17.952 56.4311 71.0205
2.07783 11.9438 33.3217
0.970818 4.79061 33.1444
2.92089 10.6507 44.462
5.83802 10.1761 52.4875
6.51204 21.1381 40.5383
2.74363 13.0984 62.9719
10.0809 17.6145 37.6197
7.93225 37.2126 76.4036
3.07085 8.41827 44.9443
5.69059 12.9796 30.1684
1.41413 1.99002 23.784
3.80371 7.1785 36.9233
10.8566 36.809 98.8709
7.2255 21.6568 100.945
11.1641 15.4241 31.506
11.3427 46.2981 138.535
7.40767 12.7881 26.3917
2.02204 2.16355 19.6776
5.77215 32.3613 80.5999
6.38247 22.9199 93.4489
15.3821 29.433 109.271
12.5256 21.8531 37.1606
3.03268 10.3969 60.3202
7.56408 7.31361 16.8483
4.74918 5.81061 7.60087
7.93068 26.8347 36.1634
2.36816 6.40297 19.2981
1.7708 9.15722 35.7584
1.80882 4.48805 21.1704
3.13738 13.5195 37.7181
5.86066 11.1128 26.4902
3.70166 18.5668 54.2913
3.4486 10.8102 70.4556
10.9987 13.2388 25.6458
2.30227 3.43307 15.1647
4.2649 14.071 54.584
5.00989 4.41171 25.558
8.23509 21.4484 30.9745
1.50132 10.5819 32.2507
1.06457 4.11174 40.1068
5.88241 9.28749 23.7799
5.3519 21.5447 58.1767
5.1017 22.6315 60.9614
5.93208 16.0233 78.7374
7.91814 24.331 51.1702
3.8823 10.8221 43.2951
5.42649 19.7213 96.9359
7.41201 23.041 46.2188
5.83885 22.2157 97.2609
8.86335 12.3884 23.0739
9.60698 48.8888 129.469
9.65087 27.424 80.1383
5.72841 19.3597 49.1433
4.96385 13.9082 48.7047
8.88267 31.4462 73.4348
6.08105 47.2071 137.694
9.03669 37.4513 272.013
20.5296 43.1606 140.166
12.8903 19.4072 35.8721
4.71951 7.97105 45.8719
8.82413 6.59253 8.2397
5.02831 10.5292 31.3328
7.03221 18.315 40.2667
6.70653 16.2859 32.4163
3.10515 6.71713 17.0813
3.85897 15.4029 55.8926
6.28186 8.57244 20.5447
0.481723 1.40965 14.9461
1.53421 3.87927 20.1791
3.68059 10.0141 21.814
2.43256 7.03712 62.564
10.8621 30.933 55.3792
3.9324 12.3269 48.5417
8.18595 18.6993 41.7647
3.89779 17.9941 36.0135
1.27918 5.30214 50.7157
8.22241 39.3076 121.085
8.75405 18.849 48.6858
3.37712 6.79744 39.4741
3.82826 18.7724 30.9011
1.95277 10.557 47.2549
4.88718 11.9688 20.8942
2.27198 8.98788 31.2399
2.88271 8.80366 40.0187
5.24378 22.5878 132.481
12.9072 19.7244 22.5375
3.03703 13.9344 22.4991
7.55529 32.9557 112.97
8.38476 12.8162 9.9467
1.66885 26.5174 96.0846
7.16519 17.5691 109.985
8.36413 9.01359 121.177
18.7209 74.1449 138.068
10.9515 25.5163 86.056
4.40833 4.63645 56.9933
10.4819 15.5313 26.5771
4.77411 16.3501 65.1838
11.1601 29.2295 78.2017
8.01987 23.2125 72.1006
6.44897 11.0183 13.7584
1.68578 7.3106 30.9258
4.08831 8.58767 74.0798
9.06177 27.1343 56.1713
7.79204 21.0512 39.1418
7.03421 36.1341 109.2
4.73058 9.32987 49.6653
4.26768 7.62135 27.324
2.49504 4.58518 4.99029
1.26637 4.85206 16.3875
2.72834 7.02844 21.9929
2.21608 7.25796 35.7186
3.83034 11.3026 51.4448
4.50334 12.0248 7.18399
3.31353 15.5146 41.0079
1.72029 5.80222 18.4823
1.98088 21.4819 80.8676
3.53671 3.02015 40.7471
2.74657 7.1147 18.7064
3.00149 14.0872 41.1884
4.3993 7.25941 24.0556
4.85423 7.98499 18.9473
2.47219 20.2362 77.2944
6.8715 13.881 38.4415
3.88774 5.72664 16.3401
1.35772 5.90063 15.4781
2.32049 13.7623 47.2579
5.95651 12.7811 37.3008
3.58202 8.76136 40.9764
3.36612 5.71365 63.4686
10.5542 43.8206 100.984
6.50839 26.6919 60.8454
3.3321 11.0162 60.5521
6.1869 15.9826 67.1451
7.9108 33.6868 58.8743
1.64998 4.74917 22.232
4.09129 27.0995 86.5577
9.51866 65.0591 302.39
23.5928 28.6607 66.5175
4.49397 9.15071 71.006
5.87722 14.8021 15.5789
2.50696 12.136 27.9372
3.94988 8.83928 14.9175
1.06571 15.8959 92.6808
8.08406 9.74795 13.7674
1.19028 9.07262 45.7883
6.22951 8.03902 6.98282
0.892649 4.2113 17.3454
2.10777 9.87391 52.0485
6.83009 18.5247 25.1107
2.92291 19.1458 60.5605
2.35781 11.9685 86.4784
8.05527 7.01707 46.57
6.27174 10.7065 18.2966
2.60762 22.3922 105.754
10.4551 23.159 67.6573
3.98885 17.4536 43.1785
3.75376 7.62609 24.2029
1.49523 8.16821 47.045
7.04902 12.7902 39.5545
3.44988 12.7524 40.7427
3.39696 12.0491 42.1426
2.9941 9.28651 35.3503
4.84928 6.14892 30.195
4.45584 13.1566 64.2995
4.52474 8.01655 48.841
4.39314 16.6047 18.8021
2.93243 20.7494 99.1674
12.9533 29.115 54.0551
2.86268 7.53482 32.6189
4.31643 19.3235 47.4644
3.75516 4.89003 22.5288
1.14142 6.07711 56.7251
6.73478 28.1455 81.1558
4.54352 14.8505 83.5472
4.91562 10.5823 56.3693
7.49524 26.0787 34.8248
2.64602 9.85639 31.4707
2.07952 6.78618 54.6942
4.23069 9.72604 25.9994
2.54081 6.80388 31.5636
3.27832 8.75107 32.6507
5.1584 8.66985 37.0017
3.64179 21.6788 45.1509
2.2481 7.68446 61.9998
3.15988 9.69346 25.2985
1.45119 5.26725 34.4881
2.88929 12.5307 85.1041
6.86594 24.7767 54.3356
2.65581 13.3025 70.1466
5.17754 8.26129 47.8148
5.05147 7.29884 72.8669
9.47475 26.2962 39.4929
1.98106 4.65704 35.2833
5.66823 29.0321 52.6634
4.01516 6.43071 20.9891
2.33904 10.5144 35.0475
2.1983 11.9498 40.465
3.52148 9.80179 14.5985
2.69671 17.0988 83.9733
6.40132 25.3053 54.3677
2.6306 6.14843 8.98958
1.09122 2.10227 4.77336
2.02204 21.4465 74.7894
3.77784 12.7663 64.4618
5.37955 15.2469 42.5878
3.39277 8.0053 18.4198
1.97032 10.1664 40.8069
3.89871 8.69901 46.4209
6.38198 7.67574 22.4924
2.89434 7.12766 12.4343
1.63905 11.402 26.1974
1.72831 8.54147 67.5259
5.01294 12.2361 45.5377
2.90752 9.19512 70.8474
5.36664 11.9038 23.5511
2.96439 9.7512 17.7073
1.91849 7.39836 51.3525
6.16055 15.69 20.3559
2.30805 6.85977 23.4381
2.42557 16.4827 51.4759
1.86441 6.71522 65.9828
6.38398 6.23008 11.2717
2.78828 11.2505 13.9664
1.95684 19.5162 79.8341
3.82941 7.92918 43.0017
2.42999 5.21622 25.7031
1.72651 11.2165 64.5149
4.78918 12.7247 64.8846
6.84971 16.9001 26.1783
1.90769 16.8689 44.697
4.90663 10.2571 44.1386
5.73112 11.5675 35.6945
2.70522 8.74105 36.4245
1.6985 14.7653 32.5352
4.52768 7.24316 31.6671
1.91754 18.2441 43.5975
2.42229 7.10488 55.0665
2.81938 6.88179 79.5597
6.46396 24.2618 23.7726
0.684587 8.77895 79.2609
7.14176 5.05832 16.0317
3.14936 23.4282 70.1504
5.22291 5.99846 29.1665
2.50842 16.9229 55.8344
4.08836 7.30128 95.0217
8.7713 25.4395 41.2491
2.53196 8.41377 57.9534
7.64711 9.28014 64.0583
10.9077 39.9212 82.9949
4.48321 4.95414 38.9896
3.72316 12.4729 25.822
3.55688 10.0522 22.8626
3.77124 24.084 52.7647
2.08851 5.85168 21.0708
1.31419 7.92022 42.6349
3.83571 16.4011 37.8368
2.18364 8.96613 24.6157
1.75357 7.68899 32.1008
1.72806 3.88411 33.7618
1.25048 6.03572 32.8741
1.31264 2.77954 34.4601
3.35942 9.17827 52.0043
3.85041 11.2174 35.9527
2.2345 6.45905 16.2373
0.889088 11.5928 32.0325
2.28532 8.56458 44.1116
2.96037 2.26422 23.4565
2.08785 13.6091 34.679
2.57864 6.05994 12.6135
1.73053 12.5121 58.9026
3.84644 4.70897 10.9165
1.12246 5.84538 21.1329
1.04224 13.1225 70.819
6.00127 8.00532 31.6512
3.04295 16.3947 58.1056
6.88906 16.1318 27.4768
1.58233 15.7385 73.7371
2.13078 5.66451 35.9849
3.91753 20.0395 57.9614
4.83356 6.31856 16.5262
1.94876 7.60021 48.0849
2.99769 4.15858 38.6572
3.57166 11.9468 26.722
1.29333 8.19329 15.0054
2.10774 9.2069 37.5926
2.03653 9.08698 36.393
2.71315 11.0773 130.886
13.4875 31.4775 43.3469
1.92303 3.11724 22.4421
2.37777 17.5221 67.8425
3.77551 9.25683 22.5998
2.40851 14.6741 118.569
12.5492 22.3045 18.8704
2.35302 12.5442 52.8841
4.72578 13.129 16.0659
1.16239 7.23919 36.0253
2.32401 8.31303 67.7064
4.1404 16.7929 58.1662
4.32488 10.7573 17.5278
0.785383 3.47146 61.4543
2.58441 9.50228 39.4785
5.45821 29.8569 101.094
4.18328 10.9593 35.7404
2.22363 21.0779 94.7165
7.65531 16.6039 47.0266
3.97594 0.81714 22.2301
3.59165 9.26491 16.1353
1.15096 6.21395 43.9762
3.21138 22.1844 60.645
5.10956 14.4726 87.8724
6.33096 9.20621 23.786
2.59728 18.4518 92.2941
6.64129 20.7504 39.5044
2.16781 14.9102 42.1037
3.07396 12.4842 64.8813
5.47253 17.1052 86.1595
5.10695 15.1449 40.5798
1.97884 6.90139 52.4799
5.06933 17.488 40.343
3.51797 13.4345 78.6927
7.31416 20.9698 72.9419
4.51918 13.9871 37.9035
2.43595 13.1825 70.8787
6.4263 10.968 15.6827
1.67231 5.57098 27.7573
1.99059 5.35009 9.65308
0.512792 8.59436 29.9596
1.93506 4.73038 27.1651
3.60865 5.98601 44.0277
4.10965 11.3405 23.1118
2.57684 3.11613 15.901
1.82697 9.41351 37.8611
2.98053 9.75549 19.7124
0.798177 3.17632 14.6279
1.1697 7.11296 37.7663
3.4212 12.5472 89.9579
8.18562 9.51376 18.2516
0.815008 6.93351 15.0214
1.81086 6.85459 58.8175
5.39327 27.8894 92.0348
3.45259 8.35145 43.6768
2.69172 22.9101 93.3351
8.7435 16.5656 31.0238
1.50624 8.98566 56.0773
2.19553 9.36025 43.8476
2.38794 17.5765 57.757
4.72575 4.53731 9.82077
1.09354 6.4362 43.059
2.99091 11.8535 47.5465
2.89499 10.2016 47.1249
6.12689 8.34496 34.9879
4.7258 16.4705 58.3244
3.79871 13.0162 27.2768
2.4022 11.5983 34.1193
0.977881 3.77412 68.3671
3.26613 22.5608 50.3069
4.48838 18.1496 80.4578
4.16304 8.25923 18.8055
2.40872 11.3352 81.1658
7.09062 17.3823 38.733
2.19426 8.93025 28.6714
3.20363 2.01251 13.2966
1.78771 10.036 22.1483
3.46692 16.386 97.5812
6.93819 10.2895 8.78487
0.910284 6.11531 15.2765
2.08124 14.348 88.6812
7.50504 10.7619 15.6749
1.2904 13.7795 26.4695
1.78551 11.4794 48.5508
3.14633 5.11299 21.0372
1.8781 23.5649 89.5012
6.03156 7.59635 38.3395
3.72952 18.1287 38.7618
1.9501 10.9518 38.7672
3.05203 15.4608 79.2156
5.41946 3.90172 74.2895
7.08995 9.08544 36.1085
4.56663 15.1161 88.3129
5.67231 17.3678 21.9807
1.83956 9.61809 54.2941
4.37381 4.93667 16.2429
0.508404 11.851 88.2793
5.96556 11.4206 82.2152
3.68325 12.2922 83.5948
4.28955 26.2852 68.199
5.70347 16.2639 119.207
8.20656 27.5872 27.813
1.64581 7.16754 24.8348
2.32597 20.6638 30.7423
1.82297 3.48232 72.323
7.23636 18.8811 21.3878
1.31395 8.89215 28.8267
2.27019 10.7892 52.3678
2.05715 7.61102 58.7697
2.41521 15.2304 74.3277
5.9199 25.2046 85.3109
3.69157 11.6162 73.899
4.10501 19.8819 53.784
1.82087 22.7631 103.02
9.93952 10.9509 42.3275
3.01885 9.05299 16.5532
2.29103 11.1058 87.5565
6.44574 12.9701 9.0936
0.745026 7.18581 16.6527
1.38172 12.2006 65.3719
4.66339 5.42259 44.196
5.13941 23.7203 53.6567
1.12887 7.46223 15.057
1.10645 0.161238 8.96668
0.258218 17.0762 109.659
6.08553 10.1295 115.315
8.44668 25.5588 13.838
1.18893 4.974 23.2386
1.90487 3.83507 47.3828
3.88243 26.0782 64.9173
2.24194 12.6508 32.5601
0.418926 10.7088 52.0716
4.43714 24.7344 162.157
11.5208 33.9877 41.8496
2.83442 6.87916 48.6584
2.06382 11.7397 37.8307
3.40816 5.86447 27.8913
2.08016 11.0249 27.7539
1.30233 6.82173 33.7831
1.37707 9.19799 32.4623
3.19141 1.18868 23.5945
3.25452 12.2745 46.2891
2.84595 7.02794 74.9104
3.06257 8.3606 12.898
0.795646 11.7966 23.8413
2.58619 5.86251 87.7915
6.36949 24.0587 44.6401
2.83374 7.11208 10.1863
1.55362 11.6243 98.5299
6.14917 16.8728 34.2602
3.65737 13.1043 22.8629
1.18495 8.44496 51.1429
2.23283 7.88727 5.5258
0.775711 3.0693 8.4268
1.26992 2.73877 23.0442
2.65248 13.4307 54.7314
5.88312 14.0919 31.6085
1.41831 5.86798 22.5694
1.36736 8.15355 48.8712
2.82731 15.4599 26.8817
1.98361 6.92912 37.2132
4.84936 15.5893 64.5469
4.67889 26.7999 187.941
13.4106 19.1594 26.2192
1.73841 15.3616 59.2178
4.35952 7.06025 66.3213
7.16811 13.4102 47.5945
4.80824 21.5747 21.6395
1.22722 7.76246 66.3524
3.95509 12.745 56.6792
4.51854 16.8743 22.2587
3.37179 7.57844 21.9821
2.71579 7.40342 45.6404
2.32627 3.46057 17.4798
1.97366 22.6074 85.1263
4.37126 18.5004 46.6663
1.58788 1.33264 80.1442
4.58956 22.0846 55.0302
4.28121 12.1981 47.8683
3.77723 17.5123 122.78
8.46522 21.461 24.9504
1.54538 5.02884 31.9877
2.35262 8.4746 39.5055
3.17999 15.8006 45.7659
4.50285 1.58881 25.948
1.30212 3.36188 23.6936
1.65521 16.6446 41.9989
3.10214 12.0118 107.758
7.84309 28.4636 44.9719
1.75932 6.64553 82.7716
5.26245 27.4109 57.1871
3.25101 5.40559 34.1649
1.61579 43.5256 355.441
17.2199 0 0