# pn-170911/RbIIF-71-RbIIR-1280-1959.psd
# Power spectrum* (dif=0,1,2) (really just |FT|^2)
# NOTE: only the first half! (symmetric)
# weeks: 1280-1959
# 800 clock-days, 11 excluded
# PSD: 1441
608.62 0.0604037 0.0209377
37899.5 0.519291 0.0137146
170426 3.67363 0.014009
26304.8 1.08365 0.0137232
122958 9.6938 0.0136776
8403.79 0.765861 0.0136908
9089.31 1.49937 0.0137999
4278.7 0.757624 0.0135862
4370.56 1.20418 0.0134996
2689.34 0.806385 0.0132379
2470.22 1.0143 0.0145364
1624.52 0.730252 0.012803
1650.74 0.933123 0.0135126
1290.14 0.808676 0.0140656
1207.4 0.874811 0.0138787
1023.4 0.87799 0.0139428
898.603 0.866767 0.0137716
839.677 0.93346 0.015215
734.67 0.926313 0.0147144
629.88 0.885607 0.0151641
589.139 0.921504 0.0155578
575.501 0.956042 0.0150881
509.738 0.988051 0.0149558
486.867 0.999386 0.01771
454.186 1.0547 0.0157624
440.374 1.05842 0.0165287
381.062 1.03835 0.0169771
391.698 1.1261 0.0160253
360.604 1.15 0.0176365
328.975 1.07228 0.0179213
334.984 1.2856 0.0195889
309.122 1.19032 0.0186931
308.049 1.26546 0.0197228
294.302 1.2793 0.0198975
298.276 1.39601 0.0218806
271.662 1.37672 0.0205657
243.137 1.26598 0.0210225
255.116 1.45467 0.0220968
245.748 1.46996 0.0231
236.953 1.50071 0.025285
230.716 1.53465 0.023625
223.629 1.59775 0.0269838
217.772 1.57797 0.0265244
211.266 1.68129 0.0269891
237.72 1.98168 0.0317916
202.576 1.6988 0.0309217
203.393 1.86973 0.0332628
200.763 1.85978 0.0335726
206.9 2.0303 0.0371132
188.18 1.94369 0.0356228
190.715 2.0332 0.0368847
192.841 2.13823 0.0386781
182.903 2.10853 0.0400625
182.645 2.17822 0.0414725
180.947 2.28426 0.046149
167.508 2.28984 0.0472056
169.12 2.32244 0.050031
168.129 2.34476 0.0519352
173.36 2.51005 0.0540027
173.415 2.69372 0.0589767
164.628 2.53497 0.0555102
161.146 2.63711 0.0594209
162.293 2.72779 0.0637988
153.761 2.73567 0.0664846
152.459 2.78731 0.0671882
154.899 2.90449 0.0714885
165.179 3.09683 0.0783202
153.022 3.08842 0.0803154
155.545 3.1565 0.0841378
147.886 3.17548 0.0855863
147.742 3.23242 0.0910494
149.978 3.3845 0.0904915
138.804 3.21572 0.094568
148.455 3.45698 0.1035
142.73 3.52495 0.108573
138.94 3.46152 0.105917
143.22 3.67896 0.112821
129.942 3.4769 0.110057
135.226 3.57172 0.116145
128.62 3.67284 0.126833
128.51 3.7715 0.131416
134.662 3.85283 0.132378
138.04 4.23724 0.147607
128.624 3.97916 0.143401
129.963 4.00574 0.147583
127.094 4.15125 0.15776
137.441 4.61109 0.177826
125.883 4.31664 0.167879
124.139 4.31354 0.175389
121.758 4.38612 0.177833
133.57 4.85419 0.199962
123.138 4.61101 0.193877
124.651 4.81218 0.2035
125.511 4.89276 0.216115
119.45 4.77262 0.215576
120.605 4.95527 0.229336
125.435 5.35794 0.247365
126.538 5.41705 0.256872
123.331 5.4245 0.262721
113.54 5.07133 0.24939
123.757 5.55392 0.282042
121.193 5.6085 0.280421
119.704 5.6812 0.297301
126.601 6.08392 0.316372
121.089 5.82208 0.309503
118.605 5.8753 0.321656
113.547 5.88561 0.329929
110.225 5.87582 0.32795
109.531 5.81126 0.343499
111.415 6.07568 0.362245
119.446 6.39403 0.375318
109.633 6.16981 0.372162
105.493 6.10972 0.374234
116.063 6.81119 0.424375
115.598 6.81376 0.425449
113.743 6.77779 0.439401
112.731 6.95865 0.456329
110.71 6.89412 0.457622
104.543 6.67303 0.457892
105.789 6.89388 0.474299
115.884 7.59217 0.530631
102.504 7.01874 0.49954
106.519 7.17469 0.511308
103.528 7.25267 0.53629
112.119 7.90701 0.591514
105.553 7.5898 0.58048
107.511 7.9081 0.614243
104.294 7.711 0.600653
102.697 7.78119 0.615831
101.197 7.64219 0.613598
100.164 7.8794 0.648684
99.5458 7.80044 0.660535
105.047 8.30992 0.69899
98.5116 8.0867 0.684965
97.4177 8.00646 0.693362
103.616 8.75546 0.765546
99.0943 8.61878 0.763802
98.6343 8.49979 0.771347
94.6952 8.33025 0.769282
97.0311 8.55945 0.801225
101.229 9.02428 0.83684
95.1241 8.88037 0.848792
95.0831 8.65656 0.834209
95.9406 9.14568 0.903844
95.1388 9.03443 0.898852
93.2778 9.07666 0.913757
89.4463 8.75001 0.88885
96.3121 9.70982 1.00837
89.918 9.01736 0.966465
100.437 10.2611 1.09547
93.2776 9.56631 1.02196
94.9714 9.98709 1.10261
86.2135 9.16421 1.00627
97.5252 10.5479 1.18429
82.6607 9.00277 1.02778
88.8158 9.95376 1.15342
88.193 9.85296 1.13079
87.0891 9.89693 1.16191
96.3209 11.003 1.30006
93.7747 10.7822 1.2874
90.3697 10.6291 1.31443
88.0954 10.5328 1.31073
85.7145 10.5327 1.30991
91.9797 11.2115 1.39837
82.5358 10.1601 1.29273
89.941 11.3001 1.46305
83.0487 10.3007 1.35885
86.349 11.1521 1.47849
80.5334 10.5336 1.40496
85.9033 11.2791 1.53292
84.8752 11.3261 1.54816
83.9298 11.3127 1.56533
84.7705 11.5206 1.61473
84.5965 11.7652 1.683
85.5591 11.8385 1.69191
78.1071 11.0144 1.61083
81.2881 11.5687 1.6789
77.7105 11.2143 1.67264
79.8836 11.7835 1.75432
71.5548 10.6204 1.63214
76.1468 11.2556 1.71877
80.3866 12.0207 1.8556
80.6348 12.2595 1.92337
77.4224 12.1384 1.92945
73.0322 11.3009 1.80532
81.877 13.0659 2.13104
78.3454 12.3768 2.02166
81.8395 13.0639 2.13058
75.8333 12.3731 2.09657
80.4035 13.2781 2.22738
73.3941 12.2078 2.10005
73.7642 12.5231 2.20449
76.0941 12.5906 2.16483
75.1176 12.8072 2.22477
73.5302 12.8081 2.2975
72.9123 12.7996 2.2822
72.4851 12.8206 2.31411
74.2458 13.2779 2.42158
75.2515 13.6077 2.53835
75.0112 13.4648 2.51391
71.4678 13.1093 2.48595
76.566 14.261 2.69887
74.4539 13.9939 2.69385
75.165 14.3082 2.79971
70.7038 13.5928 2.64073
74.718 14.6159 2.90793
74.1404 14.4554 2.87811
66.1797 12.9354 2.58956
70.3452 14.0358 2.84749
68.9171 13.9843 2.91399
69.8031 13.8883 2.88054
70.6324 14.4399 2.98018
67.055 13.9995 2.97637
66.328 13.8669 2.96994
64.3105 13.7009 2.99743
69.9558 14.8358 3.19645
66.4424 14.254 3.10959
67.3579 14.4765 3.16322
67.6832 14.7963 3.31344
65.1061 14.3594 3.19644
63.9982 14.2422 3.25691
61.3791 13.9871 3.22325
65.1757 14.6414 3.39451
63.2037 14.5344 3.37271
62.5028 14.5868 3.47223
66.9391 15.5224 3.63908
61.9351 14.5165 3.47552
62.703 14.9068 3.63453
64.1421 15.1246 3.65483
61.8369 14.9716 3.68795
61.457 14.8481 3.65611
60.9034 14.806 3.70383
63.3124 15.6689 3.94428
62.0015 15.3186 3.85227
62.2342 15.756 4.05729
61.312 15.6633 4.0755
61.0414 15.5178 4.01894
59.9318 15.2753 4.02051
58.0497 14.8705 3.90866
61.9042 16.4781 4.45637
62.3751 16.2364 4.33634
60.0254 15.7593 4.23631
59.3963 15.6832 4.28062
59.0866 16.0954 4.45354
59.8547 16.2577 4.54924
62.7814 17.4346 4.91335
57.9775 16.2644 4.5831
60.3631 16.4007 4.57772
59.1087 16.7043 4.76796
58.802 16.6797 4.81227
58.274 16.9735 5.01934
56.3954 16.3336 4.83003
60.6925 17.5977 5.16655
59.9538 17.6057 5.21083
57.8073 17.1968 5.22041
54.7832 16.2132 4.88571
56.2196 16.799 5.10444
53.5201 16.0501 4.88439
52.8649 16.2154 5.14489
56.5627 17.2772 5.37224
51.3762 15.636 4.85201
55.1146 17.3151 5.46161
57.7182 18.1024 5.73919
50.4735 16.1137 5.19907
52.9473 16.7458 5.3656
54.5281 17.5047 5.70593
50.9698 16.655 5.53551
51.7172 16.8635 5.56062
51.4035 16.616 5.48391
52.7642 17.3572 5.85888
49.9111 16.6662 5.65477
54.0399 18.2305 6.17923
49.6978 16.9295 5.87054
53.5057 17.9268 6.16085
50.8695 17.5197 6.07959
51.3484 17.3515 5.99841
48.6975 16.8099 5.90503
50.2462 17.4699 6.18044
47.7838 16.751 5.98934
51.0331 18.2463 6.59418
48.4889 17.3604 6.3301
50.1833 18.0343 6.53478
46.3258 16.6555 6.11821
50.1988 18.8026 7.08963
49.5171 17.9204 6.60974
48.04 17.3756 6.53134
51.7216 19.2087 7.21421
51.1072 19.1003 7.24098
52.1761 19.7573 7.57567
48.5226 18.3946 7.09672
47.7006 18.2329 7.12491
47.9896 18.1892 7.04957
46.2743 18.0936 7.16543
46.1669 18.251 7.2697
44.9097 17.7951 7.25245
47.6534 18.5101 7.35651
46.3228 18.2701 7.2432
47.4029 19.1414 7.75722
46.5643 18.95 7.76213
44.4457 18.0664 7.54375
42.7172 17.0684 7.13484
46.3247 18.6311 7.61538
47.0951 19.3662 8.12747
44.2547 18.4481 7.79055
42.5651 17.8435 7.57124
42.4768 17.8728 7.59136
45.5335 19.5093 8.43954
44.282 18.6591 8.07999
45.102 19.5613 8.63256
47.3879 20.6882 9.02176
45.0598 19.5324 8.62743
46.4614 19.8092 8.55609
42.0516 18.925 8.6306
44.1645 19.5254 8.73121
42.5031 18.6557 8.30665
44.1074 20.0382 9.13901
40.0859 18.2006 8.4317
42.0354 19.0077 8.81279
40.8193 18.541 8.53106
40.3914 18.5837 8.58321
40.5652 18.8031 8.85734
43.2163 20.1571 9.49148
42.9764 20.3237 9.61095
40.5177 19.1552 9.26415
41.4831 19.4501 9.23788
38.3614 18.4327 8.96899
40.4032 19.2885 9.29505
39.6439 19.0013 9.2075
41.5117 20.315 10.0057
38.5703 18.8093 9.36781
41.41 20.0864 9.85657
39.3909 19.317 9.65404
38.3505 18.9286 9.56507
39.2149 19.4357 9.79548
38.1097 19.0678 9.82662
39.8399 19.8529 9.99803
37.7964 19.4978 10.1639
38.3209 19.164 9.80528
39.4571 20.474 10.6981
38.9848 20.0856 10.5432
37.9071 19.8129 10.5305
36.5434 18.621 9.76116
36.0869 18.9844 10.1053
38.4667 20.3969 10.7376
35.4339 19.0473 10.4
35.8587 18.9429 10.3422
38.3298 20.555 11.1571
37.6205 20.2217 11.0423
34.4276 18.8116 10.4796
36.3584 19.8125 11.0347
35.5369 19.3731 10.8003
37.4206 20.3422 11.3998
37.3105 20.1951 11.1231
37.2571 20.8622 11.7292
36.676 20.0128 11.0453
35.5309 20.3442 11.6311
34.7268 19.4286 11.0863
35.4444 20.6434 12.3087
37.7348 21.2122 12.1385
33.8806 19.4213 11.2868
34.4321 19.9469 11.6836
34.2637 19.7386 11.6443
34.7575 20.3325 12.0869
34.1219 19.603 11.5519
33.9898 20.4757 12.4232
33.9708 19.4066 11.3843
34.7128 20.5798 12.1313
31.6381 19.0391 11.5562
32.8285 20.1904 12.454
33.599 20.4411 12.5818
32.8268 19.7698 12.0986
32.9518 20.4024 12.5787
31.5668 19.5564 12.2606
30.6142 19.3981 12.5942
32.4678 20.0128 12.8131
33.4325 20.3118 12.5827
29.8308 18.8785 12.209
33.0255 20.3662 12.7107
30.8876 19.682 12.638
30.2419 19.3076 12.6092
29.8488 18.7245 12.1269
29.8084 18.9909 12.2946
28.9766 19.0132 12.7506
31.6983 20.4505 13.4007
32.375 21.5218 14.4263
32.496 21.0295 13.8615
30.95 20.1839 13.4321
30.3583 20.275 13.7757
31.5608 20.7999 13.8247
29.9455 20.1259 13.749
30.8373 21.1712 14.5732
29.6281 19.5481 13.4101
31.5328 21.6401 15.0091
29.6432 19.9624 13.6162
29.3158 20.6251 14.9111
32.1453 21.5284 14.4404
29.6507 20.9884 14.9101
29.1727 20.3627 14.2848
29.1847 20.3636 14.4323
28.6284 20.2901 14.5548
28.5272 20.0158 14.3276
27.9787 19.7889 14.1648
28.7753 20.7268 15.0949
28.931 20.8299 15.2814
29.234 20.8853 15.2814
28.7025 20.0831 14.3301
27.8621 20.392 15.1697
29.0583 21.2052 15.4848
28.3888 20.7556 15.167
26.4159 19.7383 14.9297
26.5012 19.7536 15.1547
28.5594 20.8705 15.3676
26.8193 19.9949 15.1298
27.9145 20.8755 15.6842
27.2172 20.6207 15.7716
27.6112 20.915 15.9665
25.7065 19.3399 14.9044
26.4867 20.318 15.7946
26.2827 20.2722 15.8896
26.9138 20.6932 16.0562
25.5611 19.4949 15.1927
25.9041 20.1827 16.0826
26.6869 20.7477 16.3815
26.2501 20.221 15.8341
25.9589 20.3678 16.0861
24.9551 19.9546 16.215
26.9135 21.1992 16.9672
26.2373 20.8121 16.711
26.3792 20.9999 16.98
24.4164 19.675 16.2989
25.8373 20.637 16.7608
25.0188 20.4034 16.9682
24.775 20.0492 16.5451
26.6159 21.7637 17.8119
25.3396 20.9627 17.4255
23.5887 19.5669 16.5777
25.5672 21.1118 17.5006
23.7048 19.8528 16.7581
24.129 20.4241 17.5933
25.204 20.9176 17.6584
23.4827 19.7162 17.0611
24.3175 20.4959 17.4632
23.1363 19.4205 16.9422
25.3916 21.7765 18.5458
25.3652 21.6585 18.7477
22.8895 19.6548 17.2412
23.4593 20.2368 17.7586
23.424 20.277 17.7957
23.5869 20.6105 18.2487
24.1495 21.2228 18.5117
22.2293 19.5848 17.6586
23.6949 20.9415 18.8224
23.9253 21.4054 19.3635
24.5431 21.8685 19.8128
23.477 20.683 18.3758
23.1782 20.8114 18.953
23.0215 21.1143 19.4365
23.0758 20.1973 18.3664
23.8106 21.4033 19.2706
23.1733 21.2515 19.6067
22.0511 20.5595 19.4919
23.3516 20.499 18.7072
22.1534 20.562 19.4077
22.8073 20.749 19.1367
22.0497 20.5763 19.898
22.7389 20.6191 19.0349
22.3001 20.7589 19.5336
21.9005 21.1923 20.6311
23.1088 21.4673 20.4433
22.2942 20.9177 19.8717
21.5699 20.2593 19.255
21.2204 20.8001 20.4351
22.4972 20.9892 19.8976
21.1141 20.9587 20.7459
21.9133 21.1062 20.7248
20.8294 19.6693 19.4063
21.8563 20.9652 20.2811
20.5613 20.5149 20.8528
21.0585 20.2241 19.8408
19.8198 19.272 19.0788
19.6347 19.6599 19.867
21.4032 21.3955 21.694
20.0569 19.5123 19.4016
20.349 20.649 21.015
20.9183 21.2099 21.7524
19.867 19.9735 20.6355
20.3711 20.1038 20.3207
20.2728 20.2613 20.3217
19.907 20.4729 21.1552
19.6761 20.044 20.8373
19.4992 19.7763 20.6858
21.0331 21.7198 22.0919
19.8652 20.7236 21.9865
19.5796 20.1205 21.074
19.9438 21.0175 22.0676
18.1241 18.912 20.5844
20.3438 21.2312 22.4464
18.7923 19.453 20.6548
19.3494 20.6639 22.0905
19.4229 20.6384 22.291
18.8216 19.9596 21.5926
19.5372 20.5847 22.0056
19.5408 20.9766 22.8283
18.1364 18.9083 20.3749
19.1452 20.8331 22.7392
18.4004 19.9623 22.1726
18.8853 20.0098 21.3075
17.944 20.3761 23.3853
19.2679 20.6504 22.832
20.1217 21.363 22.3896
17.7972 20.5953 23.7342
18.6108 20.4516 22.748
17.7008 20.0558 23.0379
18.3658 20.1124 22.4892
18.472 21.0389 23.6747
17.6186 19.698 22.5
17.6501 19.9749 23.0012
17.6214 19.0829 21.3665
17.0879 19.7557 23.2248
17.4743 19.2941 22.0422
17.584 20.1352 23.6101
18.4322 20.9924 23.843
16.9813 19.6231 22.952
17.3315 20.4172 24.2117
17.409 19.8593 23.2514
17.694 20.14 23.3219
17.6834 20.355 23.7226
16.7616 19.7672 23.5608
17.1566 20.0641 23.9888
17.2162 20.2457 24.2545
17.0415 19.5933 23.212
16.242 18.7308 22.2585
17.2856 20.6027 24.08
15.4688 18.7806 23.2917
17.3157 20.4967 24.7463
16.3518 19.3279 23.2443
15.8127 19.53 24.4146
16.7002 19.7832 24.0079
17.1141 20.7136 25.2472
16.6186 20.4085 25.5028
16.6377 19.7131 24.1038
15.9832 19.2778 23.6626
15.8179 19.1996 23.6681
16.5569 20.9184 26.0643
16.8289 20.783 25.6209
15.1401 18.9386 24.2326
16.2894 19.7654 24.573
15.9634 19.9255 25.3455
16.0859 20.1419 25.7309
16.2327 19.7279 24.3053
15.7184 20.0285 25.6866
15.9858 20.6923 26.4892
14.9768 18.2742 23.2412
15.3288 19.6651 24.9731
15.2428 19.99 26.0164
15.0363 19.3477 25.1489
14.254 18.2676 24.1271
15.038 19.2432 25.3248
16.0174 20.4326 25.8418
15.0129 20.1568 26.9882
15.8282 20.3301 26.232
14.3559 19.2353 26.26
14.8133 18.9544 25.152
14.6956 19.3886 25.7064
15.159 20.4651 28.132
15.5953 19.9434 26.2384
14.9676 19.9621 26.9469
14.6788 19.4676 26.1327
14.0169 18.4761 25.1439
14.4828 19.2176 26.2167
14.5043 19.0241 25.6271
15.409 20.7853 27.6496
13.7671 18.4634 25.276
14.5522 20.3983 28.0574
14.3314 19.6927 27.6215
15.0141 20.4832 28.3856
14.6947 19.9793 28.0711
15.0922 20.1542 27.518
15.8524 22.0697 29.8813
14.1032 19.4851 27.3725
14.6518 20.4185 28.7189
14.0877 19.2975 26.881
13.0498 18.1836 26.4744
14.1788 19.2958 26.5533
13.018 18.3692 26.6449
13.531 18.4318 26.2244
14.7967 20.5794 28.2124
13.3579 18.8061 26.9692
13.345 19.2845 28.0568
13.7942 19.3672 27.9898
14.0134 20.0968 28.6218
12.9119 18.6105 27.617
13.9086 19.7285 28.4154
13.3029 18.531 26.5745
13.5855 19.9384 29.5074
13.8284 19.4513 28.2945
13.5212 18.9583 26.8355
12.6872 18.5967 27.2201
12.6169 18.5348 27.6545
12.6556 18.1225 26.9634
13.1562 19.1554 28.1151
12.7976 19.0489 28.2077
12.7151 18.6589 28.2449
13.149 19.0964 28.2835
12.7934 18.8872 28.6016
13.0369 19.3951 29.6149
13.0436 18.9745 28.7888
13.6327 19.7446 28.0973
12.6527 19.995 31.3941
12.681 18.913 29.1603
12.914 18.7329 28.2041
12.1312 18.2402 28.0168
12.1919 18.1245 27.4741
12.1636 18.8045 29.4386
12.2455 18.5387 29.1567
12.8468 18.4812 26.5706
11.8226 18.9692 29.5064
11.4669 17.6217 28.1655
11.7 17.8767 28.4154
12.1513 18.5639 29.3165
11.6598 18.0362 29.0354
12.5604 18.8634 29.4572
12.6963 19.6649 30.6425
11.7384 17.7535 27.9861
12.5656 19.5675 29.9397
11.6676 18.7285 30.2229
11.852 18.6218 29.7377
11.7973 18.6152 29.4253
10.8361 16.6343 26.9396
11.6143 18.4685 29.0825
10.9331 17.3154 28.6704
11.9943 18.9638 30.2921
11.4324 18.06 28.8213
11.1644 17.7011 28.1653
11.0918 18.5112 30.9412
11.5748 18.5992 30.3432
12.1195 19.904 33.0202
12.0997 18.5954 29.6821
11.5711 18.7012 30.1863
10.8874 18.1043 30.3147
10.7464 17.4378 29.4693
11.5431 19.0597 32.145
12.1913 19.4822 31.8976
11.6265 19.2983 31.2249
10.5886 17.4414 29.5405
10.8399 17.7283 29.6227
10.7616 17.9666 30.0083
10.8754 18.0938 30.3658
10.5324 18.003 31.6461
11.1825 18.3956 30.9714
10.946 18.4188 31.2974
10.7485 17.7826 30.3831
11.0874 19.0218 33.0822
11.6593 18.9921 31.2383
10.1257 17.0571 29.8624
11.2262 18.7785 31.6333
11.069 19.1233 32.9068
11.0414 18.4257 31.6019
11.184 19.132 31.8196
10.0888 18.4445 33.5126
10.4554 17.8548 32.9697
11.4807 18.6584 30.9951
10.6237 18.2244 32.0184
11.2567 19.7818 34.2935
10.6419 18.5542 33.0778
11.0478 18.6506 30.983
10.2948 19.0069 34.6415
10.6034 18.6336 34.1504
10.8446 18.3827 32.4546
10.308 17.872 31.6224
10.2771 17.6216 30.9374
9.88858 17.959 32.9584
10.8535 18.8585 33.7101
11.4219 20.114 35.4785
10.479 18.2644 31.976
9.86899 18.3594 34.0333
9.92336 17.4278 32.7069
10.7569 18.6813 32.6826
9.98095 17.9002 32.555
10.3798 18.9311 34.4685
10.453 19.1236 35.2374
10.7609 19.0074 33.402
9.86561 17.8732 32.7578
9.55502 17.0763 31.5474
9.71325 18.0746 33.7393
9.86533 17.7571 33.0832
9.62772 17.1179 31.4514
9.60406 17.9237 33.8726
9.94433 17.776 32.5487
9.70972 17.5982 31.6616
9.48665 18.4828 35.3541
9.56521 17.004 31.4596
9.10645 16.5936 30.3868
8.77123 17.1197 33.5514
9.51559 17.5418 32.9677
9.21831 17.4006 34.0127
9.35675 17.0007 32.5564
9.71064 17.9081 33.3339
9.51093 17.9879 33.4352
9.3208 17.971 34.4895
9.22587 17.3461 33.757
9.45644 17.4328 32.1109
8.68664 16.9606 33.8246
9.57752 18.2123 35.0541
9.15869 17.1124 32.4621
9.07665 17.7709 34.7331
8.97699 16.7068 32.4227
8.664 16.9343 33.9793
9.12539 17.2906 33.341
8.67752 16.392 32.2987
9.40608 18.2093 34.8602
8.83732 17.2629 34.8374
8.99104 16.7661 32.9263
9.49286 18.7442 36.1859
8.84956 17.3679 35.779
9.69296 18.1116 34.882
9.26439 18.2879 35.6165
7.90893 15.3444 31.9195
9.06649 17.6548 34.7945
8.71628 17.2351 34.9594
8.87096 16.9436 33.636
8.66013 17.244 35.5527
9.15232 17.5686 34.8309
8.89814 17.022 32.3195
8.01372 16.5454 33.3453
7.98141 16.2787 34.3384
8.82781 17.1645 33.7873
8.58902 17.5616 34.9695
8.38862 17.5115 35.7997
8.2091 16.7704 35.1364
8.13033 15.7937 32.0726
8.12286 16.8119 35.7413
8.61552 16.9164 34.2625
8.22791 16.5341 33.833
8.01066 15.7499 33.0469
8.33465 16.8215 34.492
8.41877 17.3664 35.7441
8.31601 16.8639 34.7439
7.9721 16.2104 34.732
8.37004 17.0248 36.0081
8.50806 16.9346 34.4305
8.1606 16.845 35.2745
8.65077 17.786 36.6243
8.36245 17.3453 36.2906
7.79861 15.7622 32.752
7.46736 16.0053 35.1153
8.242 16.4775 33.4621
8.05223 17.589 36.7061
7.6424 16.5541 36.4318
8.18056 16.7592 34.7743
8.0924 17.3779 37.5361
8.04613 16.4928 35.0077
7.78899 16.3307 35.4171
7.73057 16.8033 38.5122
8.59567 16.9493 34.8785
8.16993 17.3216 36.0533
7.52837 15.9903 34.7633
7.94843 17.1973 36.6198
7.76759 16.1857 34.3128
7.00514 14.9706 33.2291
7.58176 16.8853 37.1056
7.85828 16.9021 37.542
8.31777 17.3609 37.0989
7.81613 16.9841 37.5899
8.15972 17.4669 37.863
8.17889 17.8233 38.4401
7.77654 17.0364 38.5399
8.30284 17.4554 37.144
7.79213 17.775 39.4512
7.74691 16.2151 36.0012
7.85235 17.7395 39.0576
7.01933 14.6089 33.7679
7.49016 16.423 36.4033
7.9583 17.3709 37.4232
7.53374 16.8608 37.0859
7.29196 16.0868 35.5283
7.18602 16.861 39.1827
7.7917 17.1793 38.6524
7.49325 16.775 38.6085
7.37587 15.6113 34.9296
7.26292 16.7388 39.2204
7.89686 17.4654 39.5629
7.61536 16.1903 35.1853
7.30424 16.9604 38.7902
6.9398 15.2717 35.3164
7.47001 16.9442 38.0684
7.13791 16.0987 37.4755
6.9102 14.907 35.234
7.77314 18.0799 41.1682
7.94284 17.4555 37.9627
7.01045 16.7225 38.5932
6.98931 15.6373 37.278
7.56627 17.4667 38.8872
6.86463 15.4501 35.6834
7.01601 16.8335 40.7068
7.58977 16.6066 37.0202
6.57208 15.3777 36.8248
7.03785 16.754 41.3363
7.91932 17.1885 37.1427
6.6426 15.9631 39.1065
6.84455 15.4174 37.3608
6.97427 15.1472 34.5003
6.74073 15.424 35.6426
6.87708 15.9023 35.9045
6.3898 15.7089 39.3086
7.04295 16.0224 37.8471
7.06752 16.4471 38.9692
6.91377 15.5544 35.7258
6.5195 15.5603 36.7323
6.5223 15.6217 37.7616
6.40747 14.482 34.2839
6.38675 15.9552 39.5988
7.02593 16.5162 38.6216
6.4414 14.8046 36.2194
6.89185 16.7735 40.3228
6.59274 15.1549 36.8642
6.71222 16.3841 40.1749
6.88595 16.0589 38.3059
6.64616 15.696 38.5514
6.87219 16.4568 39.0397
6.80499 17.2549 45.2174
7.84901 18.1155 42.5759
6.94162 17.0771 44.4842
7.93265 18.4209 43.2774
7.22089 17.5818 43.0416
7.24175 17.0347 40.4237
7.15903 17.9642 44.0574
6.86238 16.3121 41.9899
7.55835 18.5056 44.2693
7.02436 17.0599 42.6159
7.03911 16.8675 42.049
6.90303 16.8808 41.9426
7.16697 17.7017 44.449
7.0976 16.3967 38.5968
6.53856 17.3503 45.292
7.0584 16.7654 41.9839
7.00082 16.8224 42.2806
7.2404 18.3715 45.7079
7.09403 17.1327 43.189
7.46335 18.749 45.9947
7.07937 17.8122 46.0605
7.47563 18.2304 45.346
7.11273 17.3869 43.7018
6.56707 15.465 39.5908
6.88022 17.4119 43.8592
7.05699 17.4772 43.4401
7.32686 19.3644 47.8013
7.01804 17.9375 46.4232
6.86033 16.7764 43.4925
6.92157 17.3452 43.8573
6.72231 17.3568 45.432
6.94888 17.3365 45.1227
6.96217 17.1457 43.9854
6.70903 16.7677 42.9817
6.5667 16.4256 42.4785
6.97248 18.509 46.9941
6.70967 16.9227 44.8458
6.89043 16.6366 42.0035
6.68291 17.5671 45.0132
6.69029 17.1715 44.9365
6.868 17.1563 42.8237
6.45847 16.831 43.2072
6.59721 17.6974 46.7767
6.84138 18.0828 47.8295
6.98474 18.1225 48.946
7.29671 18.5845 47.4301
6.81506 17.7074 45.722
6.53709 17.2287 46.5025
6.66515 16.686 43.1968
6.45482 17.1888 45.8571
6.4084 16.513 44.3116
6.46537 16.4109 44.2562
6.78329 17.5558 45.7909
6.44625 16.442 43.6778
6.39419 16.8341 44.3723
6.50441 17.3883 45.7297
6.57811 17.2361 45.3866
6.35195 17.3364 47.3918
6.32222 15.6435 41.9681
6.30447 16.7836 45.1079
6.6453 18.04 47.2482
6.03628 15.9006 45.8106
6.65358 16.9169 43.8478
6.09742 16.5182 45.1369
6.50339 17.0335 45.2615
6.32995 16.7438 46.0565
6.56159 17.7131 47.2634
6.24831 16.248 44.7005
6.47398 17.6605 47.4746
6.16986 15.574 41.5731
5.73979 15.1572 42.4054
6.19361 16.7818 43.8995
5.76797 15.9957 45.3436
6.05151 15.8229 43.728
5.86509 15.7641 44.6639
6.09456 16.1807 45.4075
6.56914 17.5043 45.9513
6.01164 15.9433 43.0446
5.69361 15.3584 43.6907
5.69364 14.7609 40.6696
5.72639 15.5227 41.5728
5.60831 15.8255 44.6773
6.01172 16.2197 43.3622
5.67153 15.9494 46.0416
6.28839 17.0842 46.2097
6.03851 16.8429 45.6811
5.63549 15.8451 46.3069
5.9406 15.9654 44.3909
5.8225 15.8296 46.2141
6.18793 16.4433 43.1717
5.56025 15.7275 44.116
5.59209 15.9304 45.1024
5.34494 14.2266 43.2989
5.95234 16.2182 45.7562
5.90822 15.9271 43.4978
5.61168 15.6143 43.8622
5.61142 15.2862 43.3246
5.53508 15.2412 43.8494
5.78092 16.7728 47.9262
6.091 16.663 46.0698
5.76026 16.4975 46.6692
5.88374 16.0798 46.4273
6.02369 16.9867 47.3706
5.78355 16.0577 46.0253
5.76112 15.9665 45.7799
5.75278 15.9882 44.6524
5.52934 15.8449 45.9801
5.86182 16.504 46.3696
5.44728 14.5532 41.0214
5.38198 15.9875 44.6285
5.30149 15.2744 42.9138
5.14399 15.5032 47.1817
5.572 15.5706 46.6477
5.66585 15.7602 46.7177
5.73817 16.0933 45.5789
5.35452 14.9227 44.1074
5.74506 17.0051 48.0478
5.53114 15.0062 43.1893
5.24091 15.071 44.2139
5.19155 14.4539 42.1605
5.0989 14.8082 44.5992
5.45088 15.4237 44.8256
5.37916 15.999 48.3628
5.78477 17.1628 50.2168
5.68987 15.7219 45.249
5.21552 15.054 44.9337
5.4493 15.4268 43.6297
4.91846 14.2853 42.4544
4.88779 14.1844 43.5756
5.43803 16.2942 49.3839
5.93618 16.9446 47.7251
5.28368 15.2065 44.4569
5.12474 15.0467 43.909
4.82086 13.9091 44.2737
5.59205 16.3989 47.6795
5.38115 15.5735 44.9885
4.89857 13.6946 42.7226
5.20077 15.5339 45.9978
5.18726 15.1454 44.5481
5.06117 14.9678 45.2091
5.21207 15.6109 45.5896
4.9346 14.8145 45.741
4.95406 14.2411 44.7962
5.22463 14.7736 43.239
5.0395 15.5506 46.3452
5.11365 15.429 46.9581
5.16117 14.9666 46.3621
5.17755 15.0242 44.8789
5.01737 14.8978 45.4886
5.08159 14.9391 45.093
4.97724 14.0494 40.5373
4.56673 14.0597 43.5471
4.92675 15.4152 47.163
5.13957 15.6068 47.4975
5.03591 14.8712 46.3561
5.16676 15.1931 44.9679
4.89834 15.4758 50.1256
5.23909 14.8526 45.3501
4.95809 14.1457 41.1483
4.55332 14.434 45.5184
5.03164 14.8359 42.4968
4.50739 14.1924 43.1323
4.49368 14.074 44.8903
4.93526 15.3176 47.592
4.91008 14.066 41.3479
4.396 13.7142 44.0746
4.75556 14.5565 44.3289
4.69093 14.5745 45.8159
4.76372 13.8125 40.4442
4.29007 13.145 40.0901
4.28387 14.2131 45.6795
4.88169 15.4712 48.3819
4.75164 14.2977 46.0319
4.75705 14.0862 45.3241
4.80754 14.2905 42.6869
4.49273 14.133 45.9623
4.66248 13.2305 42.0267
4.68283 14.6485 44.2721
4.56256 14.3114 45.0521
4.57495 13.6989 44.2235
4.639 13.985 45.1175
4.81765 14.6848 45.0138
4.67491 14.6246 46.1672
4.55517 13.4623 41.6751
4.43148 14.7233 46.8091
4.56605 12.9593 40.7422
4.37565 14.3685 45.2942
4.41034 13.2859 41.2853
4.20296 13.365 42.9557
4.34061 13.809 43.484
4.31944 13.6044 45.6893
4.68864 13.8032 40.699
4.07512 13.5414 44.9148
4.53731 14.2868 46.0926
4.61228 14.1288 42.5775
4.12411 12.9824 43.9379
4.53665 14.3646 44.6921
4.44207 14.5806 47.3268
4.60432 14.5581 48.2662
4.72361 14.1553 43.2988
4.14721 12.7163 41.0239
4.12855 13.0927 41.8233
4.13562 12.7668 40.4557
3.86113 12.9313 45.9455
4.58014 13.7548 43.3979
4.20972 13.1583 42.6652
4.23321 13.3521 43.1501
4.41745 14.5457 45.012
4.10935 12.4188 40.0308
3.91348 12.6835 44.1553
4.39841 14.2871 46.179
4.47844 14.0882 44.9991
4.385 14.218 45.6422
4.45986 14.8109 46.6224
4.14147 12.4266 41.6209
4.12141 13.5437 45.0065
4.18752 12.5631 39.9186
3.83323 12.3746 42.4297
4.04137 12.7225 41.6394
4.08938 13.6105 43.2997
3.91078 12.6984 42.4007
4.02425 12.601 40.9585
3.93507 13.259 44.4711
4.17362 12.7141 40.1395
3.83378 12.631 42.2471
3.93177 12.4693 39.7096
3.73494 12.6839 41.9584
3.78867 11.9581 38.9331
3.60817 11.8808 41.0152
3.87438 12.1837 39.9386
3.7325 12.542 42.103
3.83169 12.4286 43.8965
4.14964 12.9541 40.4297
3.73586 12.2834 41.6029
3.88408 12.7062 43.3011
4.20848 13.726 43.5303
3.89179 12.749 40.7998
3.79564 13.5761 45.7314
3.9045 12.0939 41.1478
3.77468 12.2428 40.8552
3.62624 11.8004 40.7031
3.76752 12.1031 39.3523
3.46751 11.1338 39.9271
3.77681 11.9829 39.2151
3.7479 12.7778 42.0941
3.69866 12.5885 43.9117
3.98862 12.903 41.5371
3.70907 12.0296 40.6277
3.72397 12.4701 43.6727
3.90142 12.7041 42.225
3.85775 12.695 41.4151
3.63611 11.9047 40.5488
3.59999 11.7372 39.4777
3.58106 12.2056 42.7327
3.83031 12.4909 42.4034
3.7167 12.3508 43.1788
3.95129 13.0283 44.1088
3.87834 12.7713 43.3699
3.81075 12.311 40.1179
3.58839 12.7382 44.3461
3.89881 13.1832 47.1672
4.04156 12.8098 43.2379
3.78257 13.1327 44.971
3.86 12.2859 39.7983
3.61829 12.7511 42.1232
3.5615 11.9785 41.5981
3.68676 12.6483 43.1392
3.71875 12.5443 42.3269
3.65633 12.2321 41.5121
3.5665 12.5214 42.6737
3.53963 11.7028 40.8628
3.50708 11.5283 39.0691
3.32217 11.3493 40.4462
3.52363 11.6621 40.3878
3.50916 11.8801 41.7403
3.57759 11.8125 41.1616
3.67038 12.3841 41.9876
3.52393 12.1237 42.6073
3.56616 11.7418 40.2658
3.48886 12.1277 42.5343
3.57562 11.3279 38.8376
3.33117 11.8788 42.8489
3.59311 11.5302 39.878
3.47527 11.9149 41.0504
3.47172 11.9352 41.5413
3.55519 12.0437 40.9732
3.4971 12.0504 42.4297
3.58217 12.2113 42.3486
3.47732 11.5498 41.0576
3.50823 11.7395 39.47
3.25519 11.2427 39.9688
3.37383 11.2248 40.1102
3.37702 12.0808 43.325
3.60558 11.6524 38.931
3.28024 11.2639 39.1735
3.24032 11.9886 44.0583
3.47588 10.6387 38.6464
3.45931 12.1855 42.9368
3.59466 12.7192 44.2871
3.55182 12.3247 42.7465
3.44042 11.6144 41.5064
3.41706 11.4979 40.8946
3.37407 11.6472 40.9413
3.35933 11.5136 40.4325
3.35192 11.4377 40.7343
3.30529 11.7009 41.4141
3.41092 11.8767 40.8156
3.28803 11.9043 43.1729
3.538 12.5036 42.7113
3.39259 11.9457 44.0574
3.57731 12.077 43.7194
3.61547 12.544 42.0744
3.36608 11.9395 41.5866
3.28153 11.3489 42.9457
3.49483 11.5525 40.5657
3.38193 12.4156 43.1927
3.40731 11.5493 41.2975
3.32219 12.0161 42.8945
3.44398 12.2711 43.7836
3.49012 11.9934 42.066
3.28723 11.6174 42.771
3.38829 11.7725 40.5609
3.17426 11.7643 43.9959
3.34792 11.416 43.6314
3.51065 11.7241 43.1404
3.46553 11.9765 43.7409
3.53426 11.9359 40.513
3.37362 12.7457 43.2349
3.33723 12.2005 43.8281
3.32508 12.0298 45.8063
3.59049 12.636 49.4246
3.97426 13.6642 48.1393
3.7247 12.0996 43.276
3.44892 12.2794 44.9235
3.53811 12.2641 41.5625
3.24392 11.5596 42.3937
3.35027 11.5621 43.0296
3.41651 12.3029 43.9972
3.47144 12.2606 43.328
3.34272 11.7223 42.4189
3.32627 11.7198 43.2202
3.37374 11.8277 43.1692
3.38175 12.1055 42.2998
3.19066 11.174 41.9967
3.23973 11.1193 40.9919
3.19057 11.0923 40.065
3.16956 11.7577 41.3206
3.03107 10.3969 37.6571
2.97741 11.1265 41.4493
3.21473 12.0952 43.4577
3.24777 11.1998 41.7799
3.17862 11.5451 41.2418
3.11411 11.5616 44.6194
3.37251 11.5655 44.2165
3.45778 11.9239 41.69
3.19034 11.9138 44.856
3.38212 11.1757 40.8511
3.13479 11.2318 41.4603
3.18769 11.7057 42.6193
3.22124 11.7674 41.5416
3.1243 11.1909 41.151
3.16804 11.6363 42.2547
3.16026 11.5823 43.0178
3.15291 11.0151 41.2552
3.13675 11.5767 43.7125
3.30674 11.3311 41.3761
3.19236 12.2835 45.0757
3.25346 11.1018 39.736
2.95807 10.9738 41.4042
3.07507 10.9327 41.0396
3.12502 11.8228 43.7824
3.19166 10.9624 41.8657
3.15056 11.1705 43.2485
3.29793 12.0785 43.5089
3.2005 11.0662 41.3761
3.09182 11.2111 43.3786
3.25985 11.7387 44.2004
3.32421 11.5487 41.0951
3.03037 11.1671 41.4681
3.11278 11.6872 43.9775
3.21135 11.4889 42.3535
3.09781 11.406 42.4354
3.15293 11.8067 44.9473
3.32861 12.2744 45.4412
3.22624 11.5075 42.4662
3.07446 11.4735 42.2335
3.06242 11.4685 44.9241
3.24552 10.9471 38.5146
2.83737 11.1147 43.3308
3.14943 11.1491 42.8155
3.19186 11.7193 44.8127
3.29321 11.5226 41.1286
3.04901 11.0744 40.4271
2.9694 11.6935 43.3101
3.11894 11.0715 42.7791
3.12741 10.973 41.8764
3.12936 11.6653 42.4809
3.05598 10.8911 40.9948
3.00596 11.4553 43.5664
3.18573 11.2803 40.7796
2.95247 11.1872 43.4539
3.16293 11.6852 45.8624
3.28786 11.3965 40.487
2.85831 10.5373 41.6788
3.07956 11.2413 40.5337
2.95316 11.6162 43.5291
3.02477 10.5164 41.4691
3.09355 12.0941 44.3495
3.12878 11.4014 42.6693
3.06734 11.3349 43.9946
3.15117 11.7677 44.8545
3.12244 11.2049 41.7943
2.98178 10.863 42.2788
3.05616 10.631 39.6107
2.88476 11.2954 44.2961
3.1625 11.8756 43.2188
2.99529 10.4453 39.8606
2.82955 10.6524 40.7325
2.87665 10.73 39.6753
2.83709 11.2032 44.6709
3.19264 12.1735 45.3573
3.15046 11.1294 44.966
3.16184 11.2793 41.239
2.96151 11.3864 42.3989
2.98492 10.9761 42.697
3.02237 11.2268 42.1927
2.92063 10.5346 43.2026
3.07842 11.5055 42.7846
3.01735 11.0864 41.3619
2.96262 11.6182 43.1833
2.98172 10.6634 40.6023
2.88736 11.7364 47.0364
3.18871 11.3815 43.7256
3.10548 11.9349 44.3448
3.04298 11.0327 43.8391
3.10896 11.2584 42.1796
2.95797 11.1383 40.3337
2.78479 10.3401 40.9435
2.8763 10.8531 43.5412
3.07141 11.7525 45.0569
3.06233 11.2624 43.3167
3.00926 11.0282 42.3812
2.94047 10.755 39.3446
2.77959 11.6068 43.4234
2.94007 10.547 42.3564
2.95509 10.6272 40.8781
2.86958 10.7311 41.7088
2.87018 10.7479 42.083
2.88979 11.0454 45.707
3.14891 11.3382 44.0668
3.03156 11.6155 41.8553
2.86989 11.1746 43.9999
3.07464 11.7857 44.0164
2.97891 11.1351 40.9245
2.81834 11.2054 43.2829
2.95034 10.9176 43.1731
2.9393 10.8177 42.7046
2.95374 11.1885 44.0679
3.00007 11.4523 41.5655
2.78693 10.9749 44.9815
3.08646 11.3442 41.9698
2.83635 10.6552 41.8725
2.89875 11.5919 44.4074
3.00344 10.5219 45.3102
3.15882 12.2837 43.2927
2.83842 10.2439 42.7368
2.92784 11.2679 40.8114
2.7484 10.5456 43.488
2.93384 10.4983 39.6651
2.68498 10.1496 38.6103
2.65805 10.2994 40.5347
2.78004 10.7931 42.7009
2.91195 10.5321 42.2897
2.90389 10.7098 41.9615
2.86117 10.732 40.5854
2.77002 10.6712 40.653
2.79603 11.0834 44.8718
3.04073 10.5346 41.372
2.84093 11.3253 41.8714
2.80903 10.6853 41.4481
2.80434 10.2569 39.377
2.7265 10.7974 44.2301
2.93189 10.2767 41.1491
2.79022 11.2526 41.3809
2.78148 10.5232 42.0089
2.81149 10.8069 42.7118
2.84177 10.6169 41.9998
2.82251 10.635 42.6721
2.87117 11.4746 44.4174
2.93377 11.1258 41.7279
2.73981 9.8968 41.293
2.76362 10.9867 43.0342
2.89783 11.1171 43.284
2.88782 10.9892 42.7137
2.87847 10.645 41.9043
2.85838 10.4991 39.1105
2.61373 10.6251 42.0528
2.7348 10.2089 41.1183
2.73437 10.7164 40.4667
2.69741 10.4423 41.4276
2.78922 11.0547 43.3021
2.86264 10.8177 41.7345
2.81346 10.9608 42.198
2.79336 11.1419 42.6726
2.8131 10.3222 40.8716
2.68379 10.4886 42.9322
2.81272 10.0029 40.993
2.71233 10.4151 41.4611
2.72607 10.5976 41.7064
2.8145 10.6498 40.8173
2.7039 10.6378 41.1847
2.69201 10.7358 43.5638
2.88167 10.5278 42.1947
2.82493 10.6163 43.0562
2.89642 11.4648 44.1447
2.92257 10.9645 43.765
2.91672 10.699 39.8257
2.60186 10.0137 40.5364
2.68795 10.7527 42.217
2.7804 10.0225 39.5973
2.62112 10.0969 41.5348
2.70668 10.3904 42.5616
2.81116 10.4344 40.5251
2.68645 10.9201 41.8099
2.72037 10.8873 41.626
2.72659 10.7044 45.0367
2.96778 10.8809 39.8902
2.64284 10.1337 43.0202
2.90502 11.0147 41.5251
2.68419 10.5234 41.9426
2.6995 10.564 42.9488
2.81169 10.9439 39.7256
2.57643 10.2172 43.4636
2.88488 10.4131 39.6539
2.59623 10.6539 42.3326
2.75032 10.9457 46.3163
3.00489 10.8542 42.2926
2.77807 10.8073 40.0361
2.59368 10.1622 42.0277
2.76223 10.7631 44.2773
2.87565 10.5405 39.8737
2.61802 10.2653 42.4246
2.78238 10.7317 40.278
2.62316 10.2833 41.8363
2.75882 10.9602 39.6449
2.54083 9.61818 39.9705
2.65167 11.9623 50.9338
3.2969 11.1984 42.2636
2.74607 11.0321 44.3359
2.85895 10.7543 43.2437
2.80008 10.9927 43.0786
2.78404 10.3599 41.0324
2.68469 10.9067 43.4043
2.86918 10.6128 41.6314
2.73194 10.6553 41.3444
2.7166 10.1983 44.1454
2.90769 11.0282 43.6065
2.86193 10.887 42.1077
2.73295 10.4312 45.0243
2.95495 11.2446 42.393
2.73395 10.3912 39.3053
2.53714 10.0992 42.1591
2.74492 10.7113 43.4445
2.82733 10.5079 40.5587
2.64533 10.1334 40.601
2.66005 10.6903 42.8136
2.78612 10.9836 40.9147
2.64617 11.0534 43.5327
2.7788 10.0372 42.6751
2.7482 10.5808 41.3621
2.67572 10.1186 41.7218
2.65949 10.3437 40.645
2.66238 10.9815 43.5475
2.77521 11.089 43.9147
2.77061 11.0009 42.8945
2.80453 10.3034 41.3341
2.69114 10.3788 43.7165
2.82712 10.7056 42.3276
2.75821 10.2384 41.4472
2.69626 10.1816 40.6627
2.63817 10.5648 43.8427
2.83318 10.9957 44.0818
2.8332 11.3844 42.6108
2.7175 10.3462 42.7492
2.77503 10.3339 39.2239
2.54855 10.5842 43.7727
2.83108 10.5623 42.3696
2.72231 10.423 40.0645
2.58848 10.6784 43.5226
2.80709 10.8893 43.7239
2.80318 10.7074 41.8351
2.678 10.2141 41.9066
2.71876 11.1057 40.5276
2.58616 10.6525 44.5952
2.84214 11.0447 43.3828
2.81342 10.5163 44.5941
2.87276 10.8507 41.9021
2.72386 10.0903 43.0846
2.77179 10.7383 39.7347
2.56655 10.5189 41.7249
2.70282 10.4509 40.5795
2.64386 10.14 41.3253
2.67288 10.4563 42.5677
2.73705 10.714 41.0801
2.72151 10.3659 40.8758
2.61343 10.4005 42.9916
2.78581 10.4677 42.5752
2.74218 10.0944 40.5427
2.66471 10.7702 42.5637
2.78101 10.7699 43.8276
2.79725 11.4253 42.7268
2.7244 10.884 44.0402
2.85565 10.8368 44.1545
2.78411 10.9063 40.588
2.5859 10.2572 45.092
2.90645 10.0883 40.139
2.58506 10.9572 45.5112
2.91006 11.4873 43.1227
2.78708 10.8698 43.4865
2.79912 10.9082 44.6753
2.85427 0 0