# pn-170911/RbIIR-av-NIST-1280-1959.psd
# Power spectrum* (dif=0,1,2) (really just |FT|^2)
# NOTE: only the first half! (symmetric)
# weeks: 1280-1959
# 47 clock-days, 65 excluded
# PSD: 1441
71.0936 0.0521273 0.0383329
20022.7 0.63747 0.129554
91467.4 1.84066 0.114812
24567.7 0.829043 0.140842
34860.5 2.64418 0.105497
8372.35 0.851007 0.13511
4545.3 0.643356 0.111161
3123.2 0.630774 0.138781
3630.82 0.894669 0.0967215
2203.15 0.608407 0.120456
1385.34 0.594523 0.112337
1198.69 0.697723 0.12566
1481.75 0.715031 0.104075
1164.88 0.723797 0.104466
961.13 0.649109 0.122189
885.52 0.788656 0.111409
712.341 0.815959 0.113476
662.251 0.741986 0.117022
538.6 0.736723 0.10154
601.936 0.871216 0.118042
683.242 1.02833 0.11986
679.442 1.00092 0.113928
478.488 0.791761 0.11125
558.956 1.04219 0.125077
396.964 0.888556 0.130406
371.558 1.0816 0.133583
386.465 1.10005 0.121219
447.668 1.26764 0.137345
395.9 1.2395 0.115423
494.316 1.57604 0.130812
334.125 1.33956 0.160836
285.855 1.29437 0.109197
382.537 1.47749 0.124677
326.694 1.62079 0.113976
293.554 1.36673 0.118879
287.57 1.63233 0.120711
228.255 1.51277 0.111092
384.52 2.46254 0.137028
276.632 1.87798 0.143465
223.102 1.70839 0.160393
265.597 1.90875 0.150159
324.69 2.56048 0.147455
316.239 2.60451 0.129141
317.401 2.7625 0.164247
348.579 3.04196 0.143944
246.126 2.3569 0.117551
236.747 2.40095 0.137438
210.113 2.2972 0.132063
233.995 2.29369 0.139031
312.165 2.97852 0.13889
340.194 3.88357 0.166781
232.24 2.87967 0.124451
280.467 3.34464 0.168442
300.569 4.39124 0.131142
299.075 3.85056 0.161909
275.19 3.38651 0.163625
305.648 4.63635 0.161463
309.55 4.7827 0.20121
274.994 4.53405 0.180426
258.556 4.31962 0.187984
328.082 5.60027 0.228035
244.667 3.83366 0.18164
322.879 6.00842 0.19614
206.984 3.60278 0.187567
269.3 5.00688 0.153527
306.482 5.74183 0.22843
217.533 4.29379 0.229733
255.215 5.02612 0.274028
206.407 4.5108 0.188661
377.962 8.50404 0.242848
200.502 4.41343 0.188678
331.132 8.21578 0.244226
226.295 4.96622 0.230084
201.203 4.93955 0.2563
220.347 5.82279 0.262746
253.361 6.40671 0.284385
314.141 9.32967 0.426581
245.777 6.38495 0.283626
185.01 5.13822 0.200616
152.115 4.43294 0.197347
235.021 7.59802 0.316844
202.844 6.09487 0.340367
182.875 5.23045 0.263984
184.568 5.37125 0.244951
206.086 6.89907 0.300707
169.951 5.62818 0.339958
158.92 5.1568 0.256175
181.682 5.82883 0.281296
229.134 7.78181 0.391802
185.152 6.56997 0.361553
215.821 7.76858 0.371623
176.487 6.6392 0.320468
175.388 6.6988 0.376941
165.45 6.15723 0.41273
165.265 6.4329 0.376837
140.411 5.46007 0.364047
182.389 8.78537 0.450264
207.648 8.92245 0.448046
227.448 9.93148 0.541722
142.676 6.30551 0.381411
176.149 8.24589 0.496594
103.587 5.03092 0.34451
179.397 8.61763 0.460792
153.808 7.1222 0.512615
124.945 6.26594 0.45574
171.325 8.64452 0.548479
132.451 6.7406 0.419333
184.476 10.4335 0.654158
131.843 6.74137 0.535713
145.114 8.09194 0.517361
161.253 9.21585 0.624015
102.751 5.72325 0.413993
165.241 9.32793 0.523178
137.845 7.91964 0.559005
189.042 11.4828 0.777986
163.499 9.3414 0.769073
146.41 8.44662 0.630395
144.215 8.99219 0.73846
111.575 7.22938 0.624972
194.401 13.4194 0.954021
196.055 13.445 0.90305
167.118 11.1717 0.946722
158.136 10.8657 0.859109
173.844 12.9195 0.9922
138.527 9.50422 0.878482
171.542 13.3496 1.07368
134.832 10.1595 0.811028
180.137 13.0028 1.11795
194.195 14.594 1.23057
174.719 13.9146 1.28018
113.751 8.88063 0.777762
120.813 9.4983 0.890751
134.286 10.7815 0.939743
140.027 12.4799 1.1575
123.534 10.6146 0.918731
123.063 10.5848 0.921844
136.277 12.4813 1.16945
165.199 13.989 1.34569
144.61 11.5058 1.02015
115.484 10.8174 1.03305
112.236 9.72575 0.910516
157.092 13.8069 1.50488
144.976 14.6281 1.39585
113.976 11.046 1.16823
114.713 11.764 1.09123
112.399 10.9775 1.09697
138.876 14.058 1.30511
116.03 13.0019 1.35298
115.287 11.3983 1.31699
146.397 14.8442 1.71917
89.3953 9.23076 1.06533
145.879 15.3711 1.85306
128.484 13.524 1.58183
110.129 11.8826 1.3449
111.824 11.3206 1.2356
108.458 12.3622 1.56667
116.696 12.539 1.55414
94.1835 10.4807 1.27128
122.656 14.3164 1.78851
113.555 13.3606 1.57788
96.2477 10.9275 1.41239
86.659 11.1837 1.44981
86.2123 10.3534 1.57956
89.8109 10.762 1.50087
129.682 15.4031 2.15841
124.968 14.9192 1.77619
110.483 14.0282 1.915
101.385 12.3071 1.73968
93.6788 12.5717 1.69114
91.0742 12.466 1.76291
114.205 15.5495 2.2374
97.6998 13.4215 1.79518
134.799 18.2844 2.49334
100.443 13.2297 1.8524
94.6695 12.8814 1.95078
142.618 20.54 3.0732
82.8424 12.7054 1.86732
113.25 16.1064 2.3241
89.3563 13.4542 2.00754
121.228 17.8576 2.69361
101.804 16.9072 2.68924
131.379 18.5609 2.72615
71.7971 10.7014 1.64351
87.7055 13.9567 2.42749
87.3872 14.1304 2.40079
94.2724 16.2228 2.94757
105.559 16.9075 2.63117
125.622 19.254 3.25061
101.113 15.8024 2.60834
73.7978 12.5775 2.28266
91.6745 15.9106 2.67347
95.9716 15.2922 2.32757
124.375 22.0353 3.73313
104.337 17.185 2.70324
105.266 19.0278 3.31848
107.984 18.8279 3.35605
101.764 18.0993 3.31857
91.4985 16.1683 2.71292
94.4921 16.5948 3.16675
74.6971 14.4533 2.55199
85.2988 14.3566 2.78752
106.823 19.0063 3.40074
84.9385 16.4895 3.1486
67.9217 12.4719 2.27033
71.5926 13.7713 2.87594
81.4357 15.7825 3.10562
77.772 15.3418 3.0537
75.9772 13.6966 2.52163
101.675 20.2747 3.90877
97.4108 21.4173 4.52176
75.4896 14.9132 2.99088
72.0743 15.569 3.56461
99.6617 20.5783 4.17607
60.0874 13.2942 2.91661
78.7994 15.1997 3.01774
62.7595 12.8049 2.89025
84.2117 18.0963 4.04456
85.6211 17.5698 3.49637
87.4236 19.3151 4.14084
75.2602 16.0536 3.48477
110.227 26.2951 6.10445
93.5588 21.575 4.89288
98.2061 21.9435 5.19494
75.5682 17.357 4.36415
86.502 18.6862 4.39186
79.8883 17.8677 4.32695
67.5837 13.9516 3.18866
85.8352 20.4108 4.75013
60.2495 15.1367 3.82622
61.1492 15.0421 3.6729
56.8342 14.3302 3.81343
63.2919 15.8501 3.82417
63.3814 16.9052 4.17026
82.21 19.5599 4.74707
47.5193 12.5204 3.12472
72.9217 18.0779 4.74236
75.0139 18.7604 4.87139
64.2708 17.6055 4.6909
84.9729 20.8934 5.25622
66.5037 17.3646 4.66323
65.3087 17.3844 4.68831
68.8295 17.711 4.81129
65.0984 17.9924 5.18488
74.7865 18.7451 4.95966
70.3758 19.4462 5.46922
71.2796 20.9416 5.91439
75.7951 19.5061 5.23997
76.187 22.4065 6.30656
47.2524 12.8144 3.40035
84.7126 24.4055 6.86171
86.8182 25.9524 7.33243
71.5875 19.7506 5.47908
52.9289 16.2418 4.77087
76.9072 21.6058 7.0731
76.9056 21.9535 6.56202
65.6432 19.9963 5.98507
70.9205 21.3083 6.10778
63.7285 18.8238 5.98874
48.1241 13.6137 4.13008
54.9297 16.8291 5.38708
62.1594 19.3215 6.0494
71.7697 21.49 6.87643
51.0676 16.0399 4.95241
51.1092 15.0318 4.54168
69.3438 23.5885 7.89013
56.9966 18.3101 5.98683
71.608 23.7667 8.01467
48.629 15.8866 5.10817
63.235 20.2212 6.79606
66.9633 22.0373 7.44642
59.6381 20.5244 6.74876
62.219 21.1992 7.27633
77.6359 27.4304 9.57973
61.6538 19.7705 6.53242
64.9712 22.8965 7.76565
51.8769 17.5929 6.19974
63.86 21.652 7.22899
62.5991 22.5594 7.75709
58.1712 19.2758 6.62728
41.9508 16.5646 6.27954
47.0215 14.9561 5.19435
61.6421 23.1377 8.62743
61.7513 20.7109 7.09044
65.3364 24.851 9.8681
51.7835 17.7883 6.49294
56.0973 20.7325 7.79564
62.0935 23.0086 8.85535
54.1807 20.4158 7.98057
73.914 26.2097 9.14641
38.1568 14.8933 5.66849
52.8608 22.0017 8.80259
52.176 21.6481 8.9839
53.866 19.4857 7.89729
69.5502 26.7774 10.0276
65.3404 25.4603 9.74101
73.2897 32.4401 13.5462
53.4366 20.3431 7.79903
89.2035 35.5678 14.1763
40.1 15.5128 6.37225
59.0931 24.8976 10.3054
59.3617 23.8548 9.56546
42.6353 18.4265 8.24993
43.7627 17.2509 7.0006
76.2921 30.3218 11.8223
45.0804 19.1773 8.28875
61.8323 26.5403 10.8881
50.7348 22.4722 10.0702
32.4652 14.0699 6.00508
50.9005 21.4259 9.04
59.5193 26.0901 11.3437
48.3367 19.9997 8.82159
48.0245 21.3885 9.80098
50.7949 22.7544 10.4894
41.1247 19.0974 9.18565
58.9535 24.3082 10.4959
40.8179 17.2463 7.49961
50.3156 23.7138 10.7048
57.8443 27.1704 12.8412
46.6612 22.8321 10.8112
36.9709 15.7657 8.35297
49.667 21.5097 9.64627
41.8924 18.77 8.76115
40.2156 19.5508 9.09139
41.6708 20.5483 10.2741
46.2273 21.8618 10.2693
38.7658 17.6296 7.98041
39.3838 19.634 9.6898
34.9109 16.2945 7.84678
42.4813 21.4511 10.1697
43.1677 23.0935 11.1273
49.599 24.7742 11.8902
49.378 25.1711 12.5325
38.0207 19.202 10.2779
33.9677 16.1604 8.35039
44.2119 20.8184 11.205
50.6507 24.2543 12.4265
56.3325 28.8327 13.3454
44.1063 25.0505 13.5397
38.2501 20.0506 10.9997
45.564 23.2032 11.4858
37.5014 19.8745 11.5108
41.7905 20.8935 11.6621
44.3175 21.0375 10.0243
41.142 20.5625 10.4691
45.0977 25.0254 14.68
57.8904 28.5152 14.8196
35.3352 19.1718 10.7629
39.3637 23.9839 14.4583
53.2196 27.6013 14.3418
31.5937 17.6149 9.31293
45.5175 26.7436 14.6837
40.3205 24.377 14.402
39.7122 20.5779 10.5072
34.1808 19.7768 12.0627
32.9087 18.4962 11.1202
42.1212 23.8959 13.2532
36.4303 20.295 11.5316
41.978 27.1378 16.9479
46.5315 25.0249 13.4292
40.6116 24.6866 15.1249
46.3319 24.0826 13.2196
35.1666 20.4329 12.0313
38.1397 22.978 13.215
40.7663 23.6612 13.6304
34.9217 20.0611 11.7865
47.897 30.2823 18.098
37.3199 23.3272 16.1078
43.7172 22.69 13.443
36.2408 20.298 12.3683
34.9145 21.4065 13.525
32.9757 18.938 11.8179
38.9777 24.3939 16.077
45.3594 26.1575 15.1868
41.4532 27.4122 17.4865
32.3182 18.5532 11.9019
38.354 23.2591 13.9237
34.219 20.442 13.2619
34.8985 21.333 13.1773
36.8888 25.7063 16.396
26.6861 15.0237 8.86036
31.8669 22.8265 15.3786
30.5488 19.1803 12.4316
39.3767 24.701 15.9568
29.5741 19.8319 13.756
47.0485 30.403 19.2485
32.892 22.9191 15.8304
38.15 25.3115 16.6445
28.3563 19.7015 13.7638
30.105 19.4504 12.5202
35.5915 23.2858 15.4131
28.8841 19.1459 13.7949
30.1871 20.2803 13.6737
34.8761 24.6051 17.0231
30.0164 18.7372 12.7756
33.1473 22.8789 15.8103
35.9081 23.8577 16.3566
34.5939 23.1473 15.4631
32.4229 22.6082 16.6502
32.463 23.1803 15.9082
23.5835 16.0052 11.0239
30.3043 24.5823 18.5968
26.9413 18.9473 15.3889
32.8519 19.0512 11.3229
24.0666 16.959 12.2814
33.2104 23.2514 15.6923
24.858 20.326 16.9987
34.6678 23.8064 16.6258
29.6962 21.4654 15.6132
31.7134 24.9892 19.7106
37.7037 27.6572 19.9903
28.8891 20.189 14.8247
31.6709 24.4197 17.6425
40.4211 28.0778 19.6415
26.6565 20.2615 15.5784
34.0963 25.8981 19.6037
30.6743 24.0529 18.9923
43.9503 33.0482 23.1486
27.6164 22.6467 19.1018
24.4597 17.5576 13.9656
26.6981 21.052 18.7674
43.6835 32.6096 22.8846
35.1419 26.0145 19.7068
29.037 24.2518 20.3753
32.4598 25.052 19.2854
32.9746 27.8906 23.2663
30.1747 21.0341 16.6868
31.6975 25.5319 21.8363
34.3846 26.5151 20.7104
31.6206 24.3787 18.423
27.4241 22.1875 17.4646
26.1788 22.9198 18.8687
19.4965 17.0834 16.3501
29.5004 20.4043 15.7032
27.4582 20.103 15.4262
29.9886 26.4806 23.2031
35.1591 28.3128 23.2884
23.9146 16.9791 12.4996
24.449 22.7631 20.361
20.1041 16.656 15.6908
28.6631 23.7047 20.5678
25.3587 20.0632 15.8717
27.2999 23.3711 19.9095
22.6144 19.0682 15.0207
24.2798 22.5336 20.7375
27.5674 23.2992 20.4642
28.309 24.32 21.3675
24.0173 19.837 16.8604
31.2735 29.9697 27.1852
25.3598 21.3925 19.7197
31.7746 27.9373 23.5027
21.8249 19.5679 17.5571
23.359 20.4236 18.1102
27.7673 23.2785 20.138
21.3752 19.6563 17.3178
21.3798 19.0246 18.0389
31.7349 28.5386 25.2592
27.4028 23.8415 21.6242
20.4216 18.1002 16.9544
25.8227 23.4856 22.5427
19.9655 18.5687 17.1831
31.1934 29.3513 26.5749
25.1567 21.2051 19.2069
21.99 22.2982 21.53
24.2568 22.6266 20.758
23.7137 21.2969 18.2554
18.615 18.0394 18.8748
24.3837 21.3191 19.8811
29.8534 27.8763 23.2545
26.1358 28.8022 30.3078
25.5728 23.8734 23.3802
23.1994 20.331 18.744
22.0242 22.3447 21.4768
23.1449 18.1348 15.063
24.8261 24.0015 22.961
29.4413 30.4258 28.7189
15.4343 16.479 17.8917
18.8787 19.4408 21.7528
26.5883 26.391 23.8684
15.028 16.2779 18.9977
18.7648 17.2629 18.1282
35.2762 32.896 30.7845
18.0522 18.9061 20.8725
23.0009 21.913 21.6966
25.0164 23.7745 21.8006
21.2978 22.8853 24.9674
24.157 24.0434 24.4844
24.1794 22.9644 23.7386
25.6095 24.1824 22.0191
22.7383 23.7074 24.2419
21.9013 22.7463 23.0913
22.0501 25.5361 27.8251
22.4206 21.4742 22.1563
21.9205 23.9712 26.8206
23.7129 23.6307 23.0657
23.5477 26.0381 28.4318
26.0266 27.2161 28.622
26.8065 29.5651 31.9456
31.3977 31.0183 31.7424
27.8277 28.6054 28.6311
18.8061 21.7511 28.1015
24.8936 23.3005 22.9489
25.978 28.4857 31.8298
21.1584 19.4155 18.2836
19.9352 22.597 27.0814
25.8641 27.5383 27.8631
18.4334 18.7251 19.386
17.2704 20.2565 24.051
18.2927 17.4226 19.0427
18.9113 21.6235 26.327
19.2123 19.7607 21.0419
19.4601 20.8621 22.9235
17.821 17.6575 19.622
21.4982 24.2163 25.3452
20.9572 22.8817 24.422
19.0794 22.0475 24.6262
20.0889 22.4798 26.3796
21.5278 23.3614 23.6274
14.858 19.2622 24.6627
16.2391 18.8467 23.7427
17.2184 17.6722 21.1172
20.3057 21.3166 22.3318
17.5885 23.5868 31.5729
23.7573 22.9696 24.4284
23.3345 27.3646 31.0213
21.5429 25.1695 28.8487
20.0262 21.2662 24.7631
15.6377 16.3249 16.7514
15.4673 19.6928 25.9358
20.1342 21.9651 26.253
23.5914 26.8093 31.0105
20.4428 23.0075 26.1469
15.1914 19.4938 24.804
22.1929 24.5119 27.8778
18.8321 21.4018 25.7833
19.7964 25.0967 30.9408
20.9961 21.8384 25.2752
14.5627 15.6276 18.7907
16.8638 24.1219 31.5502
18.6674 22.9809 29.3607
22.5804 26.7953 31.6374
20.1534 26.8322 35.4233
23.0758 27.4223 33.7705
20.74 23.7657 29.6926
17.0955 22.6962 29.4434
16.4069 20.0537 26.742
23.3281 25.7455 28.364
18.61 23.9809 30.9452
21.7949 24.4635 27.9995
18.1916 23.4993 28.7213
18.3615 22.0042 27.6389
16.0486 19.2731 22.5997
15.0667 20.7114 28.2249
12.2087 14.4132 19.7989
14.4257 19.6286 27.9202
21.2699 25.595 31.7906
17.9237 22.3392 29.0267
17.5672 22.1772 27.6235
14.8766 20.9265 30.9236
19.9397 23.0691 30.0851
18.9174 22.3627 27.111
17.6567 22.9068 30.7136
18.7297 24.3592 30.801
16.4959 17.7317 21.6087
15.5665 19.2163 23.7732
12.7737 18.7129 27.5541
19.4343 25.5567 32.2497
14.892 20.4739 29.189
15.6579 22.0817 30.9165
14.5712 18.2327 24.1919
16.0318 21.5423 29.5762
16.8901 22.0853 27.7591
14.657 20.2942 28.7274
12.7986 15.9824 24.6487
19.7559 24.7279 30.2132
13.9516 20.0118 29.6314
17.7444 24.4948 37.175
22.4426 26.0247 31.599
15.4609 21.2861 27.917
14.4622 20.8266 28.6262
12.4957 17.7909 27.0351
17.226 23.3496 33.1847
16.6418 19.9167 27.2733
17.0341 25.003 35.5337
15.5238 19.0471 28.0156
18.9339 23.3859 27.9417
15.2808 23.9644 34.3936
16.4061 22.8945 32.5501
12.5781 18.0087 29.3608
18.6959 25.0624 32.5303
16.7639 22.1473 29.3532
13.9506 20.1555 28.7922
14.7413 21.2074 32.1542
15.8008 22.7821 32.7719
13.8972 19.8516 30.2128
16.5458 26.1603 41.0035
15.7093 19.0545 26.5638
17.493 28.8355 45.7865
16.8213 19.7869 21.6713
12.8217 22.2871 36.1903
15.2827 22.7293 36.9705
15.2877 20.6388 30.1142
16.1015 20.7458 28.0612
15.4213 22.2715 29.5343
14.1117 22.9768 36.6975
17.782 24.847 36.4527
15.6609 20.6692 27.521
13.2183 22.7384 37.9389
14.9 20.2946 30.6563
14.4153 21.5659 33.9211
15.0316 19.4368 27.3022
15.0564 21.7543 30.1376
10.681 17.228 28.4236
12.84 21.4741 34.3085
14.611 18.8862 27.2816
13.0043 19.9787 30.7976
13.9544 21.0593 31.211
12.1085 20.116 33.757
13.7245 20.4463 32.7173
14.1261 20.1362 31.1576
12.4 14.1603 20.8639
12.552 20.4637 30.7593
11.5103 18.8471 30.5269
12.2668 17.6675 30.3479
16.085 23.554 34.8854
14.575 22.5479 35.8434
13.8933 20.3597 32.999
14.3731 20.5629 30.3526
11.1723 16.6113 25.3601
12.0746 18.5332 29.1791
12.7757 20.4992 30.8467
11.0939 17.291 28.5513
11.3741 17.476 30.5951
17.2928 28.7339 44.0212
16.5653 26.7377 44.782
13.0299 18.7563 33.4774
15.1759 22.7036 30.7822
13.5419 24.2369 38.0384
12.5202 23.2898 42.6216
14.659 18.6651 26.7146
9.82749 15.1773 26.892
12.4737 19.7878 30.5544
10.8981 16.7491 29.5609
14.6997 25.1572 37.4823
13.0497 22.2553 39.2226
11.2245 17.9067 32.7309
15.1904 21.5031 31.5636
11.1239 21.1925 41.9446
15.2968 22.7855 38.6582
13.4834 17.3407 24.3561
10.0499 18.6249 33.0261
11.5037 19.6856 33.146
11.5792 18.3798 32.1194
11.8678 19.0662 30.6541
10.2673 19.1856 38.4331
13.7041 22.8791 39.4321
13.1646 20.5722 34.0981
13.077 21.3743 38.2501
13.0336 17.4543 29.0814
15.6545 27.536 44.8498
14.7554 25.4973 45.075
13.2969 20.7568 30.256
9.64239 19.1373 33.3736
9.8111 17.925 33.7567
10.9195 17.6776 30.562
11.7116 19.3408 32.5319
9.76425 15.5754 26.0242
9.12335 17.0952 33.1574
10.1334 19.8403 41.1118
12.2163 17.3503 26.1306
9.826 20.1742 37.7109
10.4022 17.1624 33.0721
13.5686 27.0733 53.7536
19.7263 33.7841 56.151
10.6344 13.3781 21.7607
10.5743 21.0703 39.8454
11.3851 18.4082 32.9144
10.7621 16.7209 30.8141
10.0912 15.039 28.3554
14.328 25.0603 38.8178
10.1775 17.0256 28.7003
10.1959 21.2588 44.3264
15.12 26.5653 44.3512
12.2386 21.8603 38.0456
8.72714 12.3432 21.8305
8.09299 17.081 33.8316
9.2982 18.3691 37.583
12.3272 20.2412 34.1935
9.85696 18.0071 32.4022
9.23091 16.4965 33.6716
11.1353 21.0424 39.596
10.0386 18.5937 41.2644
14.2509 21.9758 37.4229
9.93353 17.9453 38.1568
14.8404 22.9878 37.6371
10.45 18.4687 36.323
14.4325 24.4741 38.0399
12.4362 26.1956 46.0176
8.18647 14.3996 30.9742
11.5423 25.123 50.3821
11.1511 19.0498 35.2859
9.95934 18.4572 34.4429
10.4605 18.3145 37.2
11.6505 22.9252 43.4336
10.7824 19.3515 34.2348
10.4871 20.9445 43.4273
11.031 20.7506 41.1048
12.1191 22.3614 47.0363
13.8562 21.801 38.6626
9.50619 18.0287 35.8705
9.59615 16.7462 33.2242
11.1266 24.1112 49.687
12.9065 22.1195 39.5821
8.60516 17.8382 37.9278
9.30595 16.2079 34.523
12.9462 21.9135 42.2712
14.5601 27.2445 46.6922
9.31759 19.342 34.7146
7.36852 13.7866 28.3397
9.67017 20.3573 44.4418
11.4047 18.7229 33.7579
8.80241 17.4056 33.3149
7.36454 16.5328 37.0484
8.80081 16.543 32.666
9.28552 19.0836 39.8876
9.87104 17.255 30.89
7.80021 17.7319 43.9716
11.3712 19.72 34.928
8.84084 16.9998 32.5017
9.24619 16.926 29.7946
6.50353 15.9491 36.1063
8.44907 16.1837 33.8499
6.66948 12.5876 29.5534
8.58622 17.0254 34.3589
9.19302 18.4768 38.9683
10.3667 20.0564 42.3929
12.305 22.7943 40.409
7.06757 13.7958 34.5777
10.784 19.162 32.2875
8.54369 18.269 39.4794
9.94001 20.864 40.1599
7.33138 15.5485 39.5321
9.71016 16.729 30.7963
7.72431 18.7602 41.2857
8.60283 16.8953 39.9611
8.62274 16.4906 37.9572
11.2191 19.1596 35.3563
9.41389 20.736 41.2839
9.17918 14.8775 30.9877
10.8989 25.6437 52.4634
8.53454 13.8968 27.2396
9.39426 23.012 48.6264
10.3012 22.1262 46.8546
8.88467 19.2886 41.8454
9.12451 17.4091 37.9821
6.92699 13.6909 31.4721
9.924 21.1365 40.8554
7.6606 16.3302 37.0564
8.73376 19.9121 40.4715
7.17314 16.7114 44.0094
9.62588 17.3523 34.9717
7.76166 20.3469 48.5898
9.88426 16.8832 34.9382
11.1883 24.3574 47.4177
8.87624 18.5743 41.3328
8.88622 18.59 36.5977
6.80967 14.0737 29.3008
7.06917 16.2414 38.1295
7.27196 17.7269 44.431
9.4641 19.5069 45.2619
9.11825 16.1568 32.2658
8.95489 19.4993 38.9007
8.37071 19.1058 44.286
8.20761 16.7292 32.6385
6.89892 18.0289 44.4367
6.48228 12.9737 38.4263
9.71924 19.9549 39.9693
7.73708 17.0895 35.3179
6.53808 14.987 34.2398
6.40572 13.7826 33.3437
8.67237 20.3031 46.7703
9.20737 16.0413 33.6992
6.64537 15.4228 41.4794
10.2193 21.2536 40.1842
8.50103 19.7019 43.9112
7.62364 17.3727 42.7449
7.98608 16.8033 41.2596
8.51297 18.2685 45.3538
9.47148 17.6935 36.9865
7.79897 15.5632 34.5882
9.48412 20.6407 41.9725
7.30972 16.3402 34.5125
5.2286 11.8772 31.79
6.21853 11.7696 28.1339
7.13488 18.9741 43.4858
7.30582 16.1504 40.5344
8.13632 18.9466 43.5356
7.29164 15.3977 32.5151
6.58023 16.3135 42.7249
8.98413 23.2479 50.3518
5.6738 10.7292 27.0537
7.27658 19.5454 52.8421
9.98327 20.2023 43.75
8.52678 17.9972 38.7844
6.76125 14.0447 35.9368
7.17878 17.4604 41.5614
7.30824 15.2298 34.3764
7.12434 16.7461 39.1406
7.40424 15.1253 37.2364
8.42819 19.6101 45.1005
8.93978 21.6119 52.2086
9.81872 19.8355 37.0966
6.765 20.7726 54.511
6.25578 12.5404 38.4906
7.69841 14.7289 36.0155
8.82193 18.8916 37.8497
7.29218 18.3417 39.7304
5.16436 11.6837 29.6009
6.54197 17.338 52.4524
8.91493 16.136 30.5071
6.42644 15.9489 36.6317
6.70597 15.6605 34.5575
6.71771 17.8596 45.3442
6.98849 16.5692 43.1248
6.72921 15.8769 40.2129
6.39821 13.9065 32.5411
5.95531 13.4631 36.0785
6.7555 17.1342 46.0563
8.11371 18.9017 46.8835
7.97033 17.6652 36.9249
7.34867 22.6537 56.303
6.41196 11.2546 31.9103
6.72632 16.1049 43.0518
7.09622 15.3296 36.6619
5.59968 11.4955 29.005
7.14829 18.6377 40.8957
6.03924 14.5303 38.2276
6.76342 16.0069 37.4155
5.89191 16.5481 43.3736
6.48352 14.7844 41.1951
7.71374 15.2832 34.0701
6.32343 17.047 43.8866
5.60895 10.7953 29.2571
6.74404 16.9811 41.0154
6.05954 14.7152 35.1269
5.92261 15.1742 42.0313
8.74512 20.5902 46.8265
6.89892 18.0639 47.017
7.48196 16.2451 37.3679
5.49115 14.5483 38.7261
6.32458 15.57 39.9313
5.68635 12.9253 33.011
6.51598 16.8914 46.5431
7.54393 17.8344 39.944
6.17109 15.3335 35.6588
5.64188 13.7835 35.7364
5.44862 15.7192 47.774
8.00998 18.0292 37.232
5.16776 15.3159 40.8548
5.90825 16.1001 49.8749
7.60678 15.5198 35.9566
6.02517 15.3806 44.8061
6.92419 19.0945 50.1511
6.16009 13.2847 35.3085
5.92846 15.9876 47.8117
7.85471 18.5698 40.5627
5.54954 13.3359 36.3812
6.30287 16.5444 38.6592
5.68949 15.7704 43.1495
6.26913 16.7177 47.3
5.65629 10.6151 24.418
5.0592 14.5434 34.0481
5.28126 15.9816 49.4699
6.77311 13.9233 39.2616
6.58569 15.5912 39.2084
5.14791 13.8987 41.2023
7.18334 16.6914 37.1352
5.19885 14.0433 35.9939
4.93564 12.8078 40.1155
5.81707 14.1088 30.1921
4.19601 12.3055 33.698
4.97193 14.6903 44.7228
5.96038 13.0194 35.8206
5.64183 15.0716 36.5021
5.17846 13.4332 30.6693
4.55234 14.1446 41.5134
4.65386 11.2952 37.4209
5.36246 15.1372 40.7482
6.1523 14.1459 36.5644
6.11903 17.9019 45.4098
5.63739 18.3505 48.8269
4.9681 11.3326 36.7936
6.10545 14.7061 37.0035
5.22715 13.2432 33.4977
4.70477 11.0634 33.0032
4.4904 9.45221 28.7741
5.53614 15.9405 42.6751
5.5555 13.007 36.4574
4.34824 8.58338 26.3611
4.41724 13.307 37.5878
4.79658 12.6445 34.8076
4.17899 11.4946 36.6114
5.7827 16.4161 42.6721
4.88016 13.0505 37.1997
5.58222 12.4412 31.7831
4.77153 13.6566 35.8001
4.65674 13.5854 40.8747
5.07637 11.3736 30.3634
4.54454 13.4982 32.5321
4.00073 12.4688 40.145
5.39231 12.9775 41.1521
6.79964 16.7106 36.6192
4.92839 15.6126 42.482
3.94386 9.98893 33.5837
4.7281 13.994 44.4136
5.92222 13.1164 31.4296
4.57943 13.1972 38.3736
4.96772 13.4754 34.9703
4.91483 16.0643 42.417
4.22421 11.8108 39.7373
5.07641 14.4394 40.0144
4.16986 12.3852 45.8334
6.54812 12.5446 33.603
5.0456 12.7034 34.5385
4.2491 11.8046 31.2049
4.04053 12.0298 34.3462
4.65291 11.6357 34.4171
5.28487 12.6251 34.1326
4.86045 14.4478 45.5371
5.82036 13.2552 34.7381
4.99465 15.2409 42.7702
5.37371 17.0195 54.7369
6.7019 14.1808 29.5182
3.97655 14.4962 48.868
6.07766 14.3578 37.3006
4.06401 11.9763 37.766
4.60187 12.2665 31.2293
4.21118 13.8229 39.3425
4.8214 12.4653 42.0109
5.51484 15.5032 40.07
4.59975 12.189 42.3876
5.81209 14.3392 36.1146
4.64789 13.3803 38.102
4.72952 13.1274 38.8585
4.22797 12.1844 38.9654
5.04812 15.8474 46.8265
5.1302 12.2574 35.0847
4.56098 11.3621 34.5219
4.05317 10.5314 33.0266
4.54062 13.4318 36.5063
4.82357 14.3505 41.7645
4.71855 10.5883 36.0793
4.93089 12.3817 28.4332
4.08634 15.1611 46.1524
4.805 12.3793 39.8352
4.35727 11.9836 31.1788
4.4651 13.1362 36.3158
3.87529 13.2114 39.8886
3.78381 9.6708 34.203
3.95419 12.0855 43.3961
5.06425 13.1789 43.5549
6.41276 18.2087 41.8653
3.95874 10.7149 30.5451
3.23102 10.3454 34.1407
3.61536 11.4578 34.9866
4.20991 9.86449 37.8558
5.09632 13.3264 37.6625
4.31692 12.661 41.8234
4.19521 11.3931 37.6116
5.36508 13.6354 34.0894
4.18426 11.5637 35.9664
4.31055 11.1725 28.7372
3.33241 12.0164 44.646
5.16293 12.6819 38.8321
5.38889 18.1938 55.3242
6.16013 17.5727 56.5219
5.33521 12.2585 36.3236
5.01856 14.7114 40.4915
4.42258 13.3598 41.6726
3.90027 8.92476 28.7508
4.11194 13.4624 41.6843
4.71651 13.9725 43.545
5.91286 14.4783 44.3763
4.7602 11.0976 33.5095
4.66529 14.8118 41.2427
4.16991 10.4846 27.1264
3.08071 8.27234 31.4022
4.45036 13.0527 40.4015
4.43809 15.183 43.0189
3.90848 11.1136 40.6644
4.45945 14.5189 43.3697
4.85101 12.6267 38.7454
4.55191 13.7413 37.752
3.68828 14.2143 44.9878
4.01362 10.466 38.1158
4.39603 10.4777 28.5295
3.56717 10.9052 40.4116
4.48008 10.1877 34.293
4.81651 13.7035 36.4348
4.22131 14.0638 39.3899
4.08194 13.7106 46.1631
5.19474 17.8479 60.9964
5.48627 12.2652 32.6772
3.48541 11.8597 41.9618
4.90257 16.2014 53.3623
4.76241 12.4298 39.7608
4.3122 12.6491 36.1221
3.80219 11.7685 35.1332
3.19645 9.20152 42.4405
5.52176 14.9054 36.9499
3.86772 12.709 48.2271
5.88738 17.5707 47.8367
5.4148 18.8676 55.755
4.99804 14.4204 45.5187
4.2479 12.6754 41.9712
5.55247 24.421 111.878
12.6217 37.6473 79.2341
5.01505 13.474 39.6841
3.51883 12.1811 56.5567
5.60779 13.1279 39.979
4.56236 11.4615 40.8293
4.95056 16.546 46.7035
4.6882 11.7543 35.587
4.3367 20.1723 63.9133
5.18002 11.749 37.0847
3.86328 10.4268 36.7887
4.08681 9.74003 22.8198
3.17143 14.4053 51.7045
5.17485 13.8956 43.6834
4.34031 13.1684 37.2646
3.29319 10.244 29.6952
2.20228 8.00016 37.103
3.98897 11.5746 41.6664
4.41597 14.3995 41.5758
3.49959 8.29374 33.0747
4.07548 12.2935 33.1739
3.22752 12.3606 41.3883
4.0129 12.3053 45.6547
4.30905 11.8294 38.8941
4.12007 13.8177 40.9046
3.99609 12.1099 46.1856
4.85586 16.5651 42.4013
3.60674 12.8999 44.3492
4.18421 11.5145 32.8663
3.13259 7.49116 29.0132
4.35007 14.5105 43.2524
4.22166 13.5498 44.9118
3.62118 10.9317 39.2701
4.06003 12.3309 34.9043
4.10122 15.3996 60.7813
5.54096 14.8104 41.5709
3.65098 10.8945 38.3362
3.62254 10.5569 43.9261
4.88611 13.2291 45.9773
4.8275 16.0288 45.0048
3.86564 11.0961 40.2354
3.4389 11.3928 54.2123
5.96047 17.1623 45.4967
3.94634 12.4525 49.4318
5.31082 12.459 35.2455
3.6569 14.8352 50.0126
5.12652 12.6083 36.2935
3.85124 13.6922 34.4715
2.70202 10.2842 41.218
3.66251 11.4161 35.9958
4.01151 12.2432 40.2375
3.95158 17.2669 59.3725
4.732 11.8281 36.9911
3.65956 11.2543 40.0051
4.00753 10.9859 37.4876
3.70594 11.355 30.6829
2.57539 8.7091 34.0446
3.31002 9.56794 37.392
3.59831 10.443 35.7856
3.48348 10.271 29.9466
3.24169 11.3719 36.6058
3.03621 10.5351 44.3069
4.66537 14.6207 39.8042
3.09549 8.84438 34.9064
3.89169 13.6823 44.4542
3.54142 11.4154 43.1002
4.19667 11.9139 31.9002
3.1073 11.9515 41.9585
3.61235 11.5825 45.7722
4.34664 11.7424 41.0196
4.1153 10.7777 23.0968
2.07151 9.07592 32.8469
2.79026 8.8929 38.1422
4.42092 13.7108 39.1543
3.50198 11.7984 44.6196
3.85333 11.283 51.0219
5.21213 14.4909 41.2478
3.84087 14.5357 44.9141
3.5466 9.79826 32.7226
3.08403 11.1038 37.7963
3.61446 11.6538 38.1276
3.19035 8.94147 38.471
4.15519 13.1162 44.0238
4.3325 16.4837 61.6604
4.96737 12.04 38.742
3.67767 11.9354 38.4225
3.33504 10.0352 30.7271
3.20712 14.3224 51.564
4.23211 10.6784 25.8022
2.16886 10.8959 45.4426
4.05378 10.7925 38.1616
3.08759 10.0564 32.1764
2.89696 9.54403 34.0926
3.38117 11.4041 40.9988
3.63198 9.22501 30.6024
3.12359 13.1733 41.1842
3.7101 13.8144 51.2203
4.09617 12.3131 49.4716
3.86232 10.9162 39.9869
3.66809 10.5652 41.049
4.15536 13.5352 39.9178
3.2332 9.14484 33.8848
3.28564 12.951 47.4295
4.06263 10.5723 33.47
2.77616 10.4719 37.3752
3.99629 13.3974 33.2809
2.36746 11.8566 45.8114
3.70718 10.5426 33.6212
2.53388 10.5578 49.6141
4.48783 11.2581 41.7901
3.72604 12.9948 46.1665
3.73959 10.5674 42.0225
4.18317 14.1611 44.2558
3.58914 10.8121 41.8666
3.56469 11.0755 34.4795
3.21234 11.8193 37.9687
3.02126 8.79736 27.2628
2.5013 7.80378 32.4818
3.01929 13.3185 46.9837
3.57705 11.4002 41.7698
3.81753 12.1764 47.7453
3.71654 10.917 27.397
2.73379 10.3215 37.0296
2.81178 9.32595 37.0641
3.14955 12.3272 39.6469
2.68881 9.06799 35.6676
3.26986 8.81985 34.2149
3.00757 11.1869 38.5923
3.16434 9.48016 40.0284
4.19874 12.9279 43.4504
3.56617 9.93545 37.0417
3.15118 11.951 40.1413
3.58396 10.4359 34.648
2.79351 11.0518 47.2238
3.73566 11.5019 35.4011
2.90899 8.09566 28.9163
2.44282 9.85717 35.9085
3.07793 12.9298 57.8592
4.65963 11.9307 40.2148
3.57107 11.4491 34.2143
3.17619 11.6205 41.1844
3.28267 8.20814 35.0295
3.33975 10.6572 35.5948
3.0919 12.2806 45.0773
3.7652 10.4341 36.1103
3.32164 13.3483 43.3038
3.01839 10.5689 47.2966
3.91512 10.7435 32.2731
2.80324 9.9064 31.704
3.04034 12.9166 50.2136
3.68043 9.39108 36.4805
3.17906 11.8964 40.953
3.43531 9.77228 30.6467
2.2114 7.83484 35.8983
3.14787 9.94374 37.1347
3.46321 11.3971 34.3938
2.93342 9.19774 33.3611
2.78301 10.3831 37.4962
2.83438 10.222 41.4714
3.35758 9.96343 33.8934
2.79011 11.3736 42.0915
3.1432 8.24734 37.6456
3.68857 10.6411 33.676
2.68706 8.45611 37.2975
3.45034 12.3349 37.7078
2.89844 10.8953 36.4985
2.6823 10.3263 36.0971
2.58519 10.0715 44.9829
3.80326 11.094 34.5368
2.66834 9.55989 33.1272
2.98267 10.3584 37.2753
2.49757 7.53451 34.2746
2.55849 9.70161 40.3896
2.65226 7.65713 34.5765
3.14194 10.7903 37.1664
3.33345 10.673 31.4313
2.41795 9.48184 39.8571
3.18185 9.50811 27.7642
2.42653 8.87927 37.1112
3.25372 13.962 45.2191
3.18488 10.0568 39.4379
3.24452 11.2914 39.8195
2.93488 10.3636 34.2893
2.93232 10.7109 42.1625
3.18105 9.58035 35.6587
2.6766 11.0903 37.3642
2.75593 8.93167 37.6287
2.7546 8.69574 39.0517
3.27666 11.6058 41.3324
3.25255 10.7274 38.2756
2.76798 9.70999 48.9138
3.85379 12.7684 45.9254
3.40313 11.6688 36.0436
2.51345 11.3454 43.632
3.75016 12.3861 38.2465
3.09851 11.2877 37.4204
2.6563 9.48098 43.3055
3.14189 8.55102 33.5516
2.98882 9.38355 29.6188
2.35877 8.86681 38.8711
2.86381 7.40772 30.6592
2.7268 10.0588 31.4815
2.58465 11.0284 44.5222
3.48153 10.9198 35.8581
3.06894 10.0127 33.6055
2.44944 9.78897 40.3243
3.0005 9.02279 33.101
2.81936 9.53642 37.2304
2.84394 7.87423 35.1694
3.00621 11.8389 33.4892
2.49357 11.028 48.3826
3.47329 10.0449 36.2797
2.629 9.67235 32.7828
2.55731 8.71379 42.452
3.23441 16.9233 73.9043
5.3935 17.5895 62.2155
4.5404 15.2615 64.867
4.80398 16.2455 53.8374
3.83167 12.3386 41.8837
3.22926 10.7659 37.5438
2.81607 8.54853 31.1631
2.37533 8.66231 32.5938
2.58784 9.59004 29.3648
2.50931 9.87469 39.6501
2.65527 10.6088 42.6323
2.91116 9.08602 35.7948
2.88026 12.5953 45.8523
3.36607 11.5395 44.9577
3.59653 8.13521 27.87
2.51836 12.0759 41.6931
2.73132 8.98826 40.8027
2.82926 9.44765 35.6674
2.34211 6.21789 29.5127
3.08525 12.5712 65.7152
4.80204 14.2828 40.651
2.91319 8.28085 25.7956
2.29537 11.9484 50.9629
3.4108 13.9133 38.0441
2.485 8.699 48.3188
4.22294 14.7809 40.4662
2.92403 10.7184 41.4157
2.6063 9.06225 34.6949
2.47758 9.3904 41.9666
2.9659 9.38083 32.747
2.81399 10.9795 46.8339
3.44859 10.0637 35.7113
2.7057 9.25321 37.0997
2.7319 10.4573 45.6053
3.3512 11.1002 38.0737
2.61563 8.12834 28.6742
2.46005 13.1131 57.6535
4.49174 12.1173 37.284
2.91537 8.1796 35.9511
2.83509 10.545 37.7723
2.86189 8.33405 34.9462
2.49308 9.88734 38.725
2.57384 8.03772 36.8319
2.7783 10.252 32.7076
2.56366 9.03488 33.4785
2.65398 10.7642 42.1727
3.31094 10.3479 36.2806
2.72958 10.7689 32.9931
2.2963 8.07316 43.6826
3.36709 9.19736 31.3527
2.34565 10.4245 42.4237
2.87296 10.891 48.8287
3.90493 12.3182 46.4955
3.71226 11.6642 38.866
2.64131 9.48935 36.8525
2.65855 10.4641 62.3358
4.26186 14.0316 42.1051
3.07917 9.71118 32.9076
2.67437 11.2606 35.4925
2.5202 9.15221 44.7946
3.33892 10.2852 33.4748
2.23092 8.54082 39.4064
2.66343 9.40171 42.4222
3.63474 10.0005 31.632
2.35762 10.3128 40.228
2.57238 9.39255 30.8877
2.39192 9.60813 40.6787
3.20501 10.3946 33.1671
2.19266 9.57469 38.7711
2.94066 9.04131 48.5927
3.25596 14.9311 44.3617
3.01655 8.79786 38.5663
3.03017 11.5832 42.0943
2.87752 7.35461 33.5471
2.56565 9.65696 36.2462
3.06193 8.4888 35.4633
2.55755 10.0355 39.2931
2.48122 9.36721 39.6913
3.00839 10.5307 35.2379
2.84992 9.98921 30.0621
2.08282 5.70614 33.6685
2.63755 9.5526 34.6582
2.35405 9.48433 37.3181
2.76636 12.4001 39.5828
2.61714 11.7583 43.3871
3.1317 10.0078 35.2002
2.40891 9.68052 35.2717
2.45193 9.20182 43.582
2.79885 9.05423 32.376
2.4469 10.4911 36.6239
2.48651 6.8042 38.639
2.91869 11.2512 42.1431
3.4798 10.0748 35.6115
2.49933 10.589 42.4687
2.91858 8.03905 25.3358
1.69908 7.88404 27.6795
1.91533 8.55388 36.8486
2.49202 7.76835 38.2411
3.25318 10.6358 40.3655
2.77134 7.769 39.8262
2.70758 8.53848 38.2911
2.9664 11.5845 32.204
2.3001 8.73109 35.0938
2.43765 7.74272 33.1998
2.70907 11.2649 48.1524
3.22044 10.8143 39.4523
2.69702 11.6853 43.0223
2.76198 8.77194 29.4667
2.13214 9.52735 35.5705
2.63008 6.95571 38.637
2.80921 9.59706 37.2318
2.71097 9.98536 38.7367
3.12921 10.4674 35.343
2.40527 8.37966 34.3673
2.52348 9.67724 36.7695
2.37822 10.5147 45.7913
2.81616 10.5687 45.7098
3.0359 10.0286 35.5177
2.50645 9.52708 37.3971
2.69806 8.12365 39.828
2.72284 11.2623 36.6835
2.58023 9.75154 43.7292
2.73212 8.98848 34.3313
2.40563 9.35361 40.9427
3.29671 10.1647 30.3581
1.95545 7.0228 29.7598
2.01583 9.67752 36.2431
2.34148 9.608 39.4576
2.508 9.36255 42.281
2.86448 10.8856 38.5449
2.4822 8.37592 36.3862
2.63731 8.46334 37.2593
2.43889 11.3362 39.7928
3.03301 9.79113 32.4964
2.20674 7.77234 32.1976
2.20703 8.2086 40.8586
2.85286 9.54136 34.124
2.26429 9.92576 41.2816
2.79247 9.27042 35.2637
2.39714 7.51188 33.7093
2.4799 11.3014 46.5803
2.88573 8.94105 33.0513
2.1979 8.73425 35.9381
2.6423 9.01591 38.552
2.44689 9.11091 42.0721
2.92857 9.60153 31.9143
2.33516 8.5551 32.4552
2.41087 6.7234 31.7733
2.43615 9.47727 35.9731
2.20685 10.0626 30.8058
1.96947 9.274 39.0906
2.67864 8.19694 41.3252
3.0115 9.5083 35.3368
2.53151 8.5629 34.6774
2.30663 9.85256 30.9399
2.34733 7.71489 28.7579
2.04388 7.61336 35.2617
2.26865 7.12155 33.898
2.71171 7.62172 31.7155
2.34303 9.54477 36.5584
2.60434 8.66678 32.1141
2.29484 8.53706 39.8578
2.52238 8.76433 27.065
1.74279 7.31211 33.7912
2.59925 8.89315 43.1474
2.9215 9.55744 27.6372
1.69086 9.58594 36.9898
2.67897 9.4371 38.2598
2.57558 9.86597 34.2572
2.50933 8.27789 35.8812
2.56467 8.11394 36.1359
2.63557 10.1772 28.2847
1.69833 8.70252 37.1316
2.39983 9.05053 44.1409
3.22667 8.74483 32.9828
2.55683 8.98769 35.8552
2.14048 9.04766 30.5649
2.19675 8.54155 40.3501
2.89947 8.45418 24.3552
1.97362 7.09225 40.5698
2.94636 8.35647 30.0716
2.36506 11.0048 49.8362
3.43363 9.59241 33.8862
2.41172 10.2852 43.2115
2.90211 9.87072 38.6916
2.98257 8.97632 44.0483
3.11558 10.7202 34.0966
2.68588 8.92974 34.8461
2.4436 9.95841 41.6076
3.1398 9.3254 38.6717
2.88842 11.7323 43.0821
3.01828 9.62881 44.1039
3.32821 10.8803 36.6535
2.22228 9.28634 36.2952
2.37989 9.05638 25.0862
1.77938 6.40327 34.1914
2.37509 8.66211 44.9471
2.76198 10.1691 34.734
2.43198 10.3326 39.3577
3.02558 8.23452 39.8886
2.65684 12.1574 37.6527
2.45375 8.00554 39.034
3.0086 9.31717 33.0707
2.36483 8.61824 29.682
2.13342 10.9188 49.242
3.33159 10.8147 39.7963
2.5048 9.3489 45.4346
2.93016 11.4327 33.1479
2.2212 8.26733 41.5427
2.70102 9.97302 31.2734
1.96286 8.44464 36.534
2.50919 10.9591 50.0898
2.83151 0 0