# pn-170911/RbIIR-50-USN3-1280-1959.psd
# Power spectrum* (dif=0,1,2) (really just |FT|^2)
# NOTE: only the first half! (symmetric)
# weeks: 1280-1959
# 1647 clock-days, 193 excluded
# PSD: 1441
1161.54 0.0847709 0.0307798
23259.6 0.426685 0.0405061
139257 2.9146 0.0364331
18704.3 0.786572 0.0358847
59998.5 4.67018 0.0377117
6885.09 0.708522 0.0381914
5766.18 0.93966 0.0369406
3593.7 0.736832 0.0414165
3876.62 1.06741 0.0377532
2194.38 0.754927 0.033807
1988.96 0.837733 0.0365247
1553.66 0.808745 0.0356088
1471.62 0.908825 0.0371082
1133.96 0.838113 0.0372689
1051.53 0.915075 0.0356952
926.112 0.906263 0.0368819
908.346 0.982962 0.036501
788.798 0.952792 0.0383288
744.027 1.01172 0.0386652
680.699 1.01567 0.0414853
650.815 1.10976 0.03904
599.069 1.1121 0.0380935
550.29 1.13963 0.0412928
508.236 1.09665 0.0404231
499.794 1.24868 0.0375731
471.194 1.20631 0.0426174
449.668 1.28317 0.0429484
431.346 1.30625 0.0400064
434.078 1.45549 0.0408118
404.21 1.40226 0.0420672
410.013 1.54743 0.0445956
385.773 1.54801 0.0467578
376.473 1.56087 0.0466641
355.036 1.6065 0.0458252
339.199 1.62741 0.0464742
345.632 1.71639 0.045835
311.309 1.63437 0.0450322
320.47 1.81884 0.0501167
303.239 1.88201 0.0483402
313.558 2.02029 0.0511373
300.957 2.07995 0.0492369
287.95 2.01019 0.0511224
295.528 2.19568 0.0543037
277.976 2.17578 0.0555016
275.556 2.25716 0.0551311
273.521 2.35658 0.055994
266.954 2.44079 0.058532
263.474 2.45888 0.0599065
275.212 2.69099 0.0617435
252.111 2.58745 0.0681758
245.916 2.67409 0.067626
257.25 2.81347 0.0676472
255.028 2.93517 0.0706089
235.214 2.78638 0.0708374
233.386 2.93637 0.0778467
237.878 3.05296 0.0828212
244.243 3.30415 0.0887804
233.278 3.2353 0.0849965
218.929 3.23781 0.0891811
216.836 3.36727 0.0914529
211.496 3.353 0.0934682
215.857 3.51441 0.10304
214.354 3.69414 0.104924
212.702 3.67508 0.106048
206.911 3.69742 0.111251
205.236 3.79868 0.111619
207.196 3.91226 0.117763
208.474 4.14773 0.128063
197.733 4.115 0.129444
194.141 4.08567 0.131215
200.852 4.3905 0.139555
189.697 4.17102 0.136657
192.674 4.48447 0.145783
192.258 4.50998 0.151041
188.899 4.59373 0.154756
191 4.75706 0.167339
194.792 4.96881 0.17264
180.487 4.76733 0.167633
180.538 4.85474 0.178597
178.594 4.83158 0.183844
176.87 5.08401 0.185849
180.297 5.31675 0.201678
178.185 5.46852 0.213447
194.066 6.06106 0.236075
171.58 5.4297 0.224521
176.948 5.73044 0.230248
164.581 5.59056 0.233583
168.508 5.76079 0.242048
164.706 5.71552 0.242069
158.505 5.65495 0.249093
168.47 6.16176 0.274585
170.059 6.36697 0.288953
163.209 6.28351 0.289365
157.873 6.14432 0.290083
158.739 6.33803 0.305161
159.834 6.48571 0.317881
167.595 7.04472 0.341854
151.673 6.43554 0.3249
150.284 6.51861 0.338784
161.092 7.1084 0.369473
158.545 7.1721 0.374094
157.51 7.2872 0.391374
148.342 6.91319 0.376425
155.935 7.55884 0.405767
147.909 7.27607 0.404852
151.876 7.53539 0.43212
158.116 7.99668 0.462601
153.589 8.03167 0.473193
138.44 7.34962 0.439055
141.208 7.61418 0.468343
136.496 7.48519 0.474699
139.666 7.85901 0.49711
136.465 7.76025 0.489006
138.588 8.0644 0.516422
146.952 8.77733 0.578032
138.123 8.3095 0.558279
140.136 8.57502 0.584377
138.37 8.76918 0.606242
138.156 8.82356 0.620097
139.936 9.08426 0.653504
132.146 8.71651 0.627931
139.744 9.35302 0.693968
133.853 9.14339 0.682146
131.828 9.08768 0.690368
132.792 9.4144 0.725192
131.659 9.4883 0.733528
137.31 10.0936 0.811464
128.044 9.4923 0.766029
130.642 9.7365 0.790419
130.124 9.91446 0.827182
123.143 9.6486 0.819669
125.445 9.97975 0.837525
129.268 10.3305 0.893977
126.914 10.3917 0.911611
127.488 10.5424 0.927495
122.593 10.2557 0.933255
123.798 10.5784 0.974193
127.572 10.8894 1.00736
125.496 10.8795 1.01122
125.229 11.1579 1.04892
124.806 11.3406 1.08877
116.422 10.567 1.02775
116.811 10.8313 1.07512
119.452 11.283 1.12395
119.993 11.4763 1.17593
111.896 10.7738 1.10773
116.036 11.2679 1.17095
115.863 11.5729 1.20985
118.349 11.7925 1.24333
113.755 11.6112 1.24379
112.103 11.6714 1.28972
113.545 11.9486 1.32696
121.569 12.8153 1.42942
115.175 12.5056 1.42544
111.222 12.3178 1.41041
111.861 12.3066 1.43787
110.776 12.5357 1.47727
113.503 12.9054 1.5452
110.023 12.606 1.52055
107.144 12.4689 1.54357
115.336 13.5935 1.66477
111.05 13.2644 1.66705
109.15 13.1891 1.67224
108.372 13.4257 1.72055
109.883 13.6023 1.77095
105.199 13.2621 1.74277
109.089 13.8964 1.82432
107.651 13.8059 1.8405
109.904 14.3039 1.9309
105.202 13.8121 1.90293
106.694 14.0754 1.93235
105.988 14.1973 1.97949
100.249 13.7971 1.97487
105.704 14.5038 2.08986
103.317 14.4074 2.08386
102.448 14.4006 2.10716
105.16 14.9946 2.21121
103.252 14.9264 2.24817
105.65 15.3622 2.33365
101.189 15.0979 2.31802
101.473 15.2239 2.34437
102.897 15.5093 2.43836
101.204 15.3705 2.42698
97.3497 14.9697 2.39397
96.767 14.9981 2.42856
100.495 15.652 2.52836
96.2226 15.4731 2.5609
99.4572 16.1399 2.68515
96.2756 15.6024 2.61464
97.238 15.925 2.71643
92.1002 15.4164 2.63646
95.3725 16.0291 2.8018
97.1529 16.3703 2.85834
95.9607 16.5531 2.94404
94.4067 16.302 2.90825
93.7213 16.5286 2.96663
95.8291 16.8174 3.0505
94.5047 16.8269 3.09707
86.6398 15.8299 2.95254
92.7669 16.7475 3.11004
90.7258 16.8684 3.19169
91.8425 17.0866 3.27519
96.5904 17.9833 3.44914
86.6831 16.4469 3.19057
90.1288 17.5155 3.45938
87.8107 17.0385 3.37939
90.9681 17.751 3.58242
90.2115 17.637 3.5582
89.3635 17.72 3.61493
87.0373 17.5138 3.64965
83.3212 16.8544 3.51393
86.1298 17.7584 3.74603
83.8951 17.283 3.69485
89.8067 18.7034 3.99936
86.7908 18.4457 4.03291
89.4639 18.8681 4.10631
83.8884 17.9083 3.9594
86.4354 18.5512 4.11562
84.1818 18.4933 4.13641
81.2439 17.7222 3.99644
84.4013 18.7343 4.26705
81.3942 18.1615 4.18667
84.3735 18.9868 4.40877
80.7364 18.4895 4.31962
84.2528 19.3421 4.57692
85.3477 20.1662 4.83368
83.3375 19.4926 4.68279
84.2433 19.9339 4.81549
83.4253 19.9317 4.85635
82.1741 19.5841 4.84217
79.1369 19.3877 4.82906
83.0819 20.3061 5.06522
81.2646 20.1116 5.06186
77.4342 19.3042 4.89272
79.9445 20.0086 5.13294
80.1135 20.382 5.25997
75.8282 19.3527 5.05047
77.8503 20.0372 5.30224
77.3898 20.159 5.35634
76.9589 20.1039 5.38871
76.3838 20.1212 5.38621
75.8588 20.3244 5.5285
79.2804 21.3606 5.87458
76.3041 20.5742 5.68015
77.3062 20.9919 5.84858
72.7437 20.1436 5.72193
79.3205 21.908 6.22097
75.7704 21.0447 6.01676
76.4663 21.5152 6.18969
73.273 20.6392 6.0081
71.9887 20.6913 6.05434
74.9412 21.5198 6.367
73.9448 21.2517 6.21653
74.2137 21.9916 6.62699
75.2593 22.0464 6.60895
69.9115 20.6136 6.23191
70.968 21.2316 6.55159
69.8515 21.0433 6.47484
70.4579 21.5953 6.7578
72.5516 22.0556 6.87763
69.8107 21.284 6.66127
69.2093 21.5395 6.84372
68.7367 21.593 6.89116
69.908 22.1713 7.20299
69.4398 22.1094 7.14791
69.2591 22.1825 7.2498
67.6071 21.7217 7.14315
68.3158 22.0169 7.22126
68.7652 22.7746 7.62507
67.0874 22.4683 7.75712
70.467 23.17 7.74862
67.4882 22.7696 7.90026
68.6698 23.0496 7.88237
65.5214 21.9493 7.52584
67.7127 23.0931 8.00604
68.6147 23.6686 8.37814
68.9637 23.7596 8.30443
66.9647 23.6104 8.46314
65.1315 22.8841 8.14933
66.4273 23.3028 8.41535
65.9361 23.3999 8.47729
66.1873 23.9056 8.71741
64.5373 23.288 8.57823
65.4657 23.8154 8.79017
60.6197 22.2947 8.32388
63.6411 23.2479 8.58328
63.1414 23.563 8.90142
61.2249 23.1828 8.88432
62.8452 23.9807 9.37534
64.3168 24.3466 9.35414
63.6741 24.4238 9.53805
60.0793 23.2964 9.15629
62.1396 24.0579 9.41582
60.8922 23.7302 9.45847
59.6649 23.5273 9.42414
61.9886 24.0956 9.54655
63.0259 25.1652 10.1462
61.35 24.7207 10.0641
60.8973 24.7133 10.1069
59.563 24.5874 10.3018
59.7535 24.1652 10.0133
58.0885 24.0077 10.136
58.5282 24.1809 10.1779
59.1517 24.7669 10.5062
58.2714 24.4815 10.4058
58.2195 24.3477 10.2864
58.282 24.746 10.6735
60.765 26.0092 11.3047
59.421 25.6369 11.2432
57.9216 25.0655 11.0469
56.4994 24.4562 10.8141
55.3601 24.2284 10.8017
57.3427 25.2572 11.218
55.233 24.9168 11.3129
59.3992 26.6055 12.1211
56.8557 25.2906 11.4982
57.6652 25.7035 11.6645
56.5663 26.0945 12.2848
56.278 25.574 11.7809
55.5832 25.6356 12.0418
57.1607 26.1459 12.1155
54.5392 25.6348 12.0918
52.758 24.6561 11.8061
54.8055 25.6932 12.1884
56.5655 26.385 12.5086
52.2379 25.294 12.4176
52.8176 25.2333 12.4112
54.2349 26.0776 12.7995
54.7612 26.2921 12.7742
54.2043 26.4096 13.0124
52.2777 25.7611 12.9686
52.9626 25.9159 12.9187
52.071 25.7458 12.9359
50.8372 25.2942 12.8655
51.5765 25.9893 13.3066
49.2555 25.0028 12.9491
52.2414 26.4332 13.5767
51.4693 26.2584 13.6239
51.5733 26.3731 13.5713
50.6866 26.4307 13.9567
50.0345 25.9394 13.6864
51.546 26.6959 14.1222
52.0272 27.0592 14.3731
51.5466 27.4067 14.8028
49.8817 26.4571 14.1774
48.2167 26.0416 14.3186
51.3828 27.399 14.8219
49.9159 27.128 14.8996
48.4687 26.3036 14.5227
48.4194 26.6015 14.7783
49.7187 27.6123 15.5987
49.674 26.8552 14.8882
48.2951 26.8903 15.0869
49.5691 27.8471 15.9202
49.1857 27.7923 15.936
47.5377 27.4686 16.5961
59.8753 32.6464 17.8737
50.3482 29.1908 17.57
63.1295 34.9134 19.3145
47.0954 27.494 16.3907
57.776 33.0633 18.7105
47.7698 28.1134 16.8646
50.026 29.0376 16.8196
45.5784 27.3623 16.5392
47.521 28.0454 16.7282
46.0153 27.7107 16.9528
46.8743 27.9231 16.8362
44.2368 26.4092 16.1862
45.5944 27.2735 16.6128
44.9835 26.959 16.2502
44.5305 27.6348 17.2634
44.5468 27.4073 17.1814
44.696 27.383 17.0333
45.9563 28.6336 17.9815
42.9154 26.4536 16.6122
43.2186 27.1452 17.1946
43.9966 27.73 17.7696
42.4581 26.7624 17.2573
44.3428 27.9028 17.735
42.0765 27.0092 17.5998
41.0673 26.3172 17.2036
43.773 28.011 18.0482
42.9988 28.4324 18.8856
42.6473 27.4152 17.7827
40.5527 26.9665 18.069
42.4957 27.9045 18.4768
42.161 27.9933 19.0015
42.5873 27.9585 18.6836
41.9135 28.1097 19.0975
40.3448 26.9265 18.3323
40.2034 27.0856 18.4104
41.3735 28.1096 19.2804
39.6163 26.5646 18.2394
41.5399 28.4921 19.5858
41.5339 28.9528 20.572
40.9454 27.8312 19.3589
40.5119 27.6752 19.3193
39.7818 27.5662 19.3698
40.1696 28.0203 19.7994
38.8234 27.3949 19.6147
38.6388 27.1339 19.4742
40.6058 28.7908 20.5503
38.6615 27.4117 19.7281
39.1967 28.0361 20.2326
40.0501 28.9728 21.005
36.9339 26.5375 19.474
40.6247 29.6959 21.9643
38.2977 27.9762 20.6638
37.5618 27.621 20.5988
38.8244 28.8825 21.5565
38.634 28.5003 21.2763
37.7153 28.1501 21.1853
36.6042 27.7011 21.262
37.3364 27.6335 20.8618
37.514 27.7769 20.9223
37.1338 28.3394 21.6222
37.3424 28.8044 22.3498
36.4365 27.5494 21.1486
36.9715 28.6782 22.5173
36.3218 28.0185 22.0438
38.4878 29.6393 22.9866
36.4924 28.1538 22.0994
35.0706 27.4236 21.7308
36.1396 28.1756 22.3581
35.8202 28.0846 22.167
36.5639 28.9981 23.0777
35.1991 28.0068 22.6674
35.6021 28.6083 23.2277
35.0175 28.1822 23.2978
37.1209 29.5848 24.0534
35.296 28.2188 23.0077
36.3001 29.8145 24.637
34.8024 28.4655 23.6904
34.7582 28.6076 23.7578
35.1253 28.4026 23.3018
33.0041 27.3056 22.9069
34.2293 28.4106 23.9528
33.9044 27.9713 23.4584
33.9081 28.2104 23.7431
34.8474 29.3672 24.9993
33.9221 28.5965 24.5079
33.8597 28.0772 23.6993
33.9972 29.4412 25.4421
33.1472 28.2016 24.3923
33.8094 28.931 25.0348
32.3674 27.9081 24.4317
33.1523 28.846 25.2507
31.641 27.6693 24.7081
32.5406 28.0956 24.7159
33.1719 28.8077 25.4268
31.9423 27.8349 24.7232
31.9293 28.4706 25.4993
32.5001 28.3713 25.1973
32.7919 29.3084 26.2491
32.0185 28.747 26.0218
32.0496 29.0217 26.7921
31.9428 28.6149 26.1526
31.8838 28.2621 25.7082
32.1341 28.8034 26.1348
31.5596 28.7862 26.3614
31.5621 29.0057 26.7451
30.5044 28.3772 26.5776
30.6646 28.1217 26.3128
29.579 26.9722 25.3888
31.9285 30.0226 28.0722
30.6432 28.0982 26.1436
30.1117 28.8017 27.787
30.639 28.7287 27.4653
29.5364 27.5829 26.2881
29.8161 28.5651 27.533
30.5288 28.8817 27.7449
30.4191 28.6644 27.2862
28.2167 27.2985 26.9744
29.6205 28.3522 27.4432
29.448 29.0286 28.5869
28.6726 27.3995 27.0362
29.8672 29.3481 29.0788
29.0576 27.6281 27.004
29.5568 29.5167 29.8478
29.8663 28.9879 28.7678
29.7553 29.0502 28.6437
28.8715 28.8612 28.86
27.4824 27.3815 27.6685
28.7762 28.5815 28.7276
28.5611 28.396 28.793
28.5327 28.8881 29.4192
27.3747 27.5972 28.3339
29.4854 30.188 30.9741
28.6112 29.1875 30.0744
27.5757 28.2349 29.3555
28.3592 28.9803 29.9283
28.0778 28.9792 30.1406
27.0608 27.7065 29.0254
27.2667 28.219 29.504
25.3438 26.4874 28.2421
27.3723 28.5121 29.962
27.959 29.7812 31.7848
28.0084 29.5817 31.6098
26.4438 27.9009 29.878
26.2437 27.7264 29.8718
26.5701 28.4853 30.8654
27.6429 29.7411 32.5613
27.3527 28.9724 31.0084
25.6158 27.5656 30.2773
25.6548 27.251 29.4285
26.0592 27.9741 30.11
24.6053 27.3243 30.2728
24.6452 26.9809 30.0327
24.6913 27.4063 31.0119
25.1134 27.4286 30.8653
26.5633 28.5714 31.1752
25.0894 27.7219 31.1258
25.4437 28.4653 32.147
25.5363 28.2623 31.5631
24.44 27.4378 31.3016
25.302 28.4082 32.3608
25.6985 28.4804 31.7053
23.7267 27.29 31.6299
24.1994 27.4582 31.4866
24.6133 28.5292 32.9872
23.1701 26.207 30.5511
24.8192 28.4152 32.8673
24.0741 27.5567 32.1072
24.4019 28.1739 32.707
24.262 28.3306 33.2962
24.0017 27.5479 32.102
23.8003 28.1356 33.4099
23.1224 27.0926 32.4775
23.9944 27.9724 32.9736
23.9922 28.1316 33.092
22.5731 26.3308 31.3427
22.4902 26.6037 31.8549
22.3976 26.8416 32.6635
23.124 27.6546 33.7005
23.2462 27.4133 33.1312
23.8331 28.3771 33.7487
22.926 27.6195 33.7194
23.4162 28.5323 34.9207
23.1692 28.2342 34.9314
23.4078 28.5259 35.1546
23.2878 28.2321 34.6521
22.8092 27.9254 34.5013
22.8756 28.2999 34.9749
22.021 27.4611 34.6665
22.2438 27.7873 35.2777
22.4911 27.3343 34.155
21.9678 27.0264 33.8114
22.5033 28.1262 35.6482
22.9132 28.7211 36.21
21.9749 27.377 34.9499
22.6196 28.3135 35.4724
22.1928 28.3939 36.1036
21.3987 27.2681 34.9971
21.4632 27.6778 36.0102
21.7177 27.7846 36.3779
22.3234 28.1693 36.003
20.9227 26.7521 35.0623
21.9357 28.2197 36.4814
21.2985 27.5553 36.3231
21.8711 28.4874 37.131
20.5881 26.5097 34.949
20.7412 26.5625 34.4696
20.7982 27.6181 36.6541
20.4633 26.9376 35.7177
20.7897 27.5551 37.0959
20.9795 27.3541 36.2666
20.6477 27.5334 37.421
21.1424 28.0258 37.081
19.754 26.5679 36.1918
19.4376 26.2491 36.1327
19.9312 26.47 36.0392
20.802 28.5102 38.5485
20.3606 27.3985 37.3168
19.9955 26.9654 37.3823
20.2734 27.4763 37.5523
19.3485 26.5323 37.2342
20.1791 27.0343 37.1547
19.9368 26.9885 36.9492
19.542 26.6878 36.7604
19.2949 26.6354 37.2873
19.6553 27.1869 38.057
20.0414 27.5871 38.3411
19.384 26.8387 37.5958
19.2931 27.0884 38.0228
19.522 27.5795 39.1645
19.5566 27.6757 39.4455
19.5586 27.273 38.6223
19.3571 27.5268 39.1837
19.2296 27.268 38.918
18.8121 26.3501 37.1091
17.5097 25.335 37.3614
19.0318 26.8471 38.1885
17.9548 25.8677 37.9749
18.8864 27.1205 38.8624
17.8158 25.6789 37.6854
18.9376 27.4165 40.0028
18.613 26.6173 38.1504
18.256 26.9393 39.8801
19.2878 28.4762 41.7055
17.7779 25.9539 38.9345
18.4728 27.1694 40.2009
18.1185 26.4512 38.7769
17.8043 26.8568 40.5712
17.78 26.2308 39.9518
18.2355 26.6486 39.9681
17.8061 26.0933 38.5522
17.2287 26.0038 39.6448
17.6582 26.3201 40.8771
19.0371 27.8835 41.0727
17.7669 27.0868 41.3514
17.4762 26.0534 39.9428
18.1774 26.9601 39.7697
16.3355 25.1162 39.5232
17.5914 26.6838 40.8777
18.13 27.4522 41.9763
17.7162 27.0992 41.4292
16.5902 25.7174 40.6579
16.7394 25.5192 40.1843
17.47 26.2694 40.2918
16.797 25.9709 40.3151
16.4272 25.6896 40.8083
16.518 25.3181 40.226
17.0461 26.2919 40.6464
16.2241 25.4057 40.8127
17.136 26.7018 41.7198
16.5469 26.2086 41.4873
16.4985 26.1325 41.8821
17.0626 26.9426 42.9803
16.1402 24.9422 39.9031
16.2242 25.4132 40.4005
16.259 26.2143 42.9434
15.8416 24.775 40.2886
16.0403 25.4686 41.3739
16.756 26.7748 42.7958
15.7183 25.1939 41.4991
15.852 24.9036 39.7625
15.0888 24.5362 40.5539
15.9048 25.3555 40.7215
15.6973 26.0939 43.2393
15.1403 24.9225 41.9835
16.1405 26.1407 42.9169
15.7518 25.77 43.2137
15.6799 25.0737 40.9036
15.0476 24.958 42.5943
15.9348 25.4839 41.7946
15.6425 26.0723 43.1976
15.4145 25.1699 41.7877
15.4595 25.8549 43.1872
14.8423 24.5748 41.4397
15.3304 26.2557 44.5318
15.0827 24.9322 42.5724
15.1399 25.4644 43.3879
14.9639 24.9373 42.2512
15.1371 26.1905 45.31
14.8202 24.4708 42.2912
15.1982 25.1496 42.4418
15.1906 25.7339 43.5663
14.7331 25.3885 43.9996
15.062 26.4011 46.1351
14.733 24.7099 43.4922
15.1655 26.0595 45.5511
15.4145 25.5645 43.3496
14.2488 25.0136 44.49
14.6176 25.1299 44.3136
14.285 24.2267 42.1103
14.5048 25.3682 44.5505
14.5576 25.6008 45.4238
14.1058 24.3161 43.5341
14.5975 25.4039 45.3058
14.4619 24.7279 43.8381
14.2314 25.1777 45.5887
14.3693 24.8331 45.7346
19.0318 35.4815 61.6246
15.4677 25.7345 45.1972
14.0913 25.1381 45.6064
14.0158 24.8088 44.4689
13.8904 24.9389 45.6608
14.2241 25.3562 44.8477
12.87 23.3214 43.8901
14.1054 25.4511 47.3738
14.4116 24.5987 42.9567
13.1902 24.2281 45.1384
13.5888 23.9696 43.409
13.7908 25.4685 46.014
13.3522 23.7987 43.2639
13.2768 24.4142 44.5246
12.6193 23.3119 44.297
13.4594 24.4605 45.0485
13.0685 24.1799 45.6036
13.1936 23.8922 44.456
13.1604 24.5347 45.6327
13.3174 24.1686 44.8498
13.0646 24.3619 45.8138
12.6519 23.2822 43.9546
12.8611 24.4109 45.8431
12.5651 23.5459 45.6339
13.1978 24.2377 45.395
12.2657 22.9687 44.6034
13.0441 24.372 46.4647
12.9483 23.6533 44.2476
12.9368 24.6739 46.9389
12.3457 23.3531 44.8092
12.3006 23.708 46.8876
13.0723 24.3809 46.3312
12.6406 23.8999 46.2114
12.643 24.1882 46.8422
12.5905 23.4244 44.5374
12.2762 23.9892 47.1426
12.7354 24.0189 45.0683
11.9822 23.3555 45.131
11.5667 22.9192 46.6152
12.658 24.2487 46.8619
11.9394 23.4005 47.3421
12.6779 24.3543 47.7117
12.439 23.6809 46.4881
12.2277 23.6517 46.3422
12.1675 23.9562 47.1001
12.2973 24.5784 49.6072
12.4596 24.0021 47.1974
11.8894 23.7338 48.0264
12.3367 23.9382 47.3257
12.1762 24.6501 49.9506
12.2685 24.005 48.6595
12.5148 24.1311 47.2282
11.2917 22.3417 45.6264
11.5267 22.6354 45.6267
11.4931 23.448 48.5861
11.9187 23.2162 46.3608
11.7957 23.5893 47.254
11.1119 22.1905 46.489
11.6718 23.1228 46.9111
11.8355 23.3633 46.8427
11.5964 23.3582 46.4914
10.9707 22.5233 46.5429
11.1737 23.6503 49.7674
11.1298 21.9935 45.4504
11.0309 22.3696 46.9008
11.5082 23.7187 49.3631
11.6677 23.4685 48.0154
10.8138 21.9189 46.1511
11.2184 23.3384 49.214
11.179 23.1579 49.3484
11.4549 22.9758 46.9402
11.0929 22.7454 46.8045
10.5853 22.2726 47.4617
10.8153 22.1855 47.0555
11.1504 23.1153 48.1669
10.6881 22.6514 49.143
11.2239 23.0691 49.237
11.1528 22.636 47.6321
10.8807 22.4077 47.4398
10.8364 22.9495 48.8067
10.8728 23.0321 49.7956
11.1129 23.2979 49.043
10.3025 21.4078 46.6014
10.7862 22.9971 48.2495
10.2392 22.0551 48.6316
10.5522 22.1939 47.963
10.2604 21.6509 47.3788
10.5014 22.1382 46.9332
10.0289 21.6876 48.0964
10.4509 22.076 47.8586
10.8701 23.3532 49.9049
10.128 21.6234 47.3953
10.2022 22.4532 50.8597
10.5849 21.8871 47.0455
10.324 22.1563 47.5159
9.69936 21.3836 47.5371
10.1817 22.1265 48.2035
10.144 22.3521 48.796
10.1664 22.7168 50.6763
10.0644 21.7802 48.3717
10.1186 22.2652 48.7651
9.91103 22.3561 50.5846
10.0687 21.7741 48.2927
9.38313 20.7173 48.1704
9.85725 21.1673 47.5829
9.81038 21.4622 48.012
9.54513 21.3449 48.5851
9.63757 20.9613 47.6761
9.72758 21.2231 47.5773
9.68298 21.5522 49.1012
10.0258 22.2361 49.7598
9.69855 21.4794 48.276
9.69517 21.7013 48.4267
9.29525 20.5917 47.5574
9.93898 22.8443 51.2475
9.47704 21.3458 48.8932
9.5273 21.8334 50.7916
9.57838 21.5064 49.071
9.25241 20.9836 48.438
9.37964 21.446 49.5226
9.56837 21.5312 49.1427
9.30632 21.8733 51.4413
9.56448 21.6667 50.5876
9.42416 21.5697 51.5415
9.51573 21.1183 49.8829
9.81533 21.9707 49.8447
9.60108 22.0237 50.5076
9.30246 21.3379 50.5425
9.29529 21.2902 49.9406
9.11937 20.3147 47.0202
9.35049 22.244 51.5244
9.05651 21.2472 50.4672
9.14556 20.949 49.4071
9.08135 21.1661 49.4045
8.86145 20.8792 49.2467
8.61975 20.2466 49.3656
9.13626 21.3096 50.1526
8.91978 20.9827 49.9418
8.60526 20.5044 50.1713
8.8697 20.5719 50.1968
9.02281 20.8307 48.8324
8.88833 21.2741 50.8684
8.90357 21.5095 53.3296
9.21159 21.1878 50.078
8.7857 20.8267 50.3102
8.79491 20.8645 50.3896
8.80027 20.9837 50.9613
9.01539 21.3737 50.5805
8.30551 20.3569 51.4445
8.93221 20.9189 50.5283
8.5297 20.4906 51.1238
8.72515 20.8293 50.0701
8.26274 19.2318 47.3162
8.32078 20.4456 51.1161
8.86987 21.6522 51.7402
8.25539 20.0391 50.8752
8.71411 20.5835 50.2368
8.45602 20.3101 48.9359
8.26824 20.7563 52.4965
8.57511 20.3608 49.9911
8.52583 21.2632 52.7998
8.32183 19.9642 51.1054
8.7924 21.5846 52.4393
8.14404 19.717 49.5073
8.33446 20.7067 52.7189
8.48241 20.2529 50.3747
8.57959 21.0637 51.1724
8.03816 19.9232 50.8943
8.04567 19.4153 49.5765
8.2399 20.06 49.3168
8.06936 20.4142 51.3091
7.95025 19.9453 50.9489
8.11722 19.7828 49.1526
7.87095 20.3485 53.7817
8.26148 19.7439 50.3794
8.22004 20.732 53.4583
8.43805 20.6953 50.8958
7.90959 20.0995 51.7706
8.0908 20.3159 51.8654
8.12691 20.4519 51.496
7.868 19.8069 50.9799
7.88474 20.3238 52.9964
7.89555 19.3617 49.1626
7.6649 19.4837 51.1903
8.10844 20.5466 52.1609
7.80193 19.894 51.4642
7.84923 19.819 51.315
7.81197 19.4372 49.7841
7.73316 20.4341 52.6128
7.68914 19.7738 53.2913
7.85298 19.8774 52.9315
8.02232 20.3783 52.2638
7.78682 19.667 51.4358
7.79438 20.2282 54.4186
8.17234 20.4604 51.7559
7.68738 20.0878 52.8355
7.67943 19.9113 52.116
7.38637 18.6318 49.0868
7.27776 18.5262 49.8945
7.65965 19.6966 50.8678
7.31322 19.3608 51.9829
7.41603 19.3083 51.2564
7.42596 19.1587 52.3626
7.53839 19.1223 50.1747
7.35549 19.1606 51.0409
7.36271 19.028 50.4875
7.30387 19.2914 52.4888
7.41651 19.2716 50.8162
7.03343 18.2773 49.313
7.19069 19.1206 51.1239
7.10252 18.7767 51.7342
7.45756 19.5316 51.3592
7.31033 19.4163 51.8521
7.08608 18.6618 51.1474
7.0506 18.4169 50.3763
7.19786 19.2602 52.366
7.25439 18.8934 50.0009
6.93193 18.6926 50.2842
6.8237 18.141 49.6405
6.7686 18.3696 52.6428
7.31046 19.0759 51.2673
6.93134 17.9657 49.1221
7.0188 18.7245 51.7353
7.29416 19.3392 51.9883
7.06894 18.6455 49.5129
6.71343 18.4542 50.6626
6.67931 18.2659 51.8818
7.05355 19.1432 53.1966
7.26208 19.8448 53.9033
7.13855 19.6876 53.6532
6.76516 17.9878 50.441
6.91623 18.9672 52.729
6.82253 18.5016 52.5265
7.09382 19.0332 50.8507
6.44823 17.5729 51.0386
6.80884 17.8876 49.2167
6.76691 18.8218 52.0417
6.5894 17.9094 51.4669
6.86514 18.2849 49.1711
6.50559 18.9788 54.0512
6.94648 19.1575 55.3248
7.00128 18.7594 52.7321
6.69513 18.0915 51.1512
6.68475 18.1592 50.4993
6.56087 18.4439 52.5954
6.65505 18.2589 52.0961
6.67184 18.0692 50.9908
6.50605 17.9518 50.6962
6.62349 18.4017 51.8188
6.33763 17.1672 50.2093
6.61262 18.3733 51.1902
6.36627 17.5171 50.1183
6.57767 18.5495 51.3859
6.26261 17.7748 51.9939
6.52648 18.0015 51.6931
6.40286 17.4926 49.8684
6.3556 18.186 53.0573
6.52983 17.877 50.6172
6.40738 18.4336 52.9797
6.36274 17.8131 52.1848
6.47708 17.6906 49.7166
6.23534 17.9917 52.1522
6.24785 16.9776 49.8677
6.19734 17.4891 49.6169
6.06334 17.6063 52.3258
6.46856 18.448 53.3215
6.398 17.8135 51.1385
6.14624 17.9804 53.8434
6.45996 17.8984 50.8588
6.16981 17.8191 53.1191
6.413 18.0581 51.5056
6.06351 17.4452 51.7673
6.30961 18.5525 52.6322
5.87013 16.7208 49.954
5.88362 16.8562 50.9439
6.03893 17.217 49.7851
5.92718 17.1668 49.9641
5.88559 16.9848 50.6772
6.0885 17.87 53.0898
6.06934 17.343 51.2164
5.8152 16.5318 50.6707
6.17656 17.4742 49.3292
5.87472 17.7463 53.1561
5.98981 16.9622 50.1039
5.82567 17.1673 50.8323
5.84638 17.1227 52.321
6.06226 17.9351 53.8592
6.04114 17.4122 53.4489
6.15031 17.4744 52.1776
5.98219 17.1104 49.6623
5.6861 16.7407 50.7019
5.75982 16.7838 51.6467
5.99909 17.5308 51.0351
5.76814 17.1089 50.8745
5.71315 17.3091 53.1592
5.93341 17.4587 53.5886
6.07904 17.1884 51.0933
5.76974 16.6536 49.9748
5.63726 16.8673 50.636
5.58111 16.4943 49.1967
5.49128 16.4758 49.5607
5.39994 16.4856 51.4238
5.49738 15.7938 48.2778
5.52623 16.7564 51.0945
5.58015 16.4138 49.6626
5.328 16.3486 51.4622
5.63831 16.6446 51.728
5.75281 16.8118 50.3129
5.46358 16.9958 53.3962
5.81732 17.1982 51.784
5.44794 15.8083 48.4002
5.45642 16.7572 50.6147
5.40509 16.3796 52.0916
5.67813 17.0195 52.1965
5.54512 16.3096 50.4796
5.4284 16.0887 50.2675
5.59291 17.151 51.4899
5.38641 16.5876 52.0229
5.43204 16.1716 50.6859
5.42298 16.5272 51.9641
5.55775 16.6809 51.4632
5.40571 16.3228 51.0605
5.37827 16.5466 52.2679
5.52073 16.6824 53.2929
5.6491 16.4426 49.7291
5.33641 15.9667 49.5969
5.2925 16.529 52.3073
5.44 15.904 49.0766
5.15226 15.7788 49.9777
5.32651 16.2999 48.9715
5.03894 15.9552 49.8759
4.98487 15.5093 52.5017
5.60476 17.0439 52.4465
5.42351 16.9443 52.521
5.24199 16.2139 51.3072
5.22957 16.3429 51.9982
5.13208 15.5098 49.7132
5.04937 15.7501 53.0732
5.60235 17.0346 52.9061
5.42096 16.5273 51.4404
5.16464 15.8619 50.1812
4.98896 15.3025 49.0479
4.95729 15.3781 48.9462
5.00764 15.8829 51.7919
5.36123 17.2577 55.6522
5.4169 16.0756 51.2277
5.2381 16.0474 50.4456
5.07555 15.7031 50.9864
5.15688 16.2576 51.6033
5.05274 15.5335 50.2841
5.22863 16.1507 49.6662
4.87159 15.844 52.9551
5.20927 15.7918 50.0138
4.87626 15.4819 50.4125
4.90669 15.1089 48.3929
4.81227 15.5195 52.8171
5.27555 16.5659 53.4704
5.13703 15.7309 50.74
4.94499 14.953 48.2326
4.93863 15.7704 50.2357
4.84621 15.597 51.4145
5.07249 16.2179 52.1359
4.89651 15.2 50.4473
4.91726 14.9463 48.2662
4.79656 15.7676 50.9392
4.92154 16.1593 51.7666
4.81822 15.4104 52.1827
4.95443 15.326 50.3255
4.77357 14.971 49.7691
4.86829 15.5189 50.1086
4.75327 14.9322 49.7273
4.82082 15.3946 49.1409
4.64897 15.2319 50.7779
4.86189 15.7741 50.8469
4.69229 15.0192 50.0397
4.71256 15.0279 51.1299
4.9094 15.4823 50.5037
4.78537 15.5506 51.9625
4.95283 16.0627 52.9194
4.90794 15.3478 50.772
4.75393 15.5215 51.6812
4.76599 15.451 52.9829
4.93298 15.1752 49.3549
4.65096 14.9404 50.7457
4.75478 14.8439 50.6946
4.88885 15.9562 51.4172
4.78228 15.2709 50.0734
4.60786 15.3042 50.8987
4.64581 14.9584 49.8932
4.58676 14.9748 50.38
4.55332 14.4242 50.0842
4.69551 15.5326 54.0664
4.9462 15.1162 49.0691
4.55867 14.891 49.8513
4.62524 15.0872 50.2326
4.65723 15.1878 51.1529
4.71203 15.5883 53.6102
4.8625 15.3381 49.6539
4.38047 14.563 50.4598
4.54614 14.6958 49.8512
4.56411 14.7056 49.2369
4.59183 15.5016 51.5619
4.55936 14.7887 48.993
4.39919 14.5821 48.3155
4.34606 15.1486 51.7252
4.56394 14.687 49.2391
4.34511 14.5763 49.949
4.49268 14.8551 49.7899
4.35463 14.3506 51.4149
4.64851 15.1517 52.1089
4.57442 14.4714 50.5159
4.63985 15.007 48.6762
4.33699 14.8748 53.5769
4.72224 15.441 53.4963
4.75426 14.7027 47.6354
4.19256 14.6591 51.9629
4.63729 15.3003 49.9807
4.28853 14.2678 51.4258
4.48727 14.9112 52.4312
4.67406 15.1351 50.934
4.4323 14.8341 50.8778
4.45104 14.7574 52.0005
4.67422 15.5696 50.9574
4.36133 14.1137 48.75
4.24741 14.5755 49.2566
4.28711 14.9097 51.933
4.33197 14.1899 50.7389
4.43037 14.4247 49.2015
4.23185 14.2694 50.9874
4.41723 14.7143 49.9594
4.2935 14.3886 49.4419
4.23817 14.4573 49.6239
4.20972 14.3513 49.9709
4.25928 14.4366 49.2649
4.11974 13.8536 49.708
4.28276 14.5339 49.0388
4.10352 13.7699 47.6878
4.07475 13.8318 48.554
4.14856 13.6789 49.7697
4.31083 14.8595 50.0461
4.11094 13.7635 49.2363
4.2368 14.1863 48.3222
4.02572 13.6648 49.2567
4.17068 14.2375 50.3802
4.29596 14.6955 52.7568
4.35814 14.3874 50.1761
4.15772 13.4155 48.7597
4.30423 14.4463 49.2794
4.2431 14.648 49.9848
4.10269 14.2009 50.8566
4.2507 14.3138 50.2578
4.13868 14.0898 50.2137
4.18471 14.7829 52.3659
4.22746 14.0584 50.8799
4.15473 13.9007 49.7245
4.13398 14.1459 50.9504
4.2032 14.0072 49.7037
4.1762 14.7244 52.0034
4.213 14.0025 48.4615
3.95433 14.0013 48.9635
3.91948 13.3895 49.451
4.07158 14.0926 50.4716
4.21077 14.9069 52.5474
4.18949 14.2264 51.3116
4.1485 14.1866 52.6632
4.2868 14.1692 48.6421
3.95808 13.8937 49.4057
4.03069 13.7107 49.7782
4.094 14.4572 50.5341
4.06685 14.411 50.1557
3.96975 13.81 50.5334
4.15578 14.6498 52.1696
4.11987 13.6479 47.6949
3.83617 13.9218 50.5277
4.05318 13.861 51.5765
4.15157 14.3006 52.2466
4.13625 13.892 49.9961
4.06858 14.4228 51.0247
4.00441 14.2705 53.9223
4.32585 14.499 50.1651
3.9962 14.3711 53.7214
4.23602 14.2811 51.7126
4.20803 14.6578 50.5519
4.03855 14.3944 50.6718
3.89654 13.5623 50.1846
3.94699 13.4839 49.4003
3.94679 14.0259 50.6966
3.96476 13.6002 48.4627
3.83112 13.5792 48.5643
3.80465 13.7156 51.1889
3.96296 13.9283 50.5086
3.91058 13.7726 50.5875
3.90285 12.9809 48.3501
3.77303 13.4567 49.7994
3.99201 14.2709 49.3907
3.78045 13.6271 51.4238
3.9747 13.2253 47.6089
3.79715 13.2897 48.0129
3.75587 14.2942 53.5627
4.09613 13.2018 48.4884
3.89028 13.7354 48.792
3.78297 13.3205 49.8061
3.9264 13.6827 50.1776
3.91553 13.6902 48.9962
3.83626 14.1028 51.8821
3.92627 13.4166 49.1162
3.75278 13.1621 48.7705
3.82301 13.3388 48.7285
3.76634 13.5989 51.0518
3.95362 13.75 51.0483
3.92684 13.6349 48.4998
3.75966 13.2904 47.2753
3.65094 13.1881 48.2225
3.71732 14.4655 53.5499
3.90755 12.4419 47.5563
3.65572 13.1441 48.2897
3.69068 13.3497 50.6037
3.81939 13.459 50.8337
3.87231 13.69 49.4733
3.71237 13.4121 50.0211
3.76924 12.9032 46.8257
3.56177 12.403 47.5217
3.65614 13.2718 48.5133
3.57947 12.7906 49.4194
3.76617 13.5854 50.2828
3.78734 13.1102 48.6815
3.70492 13.1238 48.5159
3.64481 12.8315 51.0136
3.8953 12.9449 46.0438
3.51662 12.696 47.0815
3.57099 13.1676 49.0438
3.65014 12.894 47.3416
3.55127 13.009 48.6675
3.64868 13.1109 48.4972
3.65585 12.8876 50.1108
3.76611 12.933 46.8278
3.56082 12.7419 47.5527
3.52208 12.5011 48.3458
3.71498 13.256 48.0051
3.53978 12.6887 48.7168
3.62879 12.7673 47.6204
3.54268 12.9129 48.248
3.57548 12.9263 49.1671
3.63919 13.0148 48.2577
3.59161 12.5907 48.2896
3.64621 13.6482 48.323
3.54322 12.9233 50.5834
3.69353 13.0323 48.2998
3.52394 12.5932 47.6836
3.52413 12.6182 47.3505
3.45933 12.8898 48.0344
3.49887 12.6618 49.1893
3.60207 13.2181 49.3498
3.56975 12.761 49.539
3.60208 12.833 47.9387
3.49438 13.1141 48.0867
3.4847 12.5808 49.721
3.67978 13.3682 47.4807
3.39315 12.4424 48.736
3.51905 12.6683 47.6165
3.47504 12.4791 47.4103
3.44378 13.2431 49.346
3.59984 12.758 48.4598
3.54118 12.4971 47.5195
3.46269 12.9652 49.5254
3.5519 12.5781 47.576
3.47255 12.3408 46.9078
3.39174 12.5679 48.6096
3.51124 12.7656 48.904
3.51629 12.2805 47.2685
3.43573 12.9219 46.6933
3.29707 12.1696 48.8466
3.52255 12.5188 49.3065
3.55856 13.1434 49.0118
3.50366 13.0155 49.297
3.48638 11.8418 45.914
3.31341 12.1396 46.6449
3.36195 12.731 47.8671
3.44375 12.4432 47.2618
3.36937 11.976 46.8169
3.39901 12.9245 47.9146
3.40058 12.3142 47.6456
3.43458 12.5721 47.7938
3.44112 13.0453 48.1858
3.3713 12.3009 48.5293
3.43678 12.044 46.9335
3.38753 12.7071 48.4958
3.44232 12.5933 47.6557
3.34494 12.6615 47.5828
3.32224 12.0919 47.0072
3.37153 12.3249 47.4385
3.33447 12.3394 46.7031
3.27149 12.2582 46.3141
3.30598 12.4529 49.838
3.50887 12.7112 50.4334
3.58326 12.3127 45.8294
3.31413 12.9167 50.7261
3.58537 12.312 46.5109
3.30226 12.3171 47.18
3.34567 11.8372 45.1512
3.19205 12.3701 47.6525
3.3565 12.6917 49.4263
3.4283 12.5181 47.4031
3.32624 12.2729 48.1103
3.33325 12.3696 47.2458
3.30428 12.2459 48.5163
3.36002 12.4664 49.2905
3.49872 12.5924 47.6505
3.39009 12.5781 48.0902
3.35503 11.8605 45.589
3.1905 12.0865 47.5175
3.34931 12.5987 49.357
3.42045 12.4902 48.6425
3.39468 12.8319 50.1944
3.55292 12.5744 49.0116
3.35734 12.1318 45.562
3.17246 11.8849 48.1267
3.35245 11.7717 44.996
3.16087 11.885 46.9052
3.33065 12.8406 48.0858
3.30119 11.9046 46.1927
3.19861 12.1896 47.2535
3.25073 12.2065 47.8672
3.32853 12.3678 46.2282
3.1334 11.2897 45.5684
3.19443 11.9927 46.9889
3.23948 11.9371 46.0907
3.16305 11.8791 46.266
3.16447 11.8287 46.4559
3.21246 11.9758 46.248
3.21013 12.0957 47.5342
3.27631 11.7971 46.2507
3.18397 11.7108 44.9807
3.15377 12.3317 48.708
3.3736 12.2962 46.2456
3.17553 12.0731 46.5902
3.20306 11.8849 47.4552
3.24966 11.9771 47.7896
3.26437 11.7967 46.1167
3.18139 11.4972 44.1538
3.04074 11.5702 48.3531
3.30059 12.2751 44.7239
3.07337 11.3983 46.6789
3.22573 12.3725 47.6008
3.26811 11.9446 47.568
3.23567 12.1669 48.5797
3.32489 12.1815 45.9502
3.14009 12.0715 47.2592
3.15283 11.7637 46.8144
3.1802 12.0967 46.7601
3.17082 11.7414 46.8519
3.2369 11.9137 47.1317
3.23896 12.3601 48.9155
3.30297 12.1032 48.2925
3.36635 12.188 44.7383
3.08648 11.8669 45.7088
3.14839 11.8548 46.78
3.19371 12.4047 48.5208
3.29623 12.0835 48.2158
3.23735 11.935 46.2966
3.0848 11.8359 47.2025
3.18945 11.6167 47.3734
3.23534 12.0085 46.7385
3.1802 11.7704 46.1395
3.13703 11.9365 47.4505
3.16638 11.5973 47.7055
3.28701 12.608 48.1541
3.27144 11.9311 46.3834
3.1604 11.8393 47.1864
3.22984 12.3515 48.937
3.30637 12.3738 47.6931
3.24685 11.7717 46.8227
3.16151 12.2923 47.3211
3.21083 11.8027 45.5193
3.11674 12.0489 46.8688
3.17677 11.6072 46.343
3.13948 12.1587 47.4029
3.15932 11.6173 48.1767
3.25872 12.2796 49.1839
3.30166 12.3202 49.0349
3.26449 11.9142 46.7079
3.12354 12.1545 48.9742
3.30266 12.2652 49.2022
3.2832 12.3464 47.5093
3.18296 12.0708 46.5122
3.0988 11.589 48.2527
3.26442 12.1512 48.1768
3.21353 11.5622 46.1399
3.12178 12.3556 49.7905
3.28771 11.8114 46.5749
3.15868 12.2116 46.7548
3.14801 11.3458 46.7725
3.12642 12.1523 46.7139
3.10795 11.9898 47.1187
3.15991 12.0444 47.3224
3.16714 11.7928 46.8053
3.17552 11.7297 44.7667
2.94633 11.3954 47.3797
3.17446 11.7153 44.2018
2.98865 11.481 47.1152
3.18162 11.8988 48.2076
3.20325 12.069 47.6251
3.15858 12.0125 47.4073
3.24698 11.1343 45.1105
3.0193 11.843 47.0025
3.07994 11.3785 45.1733
3.04714 11.4516 44.8485
3.01595 11.4512 45.2716
3.00234 11.728 47.1171
3.15495 11.6187 45.6272
3.0389 11.3536 47.3573
3.17545 12.2144 48.048
3.21886 11.862 46.9939
3.13865 11.8652 46.5629
3.12428 11.7 47.0839
3.1495 11.8252 45.0325
2.94849 11.6219 48.0939
3.17768 11.9356 47.5135
3.14628 11.5377 46.7776
3.0869 12.1291 50.0506
3.30119 12.319 46.8041
3.07062 11.6913 46.5655
3.07346 11.6092 45.5432
3.04745 11.8809 48.2997
3.18314 11.8856 47.0266
3.0957 11.8682 47.0253
3.11748 11.7014 47.3467
3.14827 11.7556 46.5416
3.11109 11.4987 44.7907
2.97422 11.9374 47.3199
3.1164 11.5725 45.6291
3.01904 11.7795 46.0471
3.00749 11.7738 46.1508
3.10434 11.432 45.6304
2.98271 11.5261 49.0718
3.27834 11.5857 45.9758
3.04997 11.9544 47.1403
3.14239 11.4846 45.9084
3.02395 11.7247 46.7806
3.14782 11.4943 45.7255
3.04316 11.7372 48.1706
3.20525 11.7159 48.5046
3.23145 12.0804 46.743
3.10066 12.335 47.4551
3.18776 11.7077 47.8199
3.1597 12.0846 47.567
3.14108 12.2511 45.2924
3.00579 11.0746 47.2959
3.21983 11.6347 45.4379
2.98379 11.6152 47.2355
3.14729 11.9272 46.6996
3.08883 11.89 46.0013
3.02887 11.5155 45.7442
3.06119 11.7463 49.1477
3.25509 11.7259 46.9875
3.12783 11.5035 45.6656
3.08714 11.917 48.4017
3.17816 12.2401 48.647
3.21059 12.7109 49.6319
3.27511 12.0643 47.7933
3.17315 12.3344 47.9255
3.1162 11.9426 49.1371
3.25596 12.0081 48.841
3.26537 12.0299 49.5618
3.30985 12.5006 49.4152
3.3089 12.5172 50.9992
3.39402 12.7589 51.5493
3.45362 13.6054 50.9664
3.37396 0 0