# pn-170911/RbIIR-50-USN7-1280-1959.psd
# Power spectrum* (dif=0,1,2) (really just |FT|^2)
# NOTE: only the first half! (symmetric)
# weeks: 1280-1959
# 109 clock-days, 427 excluded
# PSD: 1441
671.385 0.0917947 0.0980275
23697.5 0.439559 0.154065
181187 3.88924 0.144384
19297.7 0.84251 0.175863
32087.8 2.39262 0.142472
6788.88 0.812538 0.167561
5607.13 0.872843 0.160441
3889.4 0.752274 0.147655
3245.25 0.974223 0.169258
2306.39 0.839108 0.166412
2057.37 0.993764 0.205276
1793.39 1.02278 0.181819
1625.57 0.964732 0.160463
1458.14 1.07401 0.169056
1366.79 1.23625 0.190531
1101.02 1.01359 0.166893
1035.86 1.16929 0.184386
1117.64 1.27315 0.186761
826.368 1.16762 0.157269
912.279 1.47924 0.19568
785.322 1.41682 0.19504
599.059 1.18077 0.188259
683.66 1.43069 0.17555
694.719 1.73482 0.204723
741.21 2.04578 0.223531
605.305 1.67647 0.192905
496.911 1.53148 0.17325
495.284 1.60931 0.180414
538.911 2.01502 0.197445
537.988 2.12591 0.184179
524.088 2.26956 0.205574
506.162 2.12942 0.15376
519.775 2.39866 0.19434
365.809 1.90259 0.175889
418.774 2.16305 0.193963
518.079 3.06878 0.214066
395.365 2.28307 0.202191
447.316 2.69134 0.187518
424.959 2.78364 0.172724
400.167 2.83282 0.176577
439.281 3.15173 0.201272
388.582 3.27073 0.218709
466.124 3.63954 0.157779
422.384 3.64006 0.219411
366.372 3.30789 0.190172
352.614 3.3948 0.217914
407.082 3.9415 0.252543
303.788 3.0056 0.214126
341.666 3.66282 0.218168
313.684 3.54548 0.23998
334.287 4.03298 0.244869
326.626 4.13023 0.244244
329.867 4.41378 0.247568
294.411 3.72143 0.23056
301.91 3.83231 0.269224
283.988 4.03318 0.231486
290.754 4.27438 0.271531
311.283 4.85104 0.270944
368.286 5.65573 0.260873
310.4 5.21213 0.250345
299.294 5.05543 0.300615
295.871 4.7357 0.239525
295.897 5.31544 0.292094
321.589 5.73924 0.297579
299.713 5.5173 0.302134
296.803 5.97032 0.298693
276.82 5.61513 0.307827
268.172 5.63375 0.300596
300.477 6.44089 0.309894
249.642 5.3931 0.296736
284.179 6.89183 0.33395
296.782 6.8545 0.378239
284.577 6.81389 0.351063
256.523 6.56655 0.320174
263.673 7.11791 0.363832
255.93 6.73419 0.393064
305.15 8.70586 0.382673
256.448 7.16759 0.4143
266.828 7.61093 0.361572
255.592 7.40999 0.39189
272.499 8.04906 0.430059
236.152 7.3191 0.337227
205.47 6.859 0.386356
253.051 7.88748 0.442239
246.264 8.06778 0.420254
220.167 7.15034 0.47253
229.115 7.59123 0.439995
197.399 7.09881 0.409873
232.236 8.18388 0.481606
228.472 8.54384 0.568732
214.751 7.95813 0.457428
191.038 7.44745 0.411503
206.089 8.16171 0.452704
167.747 7.00915 0.505163
222.971 9.18707 0.593558
185.505 7.71923 0.50785
239.955 10.5883 0.591969
220.747 9.83934 0.604329
212.182 9.36991 0.606959
231.908 10.3902 0.615526
222.95 10.1951 0.692792
211.378 9.80943 0.660625
221.688 10.701 0.695807
156.914 8.07406 0.530098
211.848 10.7364 0.773614
183.321 8.80569 0.620175
203.599 10.6528 0.683645
218.29 11.8723 0.768327
199.218 10.3432 0.676167
159.554 8.91439 0.603415
200.587 11.0932 0.75975
216.077 12.4151 0.803046
162.516 9.86306 0.750777
176.462 10.7991 0.839844
172.25 10.2725 0.80304
184.607 11.7115 0.88429
158.888 9.8956 0.835329
182.469 11.6518 0.82046
179.09 11.8426 0.883428
159.079 10.5899 0.863021
177.812 12.3187 0.950423
187.069 13.0717 1.03751
154.245 10.5004 0.887399
145.106 10.2422 0.887679
203.116 15.0374 1.23184
199.953 14.5753 1.26327
157.956 12.0517 1.05234
157.83 11.6706 0.91422
173.956 13.05 1.05794
179.347 13.848 1.28283
175.243 13.9032 1.20728
166.448 13.5471 1.18012
165.526 13.2035 1.19237
164.239 13.3658 1.32027
203.147 16.7002 1.47397
142.262 12.1403 1.21654
156.929 13.3826 1.30854
156.48 14.0865 1.34234
163.666 14.6107 1.5551
168.563 14.9389 1.43974
159.526 14.9407 1.42845
173.656 16.1337 1.63534
159.264 15.3842 1.62954
166.586 15.6563 1.55779
173.491 17.051 1.72059
156.824 15.13 1.60837
173.052 17.4666 1.82333
167.181 16.7242 1.83152
152.69 16.0822 1.78457
135.985 14.28 1.77821
142.709 14.5399 1.51807
120.749 12.8297 1.40569
124.033 12.646 1.50446
156.603 17.1211 1.94796
157.586 17.4863 1.98719
142.971 16.4016 2.05711
129.038 14.1899 1.67037
132.578 15.0401 1.78544
176.961 20.7437 2.58509
121.101 14.6821 1.82143
167.255 20.5376 2.55061
149.298 17.7023 2.18114
160.306 19.1015 2.45684
117.252 14.7194 1.81026
149.734 19.3098 2.57393
154.309 20.2259 2.70326
144.37 18.4528 2.46926
139.138 17.8657 2.36841
148.311 18.8557 2.36987
156.049 20.5404 2.87527
161.681 21.5731 2.99777
138.276 18.7506 2.53624
137.1 18.0538 2.47853
147.756 20.695 2.69163
167.73 24.3589 3.80884
121.172 17.603 2.58477
158.859 22.9094 3.42035
132.323 19.6311 2.87052
120.368 18.2304 2.80323
139.525 21.2785 3.34914
159.156 24.5814 3.75431
119.645 18.7727 2.92583
136.759 20.4296 3.15586
129.792 20.5526 3.34596
124.185 20.0881 3.19778
128.102 21.1303 3.41672
154.167 23.9098 3.69702
132.548 22.0696 3.57487
118.671 19.1479 3.18645
147.551 25.0128 4.25469
136.648 22.0068 3.65326
141.469 23.4835 4.015
125.207 20.8844 3.59792
118.311 20.8679 3.67024
126.094 22.9654 4.11976
153.458 26.7899 4.53399
146.403 26.0602 4.69061
108.302 19.4909 3.71334
116.463 20.9838 3.83258
103.665 18.7719 3.43914
115.607 22.4896 4.26961
104.667 20.2021 3.92756
126.753 22.5566 4.28362
99.4485 18.7985 3.62725
136.71 26.6067 5.05617
92.84 17.9994 3.48391
124.227 24.433 4.71801
111.45 22.4748 4.4431
131.586 26.2385 5.29932
99.2139 21.1854 4.63763
110.675 22.1115 4.5049
101.734 21.8732 4.63158
110.378 22.8978 4.64521
89.5384 19.1228 3.90801
112.317 23.5935 4.92033
112.139 24.1134 5.35559
114.146 25.8854 5.82188
107.324 23.6369 5.29517
104.199 22.2601 4.95411
93.8153 21.8293 5.38246
109.18 24.2076 5.24871
93.8217 20.6154 4.6326
95.3536 21.5135 4.92693
96.0271 21.9608 5.005
105.001 24.2133 5.76192
92.2637 22.0045 5.15966
94.6446 22.505 5.23589
89.5313 20.3763 4.87731
107.793 25.5558 6.19009
78.9811 19.5531 4.82661
75.3839 18.3953 4.71935
100.494 24.018 5.74772
83.1101 21.8286 5.6599
94.6535 23.6166 5.76415
104.321 27.0704 6.90319
82.2628 21.9661 5.72212
89.9713 22.8603 6.15229
82.2525 20.9795 5.44119
87.3842 22.5762 6.05661
90.942 24.4878 6.40803
98.1659 24.8664 6.46679
81.286 21.5537 5.95706
81.4696 21.9383 5.82999
74.1348 21.1866 5.85828
81.923 24.0629 6.67156
83.2595 21.9811 6.06035
87.7544 24.4732 6.99032
88.7538 24.8813 7.06455
80.7868 23.2506 6.58475
89.3945 25.99 7.26753
92.3594 25.472 7.23689
82.3553 24.1612 7.36657
83.3582 24.6783 7.24426
80.3186 23.1131 6.80938
80.1159 24.2874 6.9533
89.9996 27.6551 8.40979
83.9897 26.1595 8.15608
87.9445 24.9475 7.67539
72.0688 21.8233 6.86885
85.0012 24.9839 7.2577
75.8437 22.4052 6.52987
71.7978 22.4534 7.01214
84.5332 26.9649 8.65564
72.8603 23.3109 7.80479
96.8078 31.0427 9.65917
79.5696 25.6229 8.09812
70.3478 23.29 7.81505
79.3638 26.6498 9.1764
79.5935 25.7016 8.4507
100.346 34.0139 11.2898
79.2942 26.3845 8.99343
78.2991 26.3618 8.57039
78.4068 27.7699 9.43539
86.7979 30.4141 10.6124
84.4667 29.0565 10.3094
88.063 29.2016 9.22108
86.1181 32.4784 11.6978
105.546 36.6726 12.6584
75.0153 26.7836 9.48384
83.5751 29.5816 10.5445
96.2747 33.9082 11.97
90.4216 34.2351 12.8671
86.6921 33.3042 12.4591
88.3545 31.1946 11.7472
93.2523 35.1811 13.2128
83.524 32.7804 12.5635
102.467 36.483 13.3681
89.1876 32.9416 12.085
77.8797 31.7124 12.4253
85.0821 31.0519 11.4535
96.2476 37.8687 14.8609
87.695 33.2614 13.2625
81.7428 29.921 10.8503
71.419 28.9287 11.2914
63.2906 24.1135 9.67362
68.7379 27.7066 11.5206
79.7654 29.8652 11.9793
84.3771 33.8168 13.7646
70.406 28.101 11.8301
63.8789 25.7949 10.4277
63.3472 24.7477 9.96534
64.3489 26.9401 11.4158
69.3718 29.2448 12.3352
70.1626 29.2476 12.1967
62.9766 25.4588 10.5117
73.0954 31.4196 13.4014
57.4149 25.3897 11.6826
67.0371 27.5896 11.6717
66.8454 29.1535 12.5302
64.5588 28.9514 12.879
55.6154 23.6108 10.2772
62.1915 27.645 12.2074
68.3304 30.392 13.4605
53.1196 23.4643 10.8287
59.344 26.5581 12.044
59.8511 26.9104 12.3128
72.5541 32.9628 14.7819
73.4166 31.5878 13.9768
66.85 29.73 13.3537
67.4662 30.8434 14.1762
55.7123 25.7028 12.341
62.5267 30.2692 14.3288
56.8262 27.5431 12.9799
57.4529 28.6853 13.5633
55.8846 26.9449 13.651
53.2963 25.5672 12.546
53.5929 25.1161 12.1597
60.2117 28.5965 14.1349
72.2054 33.9877 15.9241
50.4857 25.4607 12.7958
54.893 27.0976 13.3237
57.5581 27.4286 13.5326
65.1061 33.2928 16.4718
60.4212 30.9745 16.0934
62.6179 30.1889 14.8908
62.7883 31.4084 15.9011
62.8036 31.1595 15.218
60.9001 32.4104 17.5852
60.5051 29.3739 14.7344
54.5424 28.2744 14.7287
50.1431 26.2293 14.6004
65.9103 33.0813 16.6073
59.6127 31.1152 15.9054
61.7217 33.5438 18.1798
58.884 31.435 16.9709
57.5492 30.3946 16.2575
56.2655 30.5674 16.8538
64.2878 35.6947 19.137
55.7107 31.5778 18.1966
62.2302 33.8511 18.5854
61.0598 34.8528 19.912
61.0418 33.5207 18.3511
63.6527 35.9345 20.4847
56.7918 29.896 16.8117
56.2657 33.2982 19.4692
60.9039 33.9435 20.2277
65.1746 36.3749 20.6593
65.1488 36.2392 20.2474
76.4219 43.979 24.7977
49.2208 27.4163 16.0518
72.9244 43.3378 25.3551
55.3564 32.7367 18.929
58.6813 35.1178 21.1514
52.8187 31.2113 18.5828
59.5171 33.6573 19.0819
51.2159 31.1585 19.5311
56.9165 34.0563 20.8129
53.2133 30.7161 17.7499
49.7239 30.9816 19.2857
46.8747 28.2043 17.7638
53.0421 33.2922 20.9225
52.7799 31.6839 20.439
47.9735 28.3689 17.173
54.6095 34.9177 22.5479
57.4118 35.9857 23.6571
53.3065 32.2252 19.6212
55.7001 34.2386 20.4677
49.9096 31.6326 19.3742
47.6262 31.6686 20.7367
51.125 33.3289 21.9331
54.0199 34.5704 22.8936
53.8935 34.1722 22.6064
51.6352 32.4139 19.405
51.6711 34.7172 23.3863
49.7933 31.9628 20.8886
60.9756 40.4101 26.5562
40.5167 28.5778 20.8961
60.376 37.3247 23.2932
47.4205 32.6248 22.8642
45.4573 30.888 20.927
41.0951 26.8533 18.5501
54.4164 35.3793 24.0672
45.7677 32.181 22.6739
38.0468 25.6325 17.6133
40.2381 26.9425 18.6549
48.8144 32.6536 21.9973
43.4881 30.9721 21.8458
42.7157 29.6709 21.1313
44.1691 30.4879 21.7582
49.7247 34.246 24.0708
54.0009 36.7972 24.6378
41.7101 30.0855 22.1791
46.6166 33.5872 25.021
41.6244 30.1747 22.4235
48.1042 32.8321 22.269
45.8826 33.0882 23.6781
45.9473 33.3736 25.4253
50.6006 35.7789 25.373
51.6567 38.2767 27.6628
45.0715 34.0365 26.2365
49.5822 37.0874 27.1379
42.1349 30.8309 23.3576
46.9863 35.258 25.8539
38.9362 30.0674 22.8841
42.0143 32.8043 24.9584
42.4539 32.3021 24.7035
37.9881 30.5011 25.3603
46.7575 35.3953 26.5768
35.6628 27.295 22.1694
50.8316 36.7841 28.6278
44.9498 34.7072 26.9719
38.0655 28.2186 21.5401
40.7314 32.2521 25.5905
41.787 31.825 25.1502
40.2515 31.569 25.3554
40.6089 31.0687 23.676
36.1655 31.333 26.4769
40.6648 31.6475 25.4951
41.1824 32.4597 26.1584
40.5512 31.6505 25.3951
42.1665 32.8645 25.4766
39.4012 34.2469 28.7242
41.9969 34.0453 28.2371
38.2154 29.2695 24.3863
40.3694 32.4665 26.7046
45.8801 39.8026 33.233
36.2844 28.8393 24.487
41.4649 34.8181 30.1531
47.3551 38.6245 32.498
43.6716 36.0978 30.2421
40.3245 30.973 25.3072
39.9462 33.0239 27.9572
36.3837 30.8517 26.514
39.2189 36.155 31.6897
33.2778 29.2612 27.2174
37.7765 32.5723 29.2548
42.4093 33.1888 26.6215
36.0097 31.1033 25.9006
34.8734 32.587 29.7539
32.8538 28.9601 26.9252
40.4902 34.3257 29.1062
37.707 32.8387 28.9934
39.1387 35.415 31.6773
35.72 30.2479 27.7525
39.6333 35.4424 32.337
39.258 34.4179 32.2513
42.8442 34.8649 28.5862
33.4792 33.1805 32.4566
39.6677 35.1859 31.5089
37.1607 32.6994 29.8963
39.3827 36.7469 33.9996
37.2437 32.8231 29.8741
26.8661 26.5322 28.8492
42.237 36.9541 32.5598
32.2723 25.8748 23.9239
36.1693 33.9312 31.2208
38.9426 37.1214 35.172
35.7524 33.1744 31.9084
30.7283 27.8007 25.802
27.9803 28.9273 29.0461
33.694 31.7739 30.4939
32.3051 30.2226 29.0552
35.9438 33.693 32.7236
36.1987 34.4016 32.1874
33.9936 32.7184 31.8854
33.4361 31.5003 31.3086
33.7474 33.0704 33.6946
33.5586 31.2952 29.5427
31.3031 30.2548 30.2148
33.7692 33.1195 32.4774
24.1401 23.5359 24.3396
29.5584 30.3556 31.6276
37.0583 38.3033 39.0477
29.199 27.0499 26.4225
31.1733 31.2142 31.3567
28.7181 30.8776 32.8892
34.4619 34.7852 35.7925
30.6255 30.799 32.3443
31.2083 34.4014 38.559
36.5054 33.0297 31.8762
32.6436 32.7904 32.219
27.9879 27.683 28.6016
30.0219 31.2501 32.4797
36.902 38.5462 40.0897
30.091 32.7149 36.3878
32.0128 32.116 34.2
32.5284 33.436 35.3333
34.1264 35.0148 36.7523
35.5605 37.6408 39.195
26.244 28.269 30.3359
28.8994 31.8315 34.3801
29.2573 29.6251 32.1925
27.9543 31.0032 33.0521
26.4646 29.3961 33.4057
34.486 36.8249 39.139
30.8047 32.3463 34.5411
26.4937 31.276 37.3434
27.4875 25.8445 26.8302
33.2955 37.5813 39.7951
26.2705 29.8247 34.9747
29.0564 33.1276 39.7412
31.9648 32.4995 34.424
26.5915 29.6023 34.2014
30.3979 32.3839 35.12
26.2603 28.6967 32.1939
28.5035 32.395 37.8498
26.2361 30.6705 37.2602
32.5181 32.8449 33.8358
31.1643 36.7546 42.6564
29.5482 33.3776 35.221
21.6733 25.2159 31.6807
28.6881 31.6139 35.1851
26.8984 30.4724 33.7036
23.922 29.1663 33.1855
19.9423 23.2783 29.2367
26.861 31.7196 36.2841
23.3952 26.2562 32.4747
27.7985 31.3157 35.2754
25.9491 30.9014 34.3655
21.4143 27.2001 35.4313
23.521 28.6395 37.114
26.9757 30.3648 35.1281
24.9916 29.54 35.6453
23.7755 28.8185 36.1869
29.0822 33.4453 38.4241
25.2504 30.934 39.2215
29.4746 33.0206 39.2755
27.9202 31.357 35.591
23.2308 29.8986 38.4597
22.1276 25.9278 33.7113
28.6055 33.4149 38.5955
25.9926 32.1047 40.3177
25.0878 31.7167 40.6974
27.6565 31.0828 36.2488
24.6857 30.9649 36.9032
22.9366 27.9505 35.0014
20.5426 25.1725 30.7271
26.4771 34.5998 45.4661
22.6715 27.7514 35.3835
22.7733 26.6665 34.9517
26.8985 32.772 38.2028
22.7404 28.656 35.7902
23.5416 30.5909 39.6435
28.975 37.2821 46.1555
22.0254 27.852 35.8696
22.8037 30.9196 42.5936
26.5641 33.2629 43.0859
23.1134 28.9125 39.3108
25.0287 31.2013 38.6267
25.4327 34.4002 44.763
23.2079 27.6979 35.5225
22.8344 28.1379 35.6144
21.2607 30.1065 39.224
22.4987 31.5408 43.7715
25.3012 33.2771 44.3407
25.082 32.3594 42.9642
21.8133 28.8695 39.6532
23.4312 30.4292 41.576
24.0122 31.0897 41.8814
25.3506 32.5413 42.7215
22.6037 27.9817 36.8015
25.0558 35.5004 46.0501
20.2908 26.6803 38.3083
23.6638 33.2455 44.5486
19.2165 26.1223 37.6373
22.5207 29.576 40.5528
22.0417 31.9213 43.6311
20.6694 28.6219 41.7505
19.5028 26.6976 37.823
23.3557 30.7522 41.7736
21.546 30.2972 43.4961
21.8862 28.7488 40.4679
22.2147 30.9198 43.8591
19.0676 27.0482 41.0714
24.6446 31.5307 41.4339
18.1276 25.7372 40.1731
23.887 30.945 40.9022
18.8558 26.0669 36.6764
19.5903 29.5946 44.0469
19.4607 25.3576 36.7311
22.6585 32.4239 45.7259
19.8785 27.3425 39.9593
23.3535 33.4953 46.1801
21.3645 30.2764 44.8299
19.7377 28.017 42.0191
18.8834 25.3172 37.1329
20.904 30.9484 45.4747
20.3791 28.599 42.8689
21.1203 28.0371 38.3923
22.2868 33.0967 47.6151
18.3442 28.4612 44.7916
22.4209 31.0688 43.9086
19.8293 29.0548 44.8524
21.3156 30.6394 43.5051
20.1993 30.7261 51.7619
27.0037 38.9888 54.1726
21.3096 32.1562 47.8492
19.8059 30.0311 46.6351
21.5633 29.0807 42.3967
19.0708 26.6268 41.2608
20.5211 30.255 46.8072
24.7334 35.5383 50.9654
23.3457 38.2104 59.7297
22.3705 32.4212 48.3303
20.7958 32.0051 50.9139
21.0028 32.3646 50.8369
20.7065 33.2052 57.4458
25.0941 32.5687 44.495
24.7732 40.2217 61.1201
20.2031 32.2666 53.8034
20.3752 29.4757 44.9607
18.9542 27.9913 41.0925
18.8413 29.8027 49.2088
17.3668 22.7214 37.2327
23.5338 34.8032 47.194
17.1509 28.0222 45.1337
17.1534 26.6868 42.69
18.5385 30.8368 51.2016
20.0325 30.961 47.2251
17.5187 26.6779 43.0767
17.7618 27.4579 45.3807
22.7617 36.532 58.2526
18.4932 29.8589 49.3734
20.4949 33.4116 56.2345
18.3036 25.7098 39.5823
17.965 28.9652 49.5569
17.9816 26.915 45.5512
18.5817 28.3154 43.5123
17.4068 27.7964 45.3894
18.9808 31.0769 48.0007
14.7734 23.7578 39.7901
20.7026 38.9236 68.9714
18.2684 27.4418 49.8167
18.8731 28.4717 46.4465
19.5355 31.856 51.6023
17.3332 26.0258 42.7736
17.9928 30.3485 49.9911
17.8187 29.8441 48.4856
17.5542 31.2542 52.116
16.3084 28.3043 50.2888
15.6904 25.1032 46.5193
20.1542 35.4787 59.557
18.5089 29.4218 51.5709
16.036 24.6294 41.7285
18.1702 31.1236 49.6108
14.6923 26.6655 50.0142
18.4918 30.433 50.5681
16.0026 25.4831 42.671
15.1887 23.8888 39.1986
14.5504 26.9954 45.6877
14.3611 26.2395 45.547
11.984 20.0165 39.8261
15.4256 26.1569 46.8236
17.4476 29.3243 49.4229
14.2114 23.2216 42.4343
15.7595 25.9342 44.4136
16.2917 26.9062 48.0369
17.7355 30.5415 50.7473
14.8036 25.4052 48.1525
16.4778 28.3001 51.5028
18.0018 29.3987 47.4628
14.1938 26.1693 50.2966
17.9188 32.21 58.8402
18.4744 29.9743 50.6008
16.2951 29.7461 53.0275
15.5077 28.4376 52.3648
19.5112 36.121 62.5424
15.2802 24.1991 45.74
17.0012 28.5361 48.6107
14.0459 25.6538 48.4059
15.2473 26.1786 45.5107
14.6964 27.6913 49.5247
11.7325 20.3798 41.1753
14.7932 24.1761 42.704
14.1186 25.5647 47.108
15.679 29.3896 53.8866
17.0056 29.8099 51.9036
13.8743 26.2618 52.2173
15.8699 25.2552 39.4478
12.6785 27.2656 55.2739
17.4204 31.5689 60.0773
17.2563 31.3281 59.0121
12.6934 20.7426 40.6088
15.472 28.3445 52.3178
14.6005 25.3352 47.1662
15.5588 31.5415 61.1981
16.3618 28.3336 51.7235
13.7155 23.5543 41.1245
12.9253 27.241 52.8423
14.4437 27.7477 55.5921
15.6285 27.7253 50.6613
14.0451 25.5062 47.4938
13.2926 25.6879 50.2944
13.9637 25.9205 50.8386
12.9196 22.6977 43.8269
13.2728 28.2161 60.4724
14.9408 25.4227 46.0558
14.6361 29.7891 56.3544
13.5126 25.084 49.7982
15.1477 28.9233 61.9991
17.7346 30.2168 53.788
14.4506 26.3835 50.737
15.1325 26.3045 48.0336
15.2846 29.8013 55.4431
14.9711 30.7702 62.6051
14.7422 26.2829 51.1756
14.2748 27.044 50.2881
12.02 22.3595 46.109
14.4961 27.9251 52.3496
11.8344 21.9939 43.9797
12.9228 26.6832 51.3264
10.8875 20.8745 45.4356
13.9988 25.6158 48.7696
13.3891 27.9891 56.2478
14.4726 32.9839 65.6497
12.8798 22.4606 48.8253
13.0395 25.3491 51.8906
14.0132 27.1474 52.8366
13.2398 27.4107 54.7606
13.8664 29.4242 60.0055
13.4232 28.1153 61.1949
13.8911 26.1569 55.2853
12.7447 24.2474 49.6637
13.8387 27.2511 52.9658
13.1955 25.7669 51.8235
12.8918 29.9015 67.3217
15.0299 28.2002 55.7961
13.1061 24.7481 50.5269
13.6115 27.1805 56.6988
13.0145 26.9143 58.1589
12.5099 25.7037 52.3004
11.9684 25.2105 54.614
13.8552 29.1061 57.5647
10.7532 21.3772 49.3064
12.7787 26.5786 57.8351
14.0669 28.6282 60.4731
11.7982 23.1467 49.0917
11.8034 24.2243 49.7036
12.3767 25.338 54.0956
12.5762 24.325 53.8912
13.0675 25.8643 52.4202
10.748 23.4566 51.2642
11.8246 24.8411 51.3395
11.7458 24.0519 49.9119
11.9362 26.9683 61.9501
13.4906 25.5716 55.5587
13.8723 28.6573 61.2898
12.7695 24.3142 47.2273
10.6303 21.0178 42.8558
9.50274 21.7421 52.8076
13.328 26.686 54.0023
10.5388 24.0849 52.5108
11.8127 26.5917 61.736
12.4328 23.8847 49.5756
11.1704 24.4834 54.838
12.9011 27.0474 54.4222
9.55303 21.1939 51.9564
10.9342 20.8504 46.9369
12.0183 26.1966 54.8764
11.7857 24.4738 52.3531
11.2419 23.8521 53.3344
10.3882 21.9833 54.0898
13.9796 28.3026 57.02
10.7971 23.7455 52.6574
10.3845 22.8745 51.1851
11.122 24.2932 56.9865
11.1264 23.4292 51.7599
9.45908 20.0762 48.0181
11.8571 26.5487 56.9584
10.7136 22.4184 47.2497
10.3531 25.6088 65.7313
13.5851 26.3297 54.5972
10.6656 23.7366 54.7187
11.942 26.27 55.7813
10.1509 23.4129 55.4616
11.1471 25.8718 61.9023
10.9607 22.1037 49.7466
10.3699 23.1267 54.8752
11.3611 25.3826 57.2003
11.6457 24.9746 53.8293
10.0408 22.3486 48.5301
7.99764 18.1801 48.0666
10.5638 24.531 54.9991
9.52361 23.4967 53.6838
10.772 22.1297 54.1625
11.4256 24.7967 53.0257
9.8953 23.3288 55.7901
10.3135 22.3402 51.1543
9.45302 20.5407 45.8713
9.00513 22.7625 59.5993
11.3839 23.9264 57.5479
13.5378 30.437 63.8584
10.4906 24.6602 64.4447
11.4435 22.8397 52.1809
11.3322 25.9757 54.2577
9.65699 23.6213 56.1936
9.61256 22.1423 60.2813
11.5219 23.5379 51.8161
9.42504 22.3988 52.0649
8.81558 18.6411 45.7873
8.85575 22.0859 55.1202
10.6668 24.3213 59.064
10.8726 24.1706 54.9105
9.84273 24.8416 66.094
11.3387 22.1409 50.2433
10.1747 22.9892 54.925
10.2065 24.5997 61.7353
9.87451 22.0474 52.7864
8.76073 20.0794 48.4451
8.8451 23.0668 63.6917
11.2521 21.5604 47.881
8.40259 19.8869 47.1307
9.73134 23.2684 52.0127
8.34962 20.44 51.1581
8.87479 22.6593 58.7757
10.4745 23.1279 54.0701
9.48636 23.5072 59.8272
9.89383 22.1055 54.735
9.61676 22.8043 57.3069
9.97109 22.4713 55.9962
9.2878 19.431 43.5878
8.31616 20.3331 50.6866
8.70219 20.8889 48.3847
8.36451 21.7929 56.3083
9.53041 24.3181 59.998
8.96864 19.4507 48.1128
9.42324 21.9737 53.6628
9.11038 23.4869 61.007
10.59 24.2761 57.8201
8.58973 20.7847 52.0021
8.40131 18.4882 47.4337
8.42598 21.1759 53.3775
9.9414 23.4644 56.333
8.53792 21.0584 52.5585
10.0497 24.3124 55.6874
7.73781 18.8924 54.1818
9.75996 19.0111 44.0137
7.61911 21.2231 56.2821
8.40032 18.4934 48.9891
8.31693 19.1824 48.4359
8.05166 22.3881 65.4772
11.1367 24.7557 55.8172
9.9058 28.3205 72.0333
9.32884 23.2475 64.2852
9.8902 22.7708 54.4404
8.96879 21.5614 55.8744
9.48605 22.5988 54.7857
8.8774 24.318 68.6378
9.84579 23.7905 58.8364
8.01845 18.4863 54.6824
9.71029 22.1323 54.591
9.77174 22.7709 53.6729
8.85657 22.9055 57.2645
8.65668 21.7518 56.8239
8.8459 22.1682 54.4379
8.3577 19.4362 53.275
8.94602 23.8316 60.1017
8.41624 21.4571 56.6839
8.78599 22.3195 58.0607
8.31535 19.5276 48.5852
8.35856 22.2299 58.5938
7.54026 18.5932 53.4441
8.347 20.4809 57.9651
9.0178 23.326 61.991
8.77174 21.1694 58.3919
8.7173 23.3585 61.067
8.84779 19.7662 52.0812
8.35225 20.7637 51.1323
7.47261 19.2343 53.6221
7.88837 19.7443 51.2569
8.61157 21.022 51.9641
7.71844 23.4404 66.3341
9.23023 23.7882 68.0066
9.87364 23.1547 63.2113
9.51178 23.3544 61.5759
9.10909 24.4769 70.1776
9.76888 23.036 59.4097
8.9196 22.9151 58.0642
7.46799 20.476 54.0867
7.84678 20.3389 56.1669
8.44307 21.4645 54.7665
6.51699 17.7151 53.139
7.31722 18.6442 50.8921
6.32979 15.679 46.9778
8.04824 20.8125 54.0309
7.95422 22.1938 59.2066
7.40265 19.5742 59.9472
9.15223 20.8719 49.9818
6.92039 19.3434 50.4742
7.15884 21.2654 56.9066
7.29601 19.7427 61.2484
8.94788 22.2487 58.4586
7.79936 19.6478 55.6506
8.24489 23.6515 57.9823
6.22085 18.2181 58.4634
8.43288 21.031 53.0981
6.98827 19.6792 53.0942
6.52714 17.3443 54.0919
7.76056 19.0783 50.4833
6.68191 16.7169 46.5193
6.91519 20.0755 55.3069
6.60489 17.2913 49.1942
7.11123 20.6211 61.9495
9.02179 24.2589 63.8687
7.40384 18.1655 53.5523
7.51211 19.9688 53.3677
6.6072 16.9592 47.7146
6.51168 19.6513 60.0811
8.11555 21.9869 56.0834
6.1289 15.9501 55.7628
8.36907 19.7515 48.7814
5.84123 16.1634 46.4377
6.27054 17.3937 55.2667
7.71345 21.0964 59.9916
7.67317 19.6392 53.5281
6.28667 17.8697 60.8652
7.69926 16.8089 45.024
7.39847 21.0613 57.3562
7.80067 20.3806 52.299
6.5833 18.3372 54.0919
7.72365 23.1805 65.6821
7.3349 16.461 45.6629
6.29089 19.0809 53.1973
7.24615 20.7978 62.4836
7.43624 19.9728 56.3714
7.08163 17.248 43.371
5.07931 17.3205 54.3725
7.2106 19.4083 54.1854
5.66949 14.6199 50.1382
7.65579 19.618 50.7337
6.81413 21.8847 66.1324
7.16302 21.991 66.398
7.39052 17.1881 53.1748
7.64929 20.1869 59.1049
7.10418 19.327 56.6632
6.71312 18.3589 54.6698
6.75021 17.1848 50.402
6.02923 17.3877 49.2674
6.2248 18.9489 51.929
6.35164 17.56 60.5291
7.58463 20.1419 54.0563
6.45915 19.2411 58.3883
7.32799 19.9625 57.057
6.76901 18.9321 54.3747
6.49503 17.4397 49.7984
6.04337 16.6434 51.6218
6.3325 18.2681 58.0162
7.12802 19.1273 50.9156
5.61106 14.1614 43.9164
5.85004 16.4395 52.8053
6.72715 20.0043 53.2395
6.4505 19.2665 59.5872
6.65599 18.6415 64.6554
7.89745 21.6962 61.4417
7.1016 21.4335 59.3559
6.65714 18.2135 52.96
6.17948 18.7899 53.6406
6.59644 20.3053 57.1501
5.45307 15.8411 56.1196
6.97311 18.8956 54.49
5.92213 17.1902 52.3918
5.89854 17.4421 56.4421
6.88908 18.3923 57.4237
7.37609 17.9827 51.8747
6.2844 19.1747 51.3023
5.12776 17.415 59.2283
7.10966 22.796 70.2779
7.389 19.719 54.1036
5.65286 16.6072 56.8124
6.70676 17.9906 48.6668
5.36221 16.1379 63.07
7.71077 22.0028 54.0411
5.22531 17.1842 64.7893
6.80844 18.3589 56.6878
6.7716 19.072 54.4685
6.40071 18.2259 49.5101
5.57917 18.5241 62.0239
6.25988 17.7048 58.1893
6.27447 19.5299 60.8818
6.74621 18.9725 59.2782
6.84386 20.0566 61.8086
7.05122 21.3012 61.407
6.48058 18.8682 55.6828
5.48835 16.5073 54.5479
6.18617 17.8507 57.97
5.99533 17.0302 49.8166
5.39098 16.4631 51.7228
5.93877 18.305 56.8158
6.58443 21.867 70.9702
6.81914 16.803 58.7912
7.37238 21.5166 59.032
6.28875 18.0168 57.3528
6.28591 17.1295 51.4294
5.6217 16.2585 43.9836
5.26974 16.4535 55.0731
6.32904 15.9576 43.3697
4.63554 15.9926 54.2384
5.71519 17.6572 54.7599
4.94197 14.9614 54.9769
5.8292 16.288 53.2421
6.15319 16.5643 54.0888
5.96574 17.8115 57.0224
6.16499 19.3707 62.7479
6.91919 20.3019 59.2759
6.18976 17.1111 49.6292
5.3412 18.4723 56.2361
5.3768 16.9315 60.7424
6.56404 19.4763 57.6373
5.24699 16.823 57.1001
5.28632 14.2259 54.1717
6.25981 17.0453 51.3425
5.43465 17.1387 52.761
5.27262 15.6435 53.1784
5.94955 17.6075 54.5746
5.08396 16.2065 52.9672
4.9656 16.5831 61.4919
6.62127 19.0397 57.3842
5.54148 16.8731 55.7779
5.35773 18.6335 69.5313
7.07956 20.858 57.2714
5.19136 14.4086 47.6657
5.45144 15.9113 47.4336
4.61746 16.1035 58.293
6.03693 17.0429 54.3868
5.66001 18.8625 53.9787
5.29765 15.571 48.348
4.33183 13.7586 50.3627
4.55923 16.5909 59.9171
5.95721 15.236 50.1025
5.63968 19.0409 60.1896
5.8843 20.2144 55.8541
4.8683 15.5554 52.0029
5.08218 17.1929 52.6645
5.15427 15.4344 54.1657
5.03433 14.1783 48.368
4.78355 17.2488 60.2889
5.46128 16.1078 53.5186
4.90892 11.5487 41.7603
5.01344 16.5366 51.9063
5.06395 16.8323 50.9004
5.06473 14.7804 45.604
4.41541 15.9261 60.1807
6.00265 17.9645 61.833
5.86253 19.8547 63.5625
5.84917 15.6433 53.3197
4.86111 16.3154 57.1421
5.66213 17.5804 57.8307
5.93338 17.5433 54.882
5.20656 17.4258 54.2637
4.79643 14.0641 47.5894
5.02433 16.5681 53.019
4.84896 15.8189 49.9742
4.95974 15.7293 53.6528
5.16145 13.6149 47.5338
4.99502 16.8411 54.5152
5.00613 16.1492 56.3308
4.92354 15.5638 57.4804
5.38389 15.1063 61.2983
6.35919 18.8591 58.4271
5.59028 16.1863 47.3727
4.59138 16.461 55.8388
4.98693 17.3092 64.2934
5.84547 15.9019 52.2074
4.89695 15.3718 52.7532
4.97745 16.3168 56.7785
5.37233 18.9527 66.8222
5.90147 15.7386 53.7845
5.37868 17.8723 59.8382
5.60279 15.8658 50.4459
4.24375 12.7994 42.7905
4.65771 16.0235 55.0604
4.82792 15.1903 56.6027
5.81033 17.0095 51.9247
4.91632 15.4976 56.4189
5.23495 14.9402 55.153
5.44061 16.2543 46.2201
4.29371 16.8751 56.2859
4.62636 14.8909 51.1788
4.60253 14.2819 57.4907
5.50652 17.8967 56.9783
4.46408 13.8066 49.8901
4.9914 14.8921 47.2625
4.39663 17.0145 56.7239
5.03917 15.0166 49.9643
4.96976 15.2708 49.2667
4.21996 15.1692 54.8201
4.43623 15.2016 59.4547
5.16183 13.7288 51.2475
4.7599 14.6535 50.9711
5.02728 15.431 54.1887
4.96239 16.2016 53.0551
5.3218 19.6192 68.04
5.6629 16.9913 61.4774
5.55675 16.8496 55.2315
4.84751 16.3586 59.7874
5.42263 18.0407 63.0495
5.2738 15.5977 52.1936
4.77173 15.7638 52.9361
4.86001 17.9576 58.4249
5.30229 16.6378 61.5259
5.23995 15.0861 49.4984
4.42502 15.1775 54.6268
4.53038 12.7043 44.9467
4.42583 16.1414 56.2539
4.91585 16.0656 56.4253
5.10365 14.6763 49.1888
4.22912 15.1315 54.7399
4.85818 17.1371 61.0313
4.95493 15.6008 50.1627
4.44259 15.5651 60.3228
5.47981 16.2789 58.0502
5.01703 15.7598 52.6412
4.55817 15.6083 54.497
4.65395 16.0364 54.9936
4.34799 14.1788 58.7371
5.56653 18.5003 54.9885
4.31132 17.0473 65.0533
5.53658 14.454 44.2399
4.0163 14.3937 59.345
4.88785 15.2433 56.8232
4.99874 17.4895 53.6633
4.39696 13.6823 52.965
4.50888 16.484 53.4966
4.28372 14.1357 51.3297
4.40328 15.7739 58.8079
5.15464 14.0288 57.9775
5.28519 15.2832 56.7668
4.88743 16.3356 54.0271
4.80621 16.626 53.4801
4.12293 12.7136 50.2659
4.99644 16.5872 58.0114
4.87074 15.6902 41.2838
3.29058 13.2988 55.5785
4.92503 15.6248 53.462
4.54885 14.8391 51.9408
4.43348 16.085 54.2191
4.54724 14.0676 50.3724
4.06829 15.1429 58.5221
4.46525 14.746 50.5943
3.84035 12.485 54.4142
5.16977 15.0523 49.1743
4.18565 15.3388 55.1108
4.64337 14.132 53.1089
4.76562 16.6083 66.7586
5.60714 16.7829 54.0439
4.53807 16.6395 59.1744
4.52649 14.4467 48.0449
3.76763 13.9068 57.3511
4.70847 15.3376 54.3743
4.06353 14.258 57.4871
4.71572 17.285 55.7277
4.39991 15.1623 52.8955
4.25896 14.0038 51.5142
4.28966 17.8083 63.2762
4.84307 14.2367 53.9687
4.56731 14.0806 53.6373
4.68904 15.2051 51.1775
4.27782 14.9731 50.0508
3.9319 14.5027 55.8533
4.67039 15.4303 63.4532
5.16159 16.7673 54.8671
4.38616 12.2726 40.4332
3.58644 13.4906 48.9767
3.89427 13.4914 50.5867
3.92771 13.5185 50.6841
4.02749 12.8626 46.9914
3.76458 13.1906 49.6841
4.25675 12.2795 42.1572
3.64435 12.9402 48.4575
4.25021 13.1264 50.911
3.97144 14.6171 46.488
3.82679 12.7993 51.7641
4.49164 16.944 61.4831
4.59239 13.2764 47.706
4.25096 15.9065 57.5394
4.76258 17.0557 55.4186
4.42259 13.9435 56.792
4.33772 14.1883 54.7576
4.19735 14.8537 45.9147
3.38633 11.936 55.2275
4.64674 15.2036 51.46
4.22476 15.4698 53.4325
4.30578 13.2188 48.5584
3.63011 14.1674 58.1024
4.27686 13.3992 48.348
4.05832 13.8255 49.3318
4.17915 11.8074 49.3785
4.4028 14.0568 53.4305
4.31388 15.0873 53.9618
4.28566 14.0392 50.3069
3.72561 12.6023 52.1274
4.02301 14.5716 53.8282
4.08881 15.3254 58.7155
4.8773 13.6395 45.9593
3.6839 13.133 43.8731
3.53477 12.118 44.5073
3.66632 14.3951 60.5136
4.90379 15.8767 51.2161
3.9589 14.582 53.882
4.27742 14.0085 53.6218
3.95931 13.8568 47.3229
3.76116 12.8642 57.1402
4.67327 15.8235 57.5949
4.08685 13.3558 60.41
4.67507 15.0463 55.4314
4.28982 16.0046 47.2569
3.29394 13.9475 55.0768
3.87142 12.902 46.4523
3.83733 13.0387 51.2839
4.1319 13.7013 46.7871
3.42093 12.0297 50.3585
4.15376 13.1585 52.6905
4.03466 14.3131 52.1768
3.92909 14.0696 53.0635
3.61376 13.0828 56.0243
4.70209 14.5558 45.8494
3.66886 14.6115 55.8964
3.93961 13.2185 48.7287
3.61318 13.9628 55.0277
4.09511 13.4919 54.0968
4.15957 13.0202 51.9259
4.23971 16.5088 61.1302
4.33594 14.7037 48.23
3.33533 13.0357 55.8686
4.59475 15.1254 61.4624
4.70574 14.8848 42.6782
3.06712 11.1481 45.6637
3.49487 13.2956 51.6625
3.83112 13.3225 47.969
3.5786 13.3704 52.436
4.03806 12.203 41.7425
3.41572 13.7919 54.6782
4.39413 15.0657 52.4355
3.67163 13.9221 52.7966
3.96424 13.6791 57.3982
4.2771 13.263 51.4401
3.97115 16.802 63.004
4.31976 13.3307 54.4481
4.2307 16.1998 47.4487
3.27997 11.7303 58.6962
4.51369 15.0052 54.6651
4.18717 15.3742 47.5244
3.2475 12.9815 50.8432
3.6113 12.3194 51.1638
3.98703 13.6368 48.645
3.44763 12.0344 43.1393
3.23985 11.0445 59.5483
4.29653 14.9242 55.2772
4.40138 16.0804 50.1148
3.56646 13.3921 54.7713
3.94853 12.9241 54.8257
4.20369 11.7477 41.3745
3.1118 13.7744 50.9408
4.05256 14.1476 51.0237
3.72173 12.5191 49.5152
3.84117 13.4074 52.4992
3.97302 13.997 53.5524
3.77279 13.4956 51.6816
3.6226 12.0454 54.5783
4.26916 15.5876 57.9684
4.12682 14.5513 52.7977
4.02459 13.1611 57.9216
4.10671 13.0926 55.6367
4.03096 14.7091 55.119
4.29906 14.4636 45.1725
3.39031 12.495 48.9173
3.70618 13.0563 47.9555
3.40722 12.2934 43.0807
3.13872 11.812 40.2818
2.79074 12.5223 57.863
4.45954 13.2096 48.3745
3.60661 12.9287 53.153
3.91954 15.5525 53.0627
3.80038 12.0321 45.6516
3.29473 13.1545 54.2979
3.81064 13.3299 52.7177
4.21616 12.9757 52.807
3.68567 13.3674 54.836
4.25766 15.3758 47.6485
3.35578 11.6934 49.7193
3.73859 13.4974 49.6522
3.52944 11.3844 46.0602
3.64336 15.699 53.618
3.49992 12.3743 53.3634
4.07428 13.9202 57.6542
4.12888 14.1925 52.1548
3.82013 14.6132 56.8751
3.8762 12.4413 45.1335
3.57138 13.3196 57.384
3.72449 13.554 54.2095
3.99373 15.0079 55.6427
3.85704 12.5634 55.9263
3.87832 12.0063 49.9829
3.74894 14.117 52.8687
3.79739 14.0396 46.895
3.33653 13.4216 50.7435
3.80942 13.5803 52.7967
3.55888 13.4891 47.9519
3.24994 14.6744 57.8289
3.95529 11.5804 51.631
3.61328 13.6279 46.7941
3.40174 11.084 46.7381
3.40024 12.132 58.8473
4.05205 15.9503 60.1882
4.05082 12.6067 45.5247
3.24155 12.9543 44.6663
3.04322 13.2901 53.7534
3.95747 9.97508 37.3345
3.02317 12.5441 52.5337
3.82856 12.0825 45.5624
3.34661 13.1119 55.9624
3.65999 11.7211 44.1791
3.0549 12.9228 50.967
3.65217 15.0888 55.3184
3.95406 11.8812 44.7092
3.17619 12.0849 52.6564
3.58379 13.0577 57.5562
4.10979 14.2938 53.724
3.6426 13.8533 46.0257
3.14563 13.2517 54.2141
4.05536 12.9325 47.5904
3.43608 13.8221 48.5226
3.254 11.3346 48.367
3.88943 13.0825 48.3127
3.40455 12.5328 54.5477
4.02444 13.7526 51.017
3.48147 12.7548 44.7276
3.05571 10.6501 56.045
3.74354 13.5213 52.9602
3.93661 13.0413 43.7961
3.26824 11.7294 45.3813
3.30107 11.4663 51.3049
3.80031 11.8925 43.7953
3.09022 12.2403 50.1525
3.79537 13.6958 52.1548
3.49238 12.3899 47.4095
3.36815 12.3437 48.1956
3.19158 10.9352 48.4227
3.60643 14.3757 48.9042
3.40236 11.0278 39.586
3.06894 13.1863 52.8501
3.85201 12.857 52.5708
3.68666 11.0847 48.8166
3.31051 13.095 47.7506
3.64225 11.5489 46.9741
3.33742 12.4791 53.4986
3.56977 12.9257 50.2426
3.50939 13.6597 49.0048
3.55243 10.742 43.4947
3.00913 13.3159 53.672
3.29776 12.9271 49.2416
3.35262 10.6265 48.547
3.74993 13.8256 50.3088
3.55449 11.1144 47.0129
3.44598 13.9421 54.5371
3.71663 12.1856 53.6482
3.57686 13.3918 50.5874
3.64459 14.0347 48.276
3.15965 11.3229 41.1373
2.99523 10.9552 43.7306
3.00804 11.8941 56.9748
4.20662 12.1293 44.3271
3.44038 12.8221 42.9284
2.87153 12.3285 52.9551
3.89063 12.6125 52.0982
3.76429 12.9135 47.128
3.42999 14.2057 54.5043
3.582 14.3153 53.3363
3.71848 13.3655 61.313
4.32256 12.9797 47.9258
3.25774 13.252 59.1509
4.19844 12.651 55.3659
3.90487 13.1228 49.3979
3.21004 11.7548 51.5214
3.93088 14.1112 50.8834
3.67126 11.3993 48.2486
3.37696 13.332 55.5056
3.82951 13.7389 47.7897
3.55522 12.4305 49.8437
3.62986 11.9616 48.8201
3.37669 14.3676 56.0966
3.84535 12.2806 45.0368
3.14062 12.7334 47.1505
3.17094 11.9985 56.7704
4.00024 13.2844 51.1851
3.64022 12.2437 45.7184
3.49142 12.8775 53.5404
3.74124 12.849 53.4977
3.83016 12.5586 52.6328
3.44327 12.2821 49.397
3.6225 12.6574 46.4588
3.0914 13.3231 55.523
4.18242 12.9631 43.0712
2.90291 10.5476 48.5259
3.42083 14.3804 48.511
3.16982 10.7181 46.5173
3.16432 13.0772 52.2878
3.59914 12.6359 50.3081
3.63437 11.9915 49.1316
3.37527 13.9705 50.0363
3.46668 14.0205 54.5675
3.68343 12.8075 54.2157
3.86629 13.7213 45.4484
3.22498 10.6902 47.2025
3.39568 12.1753 48.9627
3.15942 12.9853 55.7351
3.71286 12.8406 51.0639
3.67584 13.8956 53.3913
3.52092 13.5823 48.4112
3.44904 12.1045 50.628
3.48169 13.3398 49.1378
3.54982 12.6633 51.2187
3.98183 13.2112 55.5966
4.00959 12.6006 51.3853
3.53253 13.86 51.1629
3.647 14.0022 59.4715
4.16688 13.4367 47.1439
3.36234 13.26 46.2162
3.10953 13.1581 49.563
3.2751 12.3989 56.1096
3.77971 11.7661 58.783
3.93829 15.9632 58.4425
4.07827 12.4253 42.1641
2.99226 13.3832 52.0856
3.66592 12.8214 50.4149
3.56767 12.0387 49.7075
3.71809 13.3413 46.5622
3.13791 11.2145 50.5218
3.55756 14.2241 56.3657
3.85541 11.3655 51.1716
3.73584 0 0