# pn-170911/RbIIR-55-TWTF-1280-1959.psd
# Power spectrum* (dif=0,1,2) (really just |FT|^2)
# NOTE: only the first half! (symmetric)
# weeks: 1280-1959
# 6 clock-days, 0 excluded
# PSD: 1441
475.38 0.066374 0.047989
38390.7 0.568104 0.0136182
137647 2.50921 0.0141941
9211.28 0.107284 0.0134984
33934.2 2.37452 0.0151054
3656.27 0.273465 0.0139135
2218.43 0.382563 0.0130159
1472.08 0.338539 0.0138858
4380.03 0.840378 0.0138108
1035.34 0.196154 0.0141668
578.737 0.250027 0.0138268
272.972 0.215643 0.0134261
396.844 0.428081 0.0142635
753.605 0.358219 0.0143037
413.059 0.421563 0.0120503
577.666 0.724231 0.0144916
342.615 0.491082 0.0107193
335.331 0.330968 0.0142959
152.06 0.502977 0.0137208
243.546 0.379959 0.0133443
355.877 0.584204 0.0106444
195.838 0.458955 0.016704
338.937 0.417019 0.014164
239.87 0.905713 0.0157906
577.284 1.46157 0.0256926
467.015 1.11614 0.0191503
462.236 1.80653 0.0268736
369.902 0.980816 0.0182457
285.332 0.912076 0.0215914
548.982 2.16887 0.0165796
405.214 1.62264 0.0183636
829.299 4.19683 0.045098
412.85 2.07052 0.00729724
320.033 1.44539 0.0245572
360.918 1.79175 0.028239
318.764 1.95067 0.0268311
388.414 1.93443 0.0284358
526.617 3.09225 0.0178459
280.02 1.80087 0.0332926
327.817 2.39627 0.0239599
180.175 1.49107 0.00543414
741.328 5.16497 0.0522494
592.151 4.58676 0.0434659
299.537 2.49665 0.0419974
298.318 2.35524 0.0257358
705.387 6.58293 0.0890234
127.62 1.10856 0.0223236
276.308 3.22871 0.0611613
321.626 3.75016 0.0654137
466.793 5.54854 0.0680503
384.031 4.86532 0.0943974
783.425 9.20125 0.155554
550.56 6.52745 0.112141
525.716 6.65809 0.115615
274.952 3.00676 0.0511663
581.392 7.5661 0.131893
510.517 7.62684 0.116164
434.777 6.71492 0.109396
418.248 6.39654 0.121263
523.543 8.50461 0.205059
539.329 9.51023 0.177105
781.99 12.1752 0.203343
359.211 6.14122 0.143066
320.567 5.88159 0.155509
248.684 5.12881 0.129833
390.637 9.28892 0.266718
555.944 10.8694 0.27792
604.446 11.4265 0.242954
566.89 12.9935 0.319954
309.143 7.13256 0.193252
371.513 8.11795 0.240314
351.083 7.40288 0.215895
314.207 7.62165 0.204476
393.137 10.213 0.33528
654.715 15.9426 0.375861
426.51 12.3119 0.336858
487.164 12.9483 0.334084
256.422 5.99449 0.178193
554.676 14.3553 0.423048
251.73 7.12742 0.205576
775.065 25.747 0.820055
389.468 10.8997 0.323435
253.331 8.39632 0.286189
197.419 6.38658 0.293488
176.282 5.36519 0.127733
663.832 22.0977 0.788292
269.998 9.62325 0.401404
256.057 9.38667 0.297739
377.625 15.4232 0.548604
596.74 22.675 0.91202
173.278 7.35341 0.323924
316.508 12.3832 0.568631
303.278 11.3468 0.415363
279.837 12.575 0.486239
378.53 15.6085 0.722293
210.2 9.5167 0.498984
398.094 16.4439 0.678313
486.801 20.384 0.916557
247.73 10.7752 0.515829
441.658 20.0327 0.916276
476.491 23.8063 1.18236
143.039 7.32613 0.358618
228.049 12.7097 0.605555
198.96 7.87809 0.363082
484.826 23.8892 1.12634
301.164 14.8356 0.790092
224.328 11.6802 0.763313
349.374 18.9414 0.97719
263.767 16.38 0.954697
223.499 12.745 0.693703
110.591 6.77689 0.521928
239.733 12.8213 0.735751
301.711 19.4219 1.13877
174.884 9.55203 0.641667
408.065 26.3331 1.67244
296.696 17.9527 1.20172
134.036 9.29385 0.694684
157.429 10.9225 0.713755
278.706 19.2252 1.41717
238.438 16.9844 1.1691
318.382 20.9514 1.31971
184.407 13.9072 0.984595
203.98 14.3037 0.87392
265.416 17.7142 1.31459
168.861 11.6984 0.845783
145.881 11.6831 0.925144
143.318 11.1524 0.829517
169.37 15.8701 1.46225
164.202 12.3125 0.944093
450.156 35.9767 3.02261
184.267 13.0767 1.00424
141.983 11.3321 0.808134
135.885 10.8495 0.911167
145.061 12.8522 1.08893
110.194 10.3882 1.00615
210.904 19.3776 1.91753
386.252 34.1508 3.2094
333.66 29.2001 2.32329
88.3265 8.74158 0.854066
199.04 16.4028 1.26328
152.883 17.2568 1.62297
235.522 24.1012 2.32862
163.206 12.5753 0.969852
140.659 11.6253 1.02637
107.45 11.7543 1.1704
183.034 15.5844 1.46051
116.719 13.2903 1.48798
86.6747 9.69671 0.939172
102.495 10.2146 0.98838
128.481 15.6975 1.70257
89.8879 8.11318 0.883164
91.1921 8.07656 0.752945
173.509 20.8504 2.34494
152.485 16.3294 1.87914
194.083 20.6325 2.33622
135.356 14.4178 1.5332
88.4147 10.7403 1.33875
93.5329 11.6826 1.46022
138.586 16.9042 1.86585
183.488 23.0711 2.97206
119.403 12.2445 1.632
226.521 24.4747 2.67706
133.185 16.1549 2.08245
148.748 18.6166 2.55516
112.158 16.6391 2.21415
141.103 15.2412 1.79863
138.431 18.1826 2.57875
36.239 5.7884 0.947511
156.99 22.5237 3.09916
48.1928 4.9991 0.581302
83.5163 10.1113 1.13844
73.9587 10.179 1.4345
184.57 27.2755 3.75801
45.1972 6.5017 1.00788
38.321 6.61123 1.13827
202.533 26.6739 3.67555
183.983 30.974 4.79139
64.7836 8.19925 1.20927
91.622 11.1623 1.51222
50.89 7.14606 0.917536
91.1896 13.1739 2.12176
150.976 22.8619 3.69551
280.49 42.7539 6.12251
97.8032 14.9477 2.45351
131.907 20.8617 3.40842
95.958 17.9137 3.37378
122.71 17.3462 2.54244
76.1722 11.5898 1.84005
84.9283 14.7287 2.41191
95.1344 15.9446 2.54294
59.9435 9.72325 1.76414
35.9486 6.69237 1.08771
146.281 24.8559 4.57624
75.6339 13.1178 2.25212
103.19 18.9256 3.28066
89.8343 14.8143 2.5348
81.159 14.2987 2.36291
65.7052 14.6329 2.89236
96.8345 15.0531 2.83206
102.198 18.9322 3.15046
116.071 21.1048 4.1398
40.3081 10.0702 2.03927
50.9967 9.0422 1.80618
82.6112 19.8296 4.24779
39.6737 6.59955 1.55714
117.175 19.7296 3.42454
48.3751 10.1031 2.20123
139.56 24.7026 4.98734
119.71 24.0643 4.75457
78.6881 14.7684 2.76705
72.3011 12.9839 2.24442
74.5475 15.2568 2.81199
85.5492 18.4182 3.99259
92.4027 18.881 3.86455
56.0031 11.6002 2.55212
44.2834 8.67859 1.71899
114.251 24.513 5.16551
90.8115 19.2651 4.12557
126.46 27.5676 5.69053
64.0286 14.063 2.97736
55.7403 14.7542 3.67479
95.2324 24.0003 5.81743
52.4204 12.6617 3.06987
98.6475 24.1392 5.68283
69.8902 13.5585 3.13689
67.3454 13.155 2.55019
41.309 9.94101 2.40403
60.8448 14.7715 3.53457
46.98 11.0361 2.86662
65.0567 15.2485 3.58777
47.9357 12.6862 3.51854
60.0455 13.5099 3.06663
33.235 11.9197 3.62631
100.154 22.9536 5.69302
89.5775 20.3999 4.73848
28.9557 9.65632 3.60623
118.841 29.2879 7.07209
102.16 28.7851 7.30799
38.2336 9.64695 2.81022
66.0888 18.6635 5.04142
121.754 31.1396 7.52102
45.7572 9.57259 2.24577
56.4549 18.2098 5.779
99.6118 23.1775 5.81433
68.3275 22.3851 7.4215
64.9657 15.8377 3.53488
9.2624 2.30021 0.92928
54.2833 15.2765 4.17046
99.627 25.8246 6.19576
55.8875 17.9526 5.51488
29.5492 8.01052 2.14828
67.9059 20.0086 6.04537
78.1093 20.7952 5.74636
54.1411 14.7524 4.18769
75.8416 21.2014 5.9641
73.8126 24.0139 7.85786
41.255 13.1432 4.46072
55.4985 16.4816 4.95431
56.9428 17.0452 5.07745
32.9985 9.21003 3.10871
41.038 12.7563 4.51872
89.7489 27.102 7.6864
65.2912 19.7293 6.022
55.4975 17.6484 5.70559
87.1037 25.8399 7.65542
51.5136 16.3671 5.24976
34.7816 9.11178 2.16798
66.981 27.1247 9.69971
85.4011 25.723 8.31704
40.1049 15.0374 6.47263
79.1391 20.681 5.51422
24.9255 7.42384 2.2673
38.1702 13.175 4.97291
91.4492 34.9472 12.7037
78.5994 24.6182 7.59124
31.9892 9.72745 2.98849
19.4659 6.14366 2.03764
97.5039 41.8359 16.1859
107.205 30.7727 9.33494
50.8433 22.2686 8.96048
37.1169 9.50501 2.96231
40.1122 13.0744 5.02611
37.0795 16.1721 6.39889
74.2905 23.0741 7.8712
52.2277 19.3323 6.77212
33.3007 11.6517 4.35689
51.749 19.4563 7.38315
69.079 23.9341 8.36878
36.2946 16.3356 6.489
32.1412 13.3879 6.34969
55.6216 22.5366 9.23083
82.984 31.1783 10.7132
50.1813 22.1992 9.83552
39.5291 12.1263 4.31898
49.1199 15.8146 5.26945
29.4309 13.3735 5.79289
18.7368 8.23041 3.64848
47.0451 17.0894 6.97212
17.2974 6.85278 3.14712
33.6601 15.463 7.96473
84.3856 29.2699 9.9832
82.3043 36.2041 14.5593
19.7564 9.45393 5.05571
65.6142 24.9329 9.8071
35.3433 14.877 7.59532
75.333 30.4676 12.8401
119.575 51.2647 20.5764
24.1325 12.3707 6.87818
69.1065 27.0925 10.0434
40.543 21.8578 12.2102
83.8496 32.5717 12.2879
74.0518 31.6289 12.7365
39.8364 18.8626 8.58065
57.7697 27.7258 13.2214
48.7104 19.2681 8.60762
54.8173 22.3815 8.84509
60.1954 30.6587 14.9387
48.9953 23.0271 11.529
33.8 13.9531 6.22555
33.4183 14.382 6.59897
35.4081 16.281 7.97767
60.7007 29.0341 13.573
25.5687 14.6526 8.96881
55.2855 22.0167 8.79705
39.1071 22.3447 11.6365
76.355 32.475 14.6451
63.459 29.7506 14.2017
45.5983 24.2832 11.9162
21.804 11.9188 6.92638
53.1344 23.7584 11.6149
68.232 31.5541 13.3644
47.8131 25.3799 12.74
13.1745 7.9098 5.34536
45.8274 25.1428 13.7431
41.0724 20.2361 9.87595
46.8363 21.3459 10.1792
33.2245 16.73 8.20792
22.4907 11.2533 6.28065
41.3489 21.8173 10.8189
33.3502 18.8672 11.1067
51.2191 24.9337 12.4374
49.609 28.5505 16.6859
25.8052 14.508 8.57264
32.7919 17.6402 10.4182
31.0428 14.2881 6.36746
48.5501 27.8048 15.0216
27.4058 9.97791 4.00192
62.5865 35.1427 20.1446
13.1377 7.10881 4.64922
32.3607 18.6351 10.3249
26.1033 15.9937 9.96724
33.3109 16.0399 8.46633
34.6783 25.2368 16.7926
54.2798 22.9126 9.10062
28.3371 17.4634 9.68775
27.5996 18.1016 10.6595
31.2287 16.8396 9.81664
21.4699 13.1942 7.77329
32.7901 17.8703 9.76115
32.0329 18.7223 11.1691
42.8313 29.0417 17.15
14.9329 14.23 12.4065
61.1184 31.8773 16.3838
15.0893 7.04373 4.67709
38.9407 23.1351 14.4244
23.3587 10.3874 5.41331
31.7681 19.095 12.6573
28.567 19.6325 14.3364
74.5259 39.7874 21.2138
44.5663 24.6115 11.618
65.3922 47.9175 31.2117
15.6318 8.78864 6.91999
39.0046 23.0914 13.3831
23.3688 16.0559 10.7873
26.0811 15.7846 9.98797
51.7972 34.8206 23.5666
46.1086 24.6223 12.876
25.5411 17.0649 11.118
79.3661 60.7421 41.8589
42.0141 19.6727 11.6293
43.2124 26.1512 15.7038
23.1418 12.8777 8.3056
40.0494 24.4334 14.1234
12.5413 8.83393 7.32876
14.3753 10.5748 8.97749
40.755 24.3141 13.2347
17.9387 16.0506 13.6221
44.1355 24.2254 14.2842
35.7561 24.9767 16.3922
19.1979 10.2069 6.06144
44.2913 29.0684 18.5017
32.673 21.6822 13.3234
45.4376 33.5897 24.4754
34.3635 25.8149 21.0491
51.8929 29.0927 16.0918
20.6014 19.5854 18.6358
28.9559 15.0023 8.89732
40.1556 26.6816 16.4621
35.8988 20.9671 11.6602
41.7394 36.5561 27.2096
16.5185 13.9354 11.6541
34.9158 31.1449 26.086
45.0218 30.7016 22.1802
32.9426 19.3098 11.6142
27.3928 20.7053 15.6344
28.1975 21.9351 18.9476
40.9777 26.2401 17.7901
37.2525 25.8286 18.9683
39.819 24.5963 15.9546
17.5478 14.8675 13.0585
34.9715 21.0694 12.8731
17.6172 11.5817 7.91275
27.256 21.7605 17.7884
43.5669 28.5389 19.5242
54.9363 43.2052 33.1823
12.9005 8.48288 6.94942
26.6838 20.5109 15.5691
24.5496 19.0859 15.6942
27.9513 21.6246 17.1178
39.7058 31.6973 25.0509
11.6978 9.30361 8.71407
19.5236 16.3476 13.8269
19.5328 16.7077 14.0863
37.7397 35.0271 30.3539
17.5142 13.8223 15.7127
31.5004 18.4582 12.6123
48.3096 38.0795 26.164
15.5716 14.749 13.5863
21.0602 15.8935 11.0707
18.047 18.9877 18.8597
11.5586 9.15088 9.2471
24.1141 22.5427 22.8945
18.3353 11.1724 7.81026
18.4343 16.2739 12.5572
13.0928 13.8969 15.0739
33.1373 23.1177 14.6523
26.1922 20.952 16.0073
24.597 24.9984 24.6939
32.8321 25.5105 20.1302
16.1504 13.8886 12.536
20.8499 16.9771 14.1629
36.3523 36.4136 36.6385
49.179 37.5237 23.7454
30.1586 33.0311 29.9295
14.2421 13.5259 14.6418
22.8924 20.2416 18.9923
24.8778 22.1032 22.3707
36.1547 25.78 16.6948
18.9763 21.2023 25.4272
61.3475 47.8845 32.3291
41.9851 39.5695 31.2821
36.6271 43.253 42.2299
33.0667 33.5057 33.9617
26.9305 20.6023 19.3956
24.5753 18.7378 14.3484
11.5656 9.22873 9.22741
40.0133 37.4881 31.3983
18.7424 22.7963 26.0615
33.5589 21.2014 14.0421
30.9843 26.015 20.5076
12.5042 15.7166 20.5791
37.8353 31.8062 26.5926
22.0395 19.6729 18.2368
27.3928 24.6111 19.9914
12.7586 11.1867 11.0229
16.7715 15.1045 15.4401
35.2559 38.5298 38.6627
20.4477 17.977 18.3133
18.5384 18.2291 19.0864
14.0333 14.4993 16.6298
24.5446 17.9298 13.1039
15.4255 15.6198 13.0431
14.4642 19.7916 22.674
14.7339 9.6309 6.28801
12.5988 15.8119 17.5992
22.9476 23.3572 21.8122
18.7489 16.8465 17.97
22.0522 23.69 26.2174
40.7511 39.4965 33.7659
17.7014 20.4306 21.1776
19.181 19.1915 17.9334
16.1284 18.6941 19.2325
5.41927 7.0382 11.5307
17.5676 17.6896 18.5684
6.75538 5.44538 7.04714
38.3989 47.7627 51.6891
15.0106 13.5304 17.6125
36.9712 39.6543 45.3823
40.6221 32.1188 23.5487
24.1716 31.5613 36.4408
17.0965 15.9244 19.0967
18.3301 22.1824 30.7364
26.2216 19.2907 19.6911
23.4999 17.2212 13.7791
29.8997 31.9317 29.9219
26.5207 28.9386 28.1448
3.63935 7.77917 16.7081
18.3447 13.7301 12.9464
16.3041 16.0389 18.5152
28.9071 29.1982 30.0801
33.5884 33.945 33.65
28.8031 25.8425 22.9099
12.4957 10.255 10.3302
38.1773 43.4369 40.4571
15.0521 17.4613 21.967
19.3209 16.6191 12.1639
7.1073 11.262 13.7819
15.2445 18.2336 23.5856
23.3693 24.4771 22.6391
15.6899 25.2502 35.0486
19.8875 19.9536 28.0242
29.4802 32.6294 35.272
17.0157 11.8547 10.6567
34.9901 36.4893 34.2423
18.679 19.9083 19.7289
20.0341 25.7101 31.5968
40.5105 48.5373 50.589
13.0133 20.6283 27.5626
9.52703 7.67028 11.8614
20.5068 19.6376 19.3517
12.9124 19.6948 28.3922
20.2813 16.276 13.0556
12.1522 20.8507 34.4774
31.828 32.8064 31.3257
5.53095 3.85288 7.22959
22.5573 29.234 40.1055
36.6229 42.4665 49.2253
26.503 22.8033 21.4324
17.6256 19.6664 20.4712
15.2162 20.3952 30.6842
30.0131 25.2583 16.9533
13.2609 18.2466 19.5322
18.816 29.9089 40.3414
12.5156 9.53926 9.30628
11.0598 19.0637 34.248
27.4498 26.6745 23.1593
20.9478 26.7803 30.1763
18.2662 22.1199 22.1487
24.703 43.6303 64.5226
14.4874 9.28966 11.5377
21.2778 26.8025 34.1472
15.0195 11.3035 8.78192
20.2782 28.1223 35.9404
15.1426 20.8189 34.0167
15.3895 12.4879 10.4605
14.5492 17.2762 15.8196
11.3147 17.989 22.8294
9.45227 11.1056 15.2147
24.6632 33.9744 40.5289
13.9151 17.1428 22.6469
16.8642 24.4423 33.5587
16.1682 21.0267 30.2453
19.158 24.6015 32.3841
20.5196 26.6206 32.1303
14.157 17.7956 24.7791
15.4152 16.6071 19.4174
9.50309 11.136 14.9101
14.4471 20.192 24.5323
8.51505 8.25311 10.4655
19.3595 30.4338 44.2562
23.0258 28.9463 36.949
17.3955 22.7252 33.7356
26.3216 34.2294 40.5557
8.02759 10.7093 16.2731
9.4187 17.8871 36.0817
27.0109 29.3658 30.6061
8.50168 9.32472 10.7514
12.5749 17.4325 23.1143
7.79429 9.50803 14.7342
20.1891 32.3417 46.4089
17.6869 19.0488 18.1636
17.1154 26.6384 31.9263
6.98351 16.8338 36.6182
12.6269 10.1287 13.9829
19.6668 24.0319 31.3352
15.3504 18.1451 25.2981
25.3736 32.4367 34.7035
10.0417 15.8754 27.4965
19.9916 22.1345 16.3744
14.9356 31.6558 50.6584
18.2882 22.8398 24.8642
8.05888 14.2179 20.817
17.4616 32.0854 47.9542
14.0443 16.7357 30.5872
28.7429 39.1976 44.3727
10.9857 14.3701 22.0968
26.1842 44.2408 63.251
10.7848 14.3264 23.9973
11.5991 14.1972 23.7479
14.7564 15.5293 16.0439
11.3957 19.7951 35.1346
18.9095 21.652 24.3629
15.7179 24.5536 34.0241
8.96169 13.6351 20.8219
14.6957 22.1193 31.1369
10.4712 16.3374 30.0247
16.3185 23.4306 32.1429
21.3479 33.944 45.8303
10.0031 17.9415 33.8881
15.5987 18.0046 21.1111
11.9821 24.2519 37.927
10.2343 13.4108 22.5757
14.5963 24.4114 40.7038
22.563 27.4961 33.0885
10.7666 17.97 28.097
3.09574 8.36585 24.1736
7.04713 5.50188 11.5537
13.0483 17.1053 22.805
10.3276 18.8911 34.6499
10.6723 9.91654 13.8556
11.8922 18.0094 26.4951
16.6052 26.0199 39.3032
23.41 33.1564 40.0322
12.3616 18.1905 21.8569
16.0998 33.8721 57.1569
22.6087 31.0443 41.8169
8.67706 11.9921 17.8273
16.8343 36.8728 61.368
9.07171 12.8087 29.4728
13.593 19.7118 33.9242
13.6239 13.699 18.5299
16.2093 20.0463 19.9757
5.88806 12.427 19.8034
10.6674 22.4883 43.1062
10.994 17.641 35.5022
20.6303 24.8164 23.6881
14.5709 31.5275 51.1916
9.02394 19.4629 43.8764
18.8315 26.3476 34.6287
10.9878 22.7929 46.0685
16.955 27.6923 46.5715
15.7206 23.1399 37.0336
14.7287 19.7008 29.9569
13.9001 17.0947 18.7736
6.38968 13.3391 23.551
8.88441 15.9376 29.4565
16.3368 29.9412 47.6752
12.3706 22.1216 45.8867
17.2268 16.9283 17.2171
15.7658 28.5645 42.5195
11.9464 20.9919 43.0899
15.8786 18.5163 19.674
6.78613 15.0198 29.6209
7.89103 8.02858 13.1069
14.838 27.0103 38.0721
6.18161 10.6108 17.256
5.75999 14.9704 33.4603
10.4752 18.6808 36.9346
12.4994 20.2489 37.0022
14.1359 18.5354 25.0449
7.29201 12.964 21.3271
4.70994 10.6731 25.8536
17.2618 29.0873 45.3643
14.2262 24.7221 43.0178
11.4105 18.4141 26.0117
9.95029 20.7789 33.738
4.78714 12.6291 35.1105
12.8426 15.0399 19.6901
6.35069 12.5823 25.2089
10.5882 16.9834 26.8464
6.97745 16.6177 37.4173
5.23304 6.88844 20.6186
16.4462 29.6192 49.2901
19.0814 42.114 83.9615
22.7342 29.6672 41.0195
15.2636 29.7789 50.8463
11.9051 24.6121 52.368
19.5803 27.259 35.3103
9.34539 21.4443 40.5515
9.80812 17.1326 33.6952
10.7978 22.1088 45.2747
9.65567 13.9238 27.3353
7.68015 10.0832 19.2097
8.48819 9.17683 14.2326
13.7063 23.8421 33.7189
10.7382 26.9156 57.4011
15.8181 21.9484 28.4765
3.90219 6.89652 15.3152
9.50566 20.0792 34.37
5.30149 11.9962 32.7923
12.0316 18.2042 31.9803
10.4199 15.8554 25.5931
9.94524 15.3277 16.6762
8.2141 22.5999 36.5188
4.69175 9.51763 18.8676
6.82466 20.9418 48.2392
9.4466 12.8716 25.7017
9.41322 14.6807 27.4137
9.56699 14.1196 19.778
6.34804 13.5518 29.5787
8.57455 14.3547 22.0667
6.64051 12.2479 22.6435
5.64172 9.24201 15.2076
7.2587 15.1553 30.7851
6.92966 15.2554 36.5884
10.8675 18.1917 29.7492
6.96326 13.7177 31.7382
9.68994 12.6704 19.8089
9.41811 18.2859 36.0224
16.0719 35.4598 70.0337
10.9737 12.7812 12.0328
6.19235 19.0305 45.7533
10.67 14.0099 24.2617
15.7359 36.5523 57.5433
9.76757 26.1512 60.6401
13.1493 21.8972 43.6307
9.37987 13.7765 17.4905
5.81833 14.5551 31.7656
10.6769 27.3358 51.4688
5.75902 9.85653 25.9143
7.20793 12.2658 23.9228
8.88306 15.1871 22.235
4.78745 12.0485 23.5602
6.40061 21.4904 60.2268
11.6571 13.8023 20.4952
5.16081 9.91433 33.5637
18.4347 32.1077 45.0895
8.38199 21.924 51.0947
13.7848 25.264 42.48
7.17835 15.8664 39.5867
7.73637 13.2846 41.611
19.0367 37.6489 56.0958
6.16976 5.98228 12.4153
10.3287 21.1094 38.14
8.15143 17.7193 33.8047
9.57556 19.4905 39.1713
8.80274 22.3843 51.9987
11.1119 16.2003 27.8242
9.75121 16.7377 22.2677
10.4619 31.8391 69.3
8.95752 16.023 34.8327
6.86771 12.0941 27.1963
6.03096 14.9326 35.7045
12.589 25.749 47.5149
8.55243 16.5577 38.2054
4.67227 4.48459 5.93269
6.10818 16.816 37.9896
6.97925 16.3133 40.2674
9.5426 16.0475 28.0368
8.09379 19.0006 45.7649
8.99511 12.9707 20.4834
5.17085 14.3087 42.1608
12.0489 15.942 14.8486
9.92747 28.1766 51.6701
5.54041 13.9618 34.3543
8.16253 18.1254 38.2348
9.69569 29.5744 65.3666
7.14901 16.9179 54.8068
12.6658 18.0669 39.4282
13.3952 27.8541 44.6121
3.36435 13.6422 51.6924
13.1107 28.285 77.4131
20.9614 31.2145 29.2339
6.36256 27.2301 70.3855
10.1301 16.1996 41.627
11.0241 14.578 17.9636
4.15365 8.2723 19.3214
8.6126 24.9106 56.5667
5.25011 4.79171 20.1397
11.7759 24.398 40.4645
5.34031 14.1528 35.6335
6.57237 13.0652 27.4722
4.99494 7.26768 18.041
6.42841 15.7813 36.8728
6.88012 18.3597 46.9215
6.21493 5.75146 16.0111
8.9304 14.5421 18.7555
5.80195 13.6517 27.5296
6.06711 15.3915 31.4605
8.11495 20.3433 48.0326
7.85755 12.4478 17.555
3.96415 12.745 33.1259
6.42849 11.554 23.2373
5.19697 12.997 29.1777
6.62901 19.3169 54.1055
9.99622 19.9956 43.4569
8.56638 17.1253 37.2477
10.774 25.8084 52.3988
5.21183 6.57929 18.7363
8.23319 18.2049 26.9282
6.76072 20.2618 35.137
6.13957 21.5578 48.5773
4.58116 9.15666 25.3165
6.42818 25.2749 78.0406
9.90693 11.1539 17.9342
3.31107 7.49997 20.5495
4.30273 8.13344 14.4238
4.17128 17.8356 51.9764
8.5734 14.3901 37.5288
10.9822 21.27 28.2154
5.29325 20.137 50.9327
6.6147 13.002 29.0812
3.43656 8.9752 31.9344
7.89821 13.3017 25.5109
7.05475 19.3609 48.0182
9.83677 24.7605 52.4378
6.10262 14.1219 35.7908
6.53497 17.1432 49.5654
8.73444 15.7502 47.7977
12.2041 25.1459 33.7413
2.46003 3.75739 13.9924
6.61078 16.7156 38.6519
8.67893 20.8729 43.3251
5.73772 13.2315 48.8857
16.5992 41.3118 73.2177
8.0973 25.3711 76.2135
6.88986 9.40262 34.0498
9.34665 17.486 27.1043
4.41239 10.9864 21.5531
5.57925 15.8393 36.0557
4.90868 9.42212 20.2178
4.70594 11.1521 18.9293
1.42264 4.31677 22.7208
8.59264 23.1177 47.4488
5.81363 14.2918 30.6364
8.68956 34.764 92.9653
10.867 15.9567 30.2011
4.18699 10.0773 31.3333
5.92143 10.9646 38.3254
10.4917 19.979 30.2755
6.48736 20.4797 37.0583
2.09204 8.20562 29.2763
6.46165 17.9327 55.2141
9.71984 22.6191 39.8744
5.14807 15.4538 46.0994
9.1097 25.0394 62.9911
8.15304 11.7672 18.3142
3.54165 11.663 25.119
3.81834 14.0574 44.4305
5.74016 12.7841 32.5654
5.56242 12.5025 29.6875
4.53813 7.7263 16.8218
5.5662 17.7417 43.6116
3.32028 6.66926 27.1925
4.32173 8.74776 29.2573
6.04015 12.2862 29.2145
4.33467 6.68378 17.2806
5.56686 16.6344 47.9016
10.3572 23.1779 39.2566
5.65257 14.1737 29.2025
4.81983 18.134 61.1472
6.84867 7.21527 8.74443
4.60838 14.861 30.619
3.91064 12.485 29.7896
5.43777 20.9984 53.6386
5.86936 13.478 45.453
8.88049 17.6774 45.2585
8.05525 19.4737 36.046
2.97568 8.79897 27.9986
2.44367 4.94395 30.2403
7.73178 13.7874 21.4678
5.98365 24.1645 64.5374
7.28187 13.4285 22.6164
2.45617 14.5236 51.4461
5.97276 9.58667 23.0276
2.35771 5.86967 22.5604
5.09656 13.9388 37.9978
3.83006 6.41074 19.9164
6.31372 16.2637 35.9554
5.07675 13.6087 25.5945
2.28103 10.5579 42.9862
5.2776 10.8573 40.1304
9.03017 17.8405 33.1237
4.53575 12.132 27.6182
3.98541 12.3989 35.0522
7.11443 24.2589 56.5804
3.30589 2.7989 16.7766
4.14331 8.55145 27.8918
7.3034 17.8944 39.0746
5.45984 20.4295 63.1744
6.67602 9.87104 21.0242
4.90196 14.0354 37.3406
5.93583 15.554 29.5072
2.00247 6.10436 34.9062
7.5032 17.3396 35.8671
5.0813 15.3992 41.7102
5.75793 19.4019 49.3189
4.71407 15.1043 50.0052
5.93668 8.14746 18.8235
4.85625 16.6507 53.5415
7.9571 19.6549 49.232
6.14397 17.0354 43.6838
5.25982 14.5697 37.5288
3.6796 9.47224 43.396
8.55869 20.3086 41.1296
5.51669 11.9468 35.4931
6.01178 16.0244 36.3079
5.96695 22.3114 56.7986
4.57788 10.8058 42.3747
4.95644 6.75692 24.2026
6.93607 19.3888 58.2039
12.0486 27.1861 42.2348
6.6297 28.9394 74.0807
4.36929 11.2509 50.6078
9.5737 22.5699 35.3
3.74299 21.7061 74.2481
6.05997 10.137 38.6621
7.58511 22.6799 79.857
10.9531 24.4493 40.2397
2.61289 7.23846 33.6973
6.1196 16.9914 46.6316
10.7335 37.0759 66.9602
3.57899 17.4249 64.9123
5.0073 7.51726 49.0723
9.4255 24.641 52.1244
5.26927 11.4305 33.2622
6.55835 19.8735 41.8481
4.87358 16.7377 49.7259
6.13008 18.0458 45.1274
7.25182 34.0652 116.685
11.1845 18.4522 31.5824
3.34644 9.08083 36.158
7.57984 22.8802 52.6971
3.55763 7.04451 20.8022
1.46229 5.20519 39.5884
6.11108 11.4997 24.6669
3.90057 9.15269 26.8777
5.70657 15.1736 27.2033
5.03011 19.491 55.9251
8.02112 31.3977 78.3944
4.79071 6.07104 22.9406
3.9025 13.5457 47.4507
6.52439 15.0099 28.2605
4.15886 14.9674 37.3846
3.10663 13.967 60.7801
6.61303 15.0813 41.4204
3.72523 8.10954 38.7995
7.47409 20.5189 61.8526
6.95077 21.2629 68.5854
7.33754 9.48695 15.0544
3.52508 11.8759 32.0619
4.26334 13.5215 31.5661
3.52915 11.2845 33.0949
5.07282 16.5152 42.3004
3.05861 6.79382 29.5352
4.62937 8.34946 20.8589
4.67356 14.3441 25.6335
2.46996 6.43278 22.3969
4.21139 15.0021 38.4727
3.24677 7.01367 29.1149
4.73609 12.791 26.8772
5.60092 29.5604 87.8259
5.85095 12.8389 51.7084
6.40222 12.7029 39.9935
6.94533 22.0189 48.8569
2.35284 3.08378 16.6734
3.91386 17.7486 52.874
5.91453 14.607 32.7904
2.09314 4.65118 22.0754
4.30746 15.2505 29.4332
2.91524 18.8604 89.2518
8.67282 14.7367 16.2403
1.46116 9.28121 36.4554
2.91781 4.39792 18.628
3.48263 9.21388 20.2371
2.30924 10.6458 48.0474
5.48393 8.48693 19.7596
4.19322 11.9512 24.0262
3.12242 14.2882 56.4267
8.28978 23.8279 61.2679
5.90645 15.1504 25.4953
1.86589 11.6605 48.6567
6.0506 18.0667 69.4402
8.06694 21.1777 47.9224
4.08507 7.19396 13.0891
4.03385 25.9409 100.508
8.46237 16.6581 49.5623
4.25013 7.4329 21.2173
3.83321 9.53635 18.4232
1.36571 2.88646 4.91138
0.71204 6.37655 42.0851
6.16748 13.8825 18.9878
2.13362 7.28529 25.8919
5.22839 18.207 35.7875
2.95937 13.222 36.2686
3.17103 15.5402 53.7461
4.24022 11.8731 49.8129
4.51012 10.8588 44.0171
5.31733 12.688 14.799
1.03972 4.93493 21.9575
2.72506 11.7688 51.9816
6.15368 14.3563 41.1506
4.41789 11.7843 20.6801
2.53565 8.26565 23.2509
2.97502 12.5214 29.1224
3.41501 16.7656 59.9886
5.87438 16.8161 41.6302
3.13791 13.3748 53.8711
4.91004 8.21839 19.642
2.60695 10.5909 32.1747
3.07601 9.16497 24.2065
2.71935 10.2646 28.008
2.1306 4.76804 24.6619
2.90413 7.81603 21.4111
1.37238 2.08369 19.3507
4.82126 18.4278 50.4145
4.4049 13.1761 28.4467
1.50017 5.16392 41.5022
5.59546 18.8852 38.515
3.22436 14.2059 41.784
3.1965 11.1427 44.6729
4.12382 9.47756 43.6281
5.48789 9.47653 13.5814
4.81206 27.4603 67.327
3.23455 6.2267 14.4032
1.79987 9.6545 48.6548
5.97278 22.5676 59.5146
3.39435 3.40702 18.7214
3.31244 9.39262 21.6355
2.09433 7.67795 30.5317
4.07224 12.426 30.0092
2.47044 7.39404 24.499
2.72929 11.0764 31.4002
3.51914 20.8867 68.0426
4.19968 5.96891 32.4481
4.05124 10.5995 28.5761
2.74451 9.16137 30.0372
2.61597 7.90945 33.6534
4.66429 15.7008 41.8945
2.75233 6.90876 28.0974
2.97247 11.3629 32.6788
2.54437 5.76963 43.6872
6.74106 20.4249 41.023
3.50397 14.2877 37.202
4.68575 18.7914 44.1229
2.89806 11.2864 30.9189
2.17375 9.12752 51.4429
6.49824 25.3724 85.7844
6.73666 17.3456 34.869
2.20853 7.27369 41.1342
4.89679 12.3727 31.4192
3.06362 12.2387 38.9933
2.50728 4.7629 26.024
4.253 13.7687 29.6477
2.46165 11.5744 33.1075
2.59521 11.6167 53.43
4.84737 10.7994 23.3302
2.35213 10.7052 37.9867
3.20666 6.73009 21.0302
3.29664 17.7362 49.4283
3.22303 7.75731 29.0983
3.22259 11.8926 35.0748
2.08942 3.97491 13.2454
1.9337 14.1452 53.2697
2.84744 3.83356 36.1154
4.4199 10.0382 35.4055
4.08219 12.6313 36.3321
3.3058 10.3811 33.5037
3.36247 13.7612 42.951
3.9358 14.406 62.8626
6.23842 18.8367 42.4836
3.19264 12.8779 63.339
6.04528 16.9272 61.7464
6.92394 22.0839 58.1292
2.98509 7.69634 37.2511
4.0109 14.2153 47.3057
3.3126 6.46217 45.7535
6.09373 15.1753 30.3223
3.05752 12.16 39.1198
3.12826 8.60792 26.2427
3.03707 12.2903 39.6855
3.54809 15.4095 70.6321
6.75934 15.161 23.0145
2.87707 17.5599 31.6204
1.4631 13.5419 70.6001
4.80868 8.15048 19.6986
2.75376 15.8208 61.8685
4.08687 10.2361 31.4304
2.49646 10.9375 53.7118
4.54261 10.726 32.2184
2.29775 6.11229 39.5494
3.88459 6.9567 35.8602
4.62902 13.7867 38.9645
2.9784 6.11114 19.7151
3.38746 16.7523 55.9352
4.3851 8.59267 22.7753
2.39708 11.9462 47.3543
4.33334 15.1427 73.0068
6.37647 12.3169 24.298
2.35181 8.0754 35.1059
3.909 10.9523 19.7456
1.5312 7.03096 31.6798
3.87963 14.9791 52.1984
3.34017 7.36571 30.3332
3.24848 8.69131 33.3475
2.96148 7.91658 25.1358
3.09252 15.1489 47.1087
3.90139 12.9026 41.9532
3.68696 7.00299 17.0048
2.45965 11.1038 28.7447
2.11437 6.80169 13.8656
1.56815 10.4694 27.9087
1.86804 9.92906 63.2723
6.12093 18.0238 38.8294
2.37919 7.66789 35.2087
3.68118 14.4281 36.2474
2.40054 5.73748 15.5229
1.3304 9.81387 53.6658
5.18386 12.0435 42.9907
4.38467 12.2388 29.3046
4.14358 24.0917 72.5664
3.58488 7.90937 27.4746
2.57824 10.5733 27.425
1.25765 3.4365 10.6605
1.35198 14.4696 66.8088
4.49774 12.0853 59.6273
4.69885 8.88153 26.7833
1.83626 4.20043 42.8974
4.86933 12.6398 32.1648
2.79098 10.4234 22.0646
2.17815 11.2439 36.8696
2.05366 5.7186 24.3825
2.18859 8.80287 28.7532
1.59197 5.03917 48.6302
4.98782 14.6427 30.4575
1.59177 6.39299 22.9708
1.69877 7.80765 39.8464
3.15741 6.81334 45.0574
4.05284 8.53179 41.4144
4.9986 18.7896 41.13
2.72418 5.8182 12.7586
1.13769 6.59549 34.7782
3.9808 16.7118 72.0201
6.0573 17.2931 30.6166
2.57734 8.5875 25.3587
3.0513 27.3277 121.434
8.02583 16.3073 38.783
2.75403 8.843 48.0523
5.01379 13.6817 32.3751
2.30498 9.07757 32.376
2.7001 12.8539 26.8133
1.0259 7.84249 57.8876
4.31478 9.0538 43.4743
3.68849 9.94899 32.9519
3.46092 13.6158 38.864
2.77912 6.26771 20.9917
2.60307 12.7903 49.6439
3.72378 16.2323 55.8565
3.82109 7.61844 12.8269
1.28117 10.7506 72.6356
5.7317 17.9699 57.3934
5.16037 21.2423 50.8329
3.1839 12.5708 60.6202
4.10334 11.6414 31.9907
1.78227 7.0306 79.2341
6.93756 16.5446 24.2806
2.7143 20.0548 79.4429
5.92173 14.9383 37.9725
3.66877 23.1069 62.8751
3.34516 9.19434 35.8137
3.04776 15.0442 38.0413
2.0173 6.85719 28.3612
2.24453 13.7887 83.3365
6.14526 8.87527 9.81471
1.00278 8.84491 64.3861
5.69737 21.1905 54.1222
3.42223 8.64941 30.4062
2.63351 5.70539 15.1587
1.32641 4.92125 30.8194
3.16781 14.5218 46.7014
3.37836 9.98471 38.2634
3.46255 15.9491 46.6294
3.55979 16.096 66.4977
4.97662 14.1011 47.5372
2.8593 5.42642 21.1916
2.69525 8.56953 11.3472
1.05494 11.1881 39.725
1.967 4.24348 38.3983
3.94804 15.9621 64.3075
4.77529 15.4147 29.1026
2.10793 11.0684 49.8391
3.1452 7.73467 34.2399
3.36799 12.1122 40.5435
3.32199 16.4521 48.4097
2.38202 4.46985 12.4637
0.625715 2.70012 34.5139
2.83101 6.78724 19.5529
1.83212 8.39212 28.6694
2.78506 9.89393 37.5078
2.82076 11.89 31.9581
2.35218 10.1345 49.5785
4.21149 14.4064 31.2212
2.20527 10.352 32.8044
2.07702 9.30905 50.4128
4.59575 16.622 33.4564
1.27953 5.69078 28.9333
2.03331 12.1093 48.7664
2.96583 7.4321 48.7095
2.95383 2.61343 33.4166
3.78351 15.7777 33.1907
1.67319 4.63788 26.4378
2.08937 5.55287 9.26683
0.66777 5.65825 50.8229
4.0223 15.5471 26.0135
1.73778 7.93442 25.0888
1.78236 8.14943 46.1393
3.08771 8.95106 16.5954
0.974789 3.73285 24.4548
2.40184 15.1653 51.4907
2.82534 6.37778 28.4491
1.90418 3.9015 27.6776
2.49534 12.7081 35.9294
2.69666 12.0328 59.5718
3.84731 5.62749 29.752
2.50847 11.4355 49.8018
4.03687 15.8471 66.7271
5.2305 20.717 53.1285
3.21411 10.922 46.4764
3.39146 12.0372 27.6265
1.5888 7.58286 31.6446
1.92405 6.93671 34.7882
3.05793 6.98289 30.9982
2.67735 15.4132 69.103
4.96794 19.2699 48.0404
2.43358 9.23895 65.8346
4.79318 16.0966 61.7105
4.13847 10.3535 32.0442
2.74766 7.51905 34.8975
2.53795 10.5828 31.3561
2.5432 10.1746 44.9831
2.92873 8.93853 33.9729
2.68877 12.7821 35.0965
2.63727 7.93503 20.3693
1.50691 5.77649 23.8318
2.13029 9.72999 35.0533
2.17478 8.867 43.5048
2.68958 5.53995 23.3561
1.58977 6.40001 20.1105
1.64651 7.27382 17.5483
1.30292 4.58783 24.9377
1.73618 11.5916 62.5141
4.54845 9.62412 8.95786
0.554344 6.84867 31.2652
1.68862 4.20233 52.0872
3.98463 13.2731 21.8273
1.90572 8.05269 19.6197
1.56464 12.0906 36.2136
1.89893 9.73281 61.6047
4.44373 8.22939 41.4539
3.77564 14.5428 50.0234
3.55376 6.316 11.7508
1.14564 5.85358 23.0363
1.82759 8.64639 22.5221
1.5158 6.61923 21.1941
1.55851 8.96656 26.5524
1.60947 6.23264 35.5501
1.96647 2.88486 38.5768
3.56677 12.2845 29.9636
1.80009 5.75027 29.4581
2.51976 17.0963 64.8321
3.44185 6.75342 30.8106
2.43956 10.3723 48.8878
3.28351 16.2055 51.4258
3.03782 8.04552 32.6187
2.15155 8.35507 38.3166
2.49863 6.94913 24.5433
1.55778 6.60351 33.9392
1.89929 6.36299 25.3955
1.6886 5.55009 5.93143
0.455141 6.85816 44.6406
2.70745 7.49729 24.8804
1.92939 4.95037 14.0397
1.07571 4.57519 17.5907
1.33461 5.5129 20.4297
1.49535 9.19022 18.6401
0.863993 4.26445 24.8644
1.90006 6.82597 26.0474
1.98986 7.51065 22.1727
1.48194 18.8875 80.3417
5.03479 9.42427 32.7172
2.41182 7.97071 35.6974
2.63301 8.98418 25.4664
1.60166 8.58179 42.0415
2.4868 6.91631 18.5108
1.28107 11.9888 38.0661
2.51506 9.60756 46.0612
3.19252 8.51755 20.5072
1.59344 8.86266 25.7398
1.7521 9.44959 14.8137
0.892563 4.69697 16.1646
0.909472 6.65324 50.1023
3.69569 14.9895 51.223
3.3457 11.1009 29.7569
1.88722 5.76478 52.905
4.23694 14.4588 28.9997
1.78838 6.09613 48.1033
3.32162 12.0157 20.429
1.25311 6.36813 46.4423
3.07812 4.93476 19.6396
1.94278 15.3685 53.0222
3.15396 3.3232 24.1452
2.12567 14.7667 39.0788
2.29179 10.6016 40.0475
2.45939 10.124 51.9075
3.17591 7.78179 43.2283
3.28504 11.5694 52.6503
3.54023 9.73182 63.5552
4.6072 8.9605 12.9077
1.19101 7.4533 30.6581
2.49203 10.735 31.7366
2.24032 11.2809 43.48
2.57614 9.12431 45.1986
3.17611 17.3948 45.5722
2.5688 11.8726 45.2628
2.77803 4.91076 31.7855
2.3333 9.88729 32.5899
2.30947 8.0979 19.1756
1.46711 11.3464 36.9048
1.90248 6.55606 51.9518
3.26269 7.08334 26.3061
1.78044 6.38385 48.9724
3.8819 6.93972 22.7706
1.82897 9.95473 27.0212
1.8201 8.2436 43.373
3.22421 13.7822 28.2762
1.51306 6.02437 22.9656
1.39862 5.16649 46.9706
3.21924 7.04953 30.6106
2.26168 11.3159 50.6582
2.95595 10.6024 23.3523
1.41935 4.98492 40.5996
2.99631 11.6385 29.474
1.77902 8.27236 29.5217
1.82507 9.96575 36.846
2.40633 7.47467 39.996
2.71739 8.49201 35.8566
2.38022 9.37771 27.2
1.69691 4.64345 35.3987
2.80571 16.8247 48.7765
2.90834 3.42657 43.7364
3.50749 13.8325 24.7218
1.39769 11.4719 41.4661
2.41882 8.18464 38.7956
2.35465 6.00775 23.3594
1.65012 5.43862 9.63107
0.742184 3.72735 19.2727
1.61957 5.69716 20.0363
1.53308 9.85374 31.7176
1.86386 7.47396 26.7336
1.63852 9.74956 48.5813
3.08623 8.40866 20.2479
1.29176 5.11774 35.9735
2.46136 13.5039 54.6036
3.67366 6.71891 13.0313
0.822218 6.3137 33.4364
2.44761 10.5172 35.3605
1.92342 7.16889 31.1202
1.95731 9.35205 21.0438
1.28781 9.23546 21.6309
1.47981 9.27408 51.3833
3.44201 7.28995 11.1711
0.710824 11.1951 55.9016
3.34633 6.36797 22.2818
1.30871 13.0165 50.4401
3.17013 6.21256 29.3613
2.19168 11.7148 31.1141
2.02777 4.44258 22.3512
1.39664 2.72523 24.2798
1.51174 8.05768 33.6746
2.19853 5.79196 32.4647
2.29764 3.82894 13.3401
1.09246 2.93463 25.4875
1.79759 6.39203 15.8757
1.29245 7.45396 48.7091
3.26635 10.0188 23.4632
1.66486 4.69552 40.5097
2.75225 5.68248 30.4252
1.9587 7.09145 42.557
2.89346 14.977 48.9764
3.41216 10.5743 43.7841
2.99279 6.37503 15.3916
0.942968 5.76658 32.5868
2.16681 7.49468 48.8762
3.76559 15.7666 42.1193
2.74417 7.47698 60.5387
3.971 8.06544 33.8118
2.41136 11.9187 30.3428
1.91941 9.72917 21.8524
1.12666 6.57655 20.0091
1.37812 10.2948 30.8193
1.79257 2.72266 14.6006
1.26682 8.41757 33.1525
2.27118 14.6503 43.9655
2.45294 4.23567 25.9557
1.79044 11.4865 33.0346
1.85283 10.8877 48.3333
3.10142 7.78405 30.9608
1.86093 4.61352 23.3365
1.78829 9.80865 56.6724
3.59695 12.8871 14.4549
1.04311 6.99669 38.5482
2.43079 5.73755 9.94113
0.689576 7.41611 47.5989
2.70449 8.05579 49.2258
3.35741 15.3406 39.2322
2.54034 5.98772 27.8401
1.73467 9.93013 15.4675
0.999909 4.83333 25.8509
1.50007 7.13482 29.1909
1.61885 10.1939 47.0896
3.13802 5.87611 13.977
0.749492 5.53325 37.3063
2.12332 6.88636 32.4832
1.96965 9.07247 24.4457
1.34207 13.2142 75.3896
5.27795 9.17662 25.094
1.82439 7.41495 32.0423
2.2161 14.2291 44.4263
2.54669 6.18752 19.9846
1.21211 7.27845 69.0378
4.54539 17.466 24.6918
1.60852 5.81654 28.4032
1.71434 4.37132 28.1102
1.77467 9.48581 41.1049
2.46595 6.77876 24.3388
1.67757 11.2512 14.4192
0.871074 11.2296 81.0486
5.28335 11.436 42.5719
2.78915 6.27389 27.8074
1.86818 9.83001 32.6925
1.80205 4.80428 35.4517
2.24057 13.6969 37.3606
2.2133 10.7641 32.2494
2.2041 7.65964 34.3702
2.10041 8.92286 30.1087
1.72703 7.44481 47.6031
2.8557 9.39404 31.3233
1.96369 9.20122 50.2663
3.1991 5.09487 36.8108
2.52893 13.318 42.733
2.95447 10.2563 31.8666
1.91198 13.924 36.1092
2.34344 7.2179 22.6165
1.31046 5.9394 17.3722
1.00525 3.09454 16.9984
0.93478 5.85702 44.6272
2.63555 6.04843 18.0861
1.14716 11.1371 43.6946
2.71046 11.6375 42.8788
2.61166 7.71536 38.4309
2.03325 0 0