# pn-170911/RbIIR-56-WTZR-1280-1959.psd
# Power spectrum* (dif=0,1,2) (really just |FT|^2)
# NOTE: only the first half! (symmetric)
# weeks: 1280-1959
# 13 clock-days, 6 excluded
# PSD: 1441
1702.02 0.08347 0.0382655
28569.1 0.109916 0.156926
381686 8.46824 0.115807
15018.8 0.445727 0.239191
149222 11.0941 0.10256
5125.34 0.412199 0.266144
12639.3 2.10331 0.127663
2398.28 0.342386 0.131825
4907.68 1.44193 0.202192
1133.07 0.494303 0.121004
673.27 0.306675 0.189018
947.319 0.346205 0.22186
1005.74 0.738768 0.122433
377.275 0.352749 0.170367
751.713 0.647244 0.0890695
945.701 0.911912 0.150704
854.459 0.906 0.128109
425.007 0.601372 0.149625
591.628 0.847815 0.160395
313.265 0.301588 0.155865
350.402 0.762872 0.0869382
874.636 1.33474 0.187282
458.933 0.888992 0.108354
403.845 0.745506 0.0873934
431.277 1.18741 0.264081
301.997 0.767548 0.142336
246.121 0.713983 0.289352
384.813 1.06746 0.145118
272.151 1.0077 0.255335
258.701 1.0215 0.133543
390.47 1.9152 0.201209
145.273 0.701786 0.227978
235.041 0.915678 0.306296
167.621 0.727614 0.124246
218.523 1.14681 0.237848
197.821 1.01715 0.16249
188.025 1.40792 0.120405
142.2 1.03043 0.256596
172.863 1.29595 0.155913
221.859 1.69579 0.187143
218.49 1.44193 0.152394
175.303 1.08824 0.133321
137.157 1.25997 0.177613
216.296 2.12412 0.133005
181.928 1.92921 0.220948
276.664 2.19409 0.174278
262.612 2.67543 0.234389
235.187 2.37984 0.204488
153.179 1.80501 0.314485
148.318 2.1581 0.153244
299.717 3.45347 0.217168
187.52 2.12583 0.171155
128.77 1.70744 0.23943
154.385 1.94254 0.251236
284.601 3.67879 0.237643
297.142 4.69926 0.290718
184.538 2.66095 0.084957
282.345 3.83329 0.236518
278.784 3.97771 0.286107
142.941 2.62572 0.178713
111.223 1.75849 0.165632
197.155 3.62421 0.289806
199.415 3.78774 0.227603
127.511 2.37445 0.256143
185.926 3.36834 0.295198
261.097 5.1605 0.262181
166.363 3.41685 0.263545
157.535 3.34612 0.265083
124.062 3.17922 0.307178
131.746 2.97746 0.275114
172.225 3.68808 0.356358
156.816 3.89654 0.239517
141.086 3.04872 0.1531
177.939 4.28652 0.300223
72.4149 1.80388 0.148652
196.248 5.09881 0.414261
142.153 3.45071 0.248957
123.574 3.36344 0.170185
87.0226 2.27865 0.167815
162.094 4.81474 0.265541
129.909 4.0012 0.190194
165.08 4.90377 0.507338
147.772 4.33119 0.288846
150.004 4.90969 0.299662
128.985 4.27549 0.517123
93.7621 2.82336 0.208987
130.662 4.11646 0.616969
188.826 5.60784 0.50371
124.502 4.17703 0.292283
190.003 7.39375 0.517499
130.754 4.71403 0.472288
128.183 4.93245 0.391698
100.941 3.98821 0.380045
174.074 6.6677 0.474759
147.469 5.99063 0.531626
155.513 7.1433 0.581823
196.022 8.79329 0.711109
111.606 4.93149 0.563541
179.916 8.2736 0.6317
115.912 4.99033 0.352649
136.181 6.46167 0.432523
155.837 6.82766 0.67654
75.0959 3.76104 0.473501
106.173 5.94441 0.564974
111.153 5.05428 0.510646
143.391 7.67929 0.5811
174.037 9.45229 0.783555
92.2473 4.45855 0.393376
68.0304 3.3709 0.397023
194.777 10.1797 0.799362
127.371 7.02287 0.826453
107.77 5.86709 0.418501
148.006 9.16983 0.703058
109.114 5.99037 0.51926
153.791 8.96435 0.645806
113.228 7.29778 0.559225
149.574 7.87018 0.612831
138.591 9.46641 0.939011
196.666 13.0688 1.22315
127.547 8.37304 0.823303
104.563 7.013 0.881242
86.7956 5.71217 0.690962
55.4898 3.57106 0.499
92.6089 6.42202 0.780321
165.867 12.027 0.892448
128.825 9.19104 0.915371
185.7 13.9221 1.2882
109.087 9.22578 0.861804
187.488 13.7271 1.41907
111.917 8.919 1.04889
144.234 11.6454 0.86661
129.893 11.0222 0.97729
121.623 10.7093 0.871693
100.676 9.16802 0.783612
70.7936 6.94577 0.559091
121.333 10.0718 1.03777
127.166 12.487 0.772531
122.766 10.615 0.997739
124.547 12.408 1.34681
108.856 9.03421 0.90313
113.279 9.56715 0.811804
162.131 17.72 2.01505
96.1073 8.75589 0.796844
104.616 10.1427 1.12661
125.163 12.8655 1.31874
139.042 14.4863 1.53832
114.262 10.6846 1.38345
133.469 14.2748 1.43355
113.842 12.3697 1.24027
170.032 18.1343 1.7722
124.922 13.3172 1.40367
116.427 12.3068 1.16252
98.1504 11.2037 1.52072
127.571 13.3817 1.91413
118.355 12.2799 1.48679
92.0961 9.41637 1.28616
134.116 16.9468 2.00499
101.151 11.979 1.54677
151.278 17.5044 2.18545
76.8336 8.34542 1.21591
100.255 11.8997 1.57681
89.2272 10.3213 1.78982
113.518 14.61 2.01554
117.964 15.4055 1.67233
67.9752 8.28718 1.1276
93.5783 12.4671 2.09408
71.0183 9.07965 1.38954
92.7794 12.7132 2.41386
112.635 15.3771 2.65629
92.281 11.513 1.59165
101.454 12.5824 1.66551
115.214 15.8442 2.32997
96.5286 13.0548 2.03017
125.371 18.1374 2.47391
67.8461 8.86178 0.858729
104.923 15.1307 2.30608
90.449 12.0124 2.17093
99.7563 13.1669 1.94771
127.711 17.2362 2.93684
124.652 19.0406 2.89144
83.5828 13.1997 2.4482
107.812 15.4707 2.21826
95.7962 13.7962 2.40449
86.6745 13.7237 1.95765
99.7868 16.9477 2.79927
98.2054 17.1194 2.2846
91.2471 15.3937 2.42248
51.6 7.44806 0.975604
88.6866 14.1957 2.38828
64.6039 11.5232 1.74994
99.9396 16.8216 3.15148
44.1422 6.71566 1.20072
69.1847 11.6869 1.93912
77.8319 13.0246 2.11315
79.5608 13.0437 2.36823
92.5045 15.6877 2.74166
60.394 10.1685 2.278
101.461 18.5426 3.62055
81.5375 14.8677 3.08009
72.5145 14.1231 2.54816
91.7127 16.1015 2.94605
91.2581 15.5653 2.97143
116.527 21.7401 3.83977
34.4875 8.00733 1.8067
69.0169 13.4585 2.1262
45.9649 9.27392 2.05479
67.8464 14.208 2.90634
94.5504 18.7377 4.01944
86.8146 18.4555 4.71978
110.331 23.9192 4.88792
93.5645 19.7506 3.72997
77.5007 14.9663 3.27467
64.5092 13.5049 2.75098
72.2972 13.982 3.21032
88.3954 19.9483 5.61537
106.557 20.7725 3.74994
43.5052 11.0878 2.37298
97.8881 20.1695 4.1788
100.803 22.3293 4.82591
72.449 16.6542 3.81161
68.9785 14.284 3.23496
97.7972 20.0839 4.56388
102.171 23.2028 5.64664
95.3924 22.3286 5.39143
83.1432 19.1054 4.44759
72.5047 17.7433 4.39994
109.08 26.8915 6.27821
73.816 18.4771 4.77532
61.2106 14.8121 4.05273
95.5208 21.5429 4.84225
51.9987 13.742 4.15462
111.888 28.946 7.3293
105.106 25.2474 6.82331
90.4097 23.301 6.21533
150.862 36.9869 9.19947
158.203 41.1207 10.612
89.5012 21.1782 5.19896
132.589 36.3129 9.80432
64.5604 18.5347 4.84259
117.999 35.4741 9.25313
129.061 36.3701 9.08842
77.5976 21.9723 5.4024
86.2109 21.7876 5.85187
71.4015 15.375 4.0489
72.1329 18.1776 4.5346
57.9465 16.4196 4.5442
60.6679 17.1063 5.30382
74.4828 21.9051 6.75282
61.3475 17.1358 5.53591
50.7818 13.6239 4.05695
52.9184 16.039 5.03106
37.8125 9.21727 2.52782
75.2553 24.5862 7.94851
70.6547 20.2691 5.82823
68.583 20.404 6.73199
66.1562 16.7885 4.92766
53.1953 16.9712 5.49193
44.7837 13.2226 3.91728
85.6672 25.8136 8.37702
142.536 42.2673 12.6798
161.436 50.21 16.6404
91.3907 27.8699 8.77094
120.237 42.1699 14.6926
115.46 34.1541 8.63353
130.537 49.7677 16.0697
113.116 31.3637 8.55733
127.136 41.9579 13.6872
52.6371 16.0881 5.53004
46.4208 17.1175 6.18234
79.9572 24.6529 7.50776
89.7515 29.5935 10.3645
45.9395 15.9427 5.609
61.0726 18.9269 6.0749
57.4712 18.1385 6.21287
67.5544 24.9921 8.60904
33.7588 13.0433 4.77666
90.3324 26.7172 8.74541
90.8482 33.481 11.9517
53.0326 19.6124 7.78887
108.351 36.0215 10.8045
71.9655 29.062 11.7268
63.5072 22.4999 7.92031
77.6544 32.6498 13.4729
57.4974 17.3413 6.10384
57.9385 21.4028 8.03131
70.769 26.2121 11.0544
59.8227 21.7093 7.72323
63.6447 25.1694 9.86191
60.8127 21.4048 7.80017
46.1492 18.2576 6.92158
63.4801 24.0366 10.2889
109.043 42.1008 14.9928
46.4229 17.7685 7.09074
46.8239 17.317 7.30433
51.8842 21.4101 9.2948
58.2672 25.2424 10.4982
54.6136 22.6749 9.18482
68.7961 26.8382 12.3434
56.3858 26.2855 12.2356
80.6483 36.4067 14.2314
61.9735 22.2298 7.7371
85.5979 43.8296 19.0319
47.8115 20.5058 9.23332
106.347 42.7244 16.5667
62.8309 31.2179 13.2319
101.51 41.4484 16.6794
98.524 43.5874 19.6496
66.0934 26.6237 11.2337
41.5279 19.2323 9.92602
70.3072 28.3379 12.2879
70.0929 31.3556 12.1464
76.3501 34.9064 16.8108
54.9261 24.9227 10.9659
30.9568 17.1886 9.04718
65.9542 28.7731 13.0193
68.5402 27.9503 12.0904
108.032 47.9862 19.466
65.8661 28.5942 13.8498
97.6037 41.887 17.9887
51.0277 24.5759 11.3794
43.6145 21.0743 10.477
69.0609 34.0837 16.5451
49.9645 21.6604 8.84284
50.3702 23.1935 10.173
45.966 23.3033 12.2926
44.9044 24.1399 13.2106
100.022 43.3299 17.8789
53.4854 23.4088 11.4039
64.395 31.456 14.2347
48.1487 22.6152 10.9347
58.1639 24.4707 11.5574
66.0649 36.8528 18.54
67.9032 31.5919 15.6944
28.7 15.5715 9.33045
50.6863 21.6632 10.0644
47.7264 28.2751 15.3494
67.7372 34.8617 17.6233
75.2544 38.0482 20.5693
84.6908 38.7665 18.9444
42.5374 23.5522 13.1891
52.871 27.7881 14.462
67.1821 34.4007 16.7803
57.2593 31.361 17.2605
60.8516 31.6726 16.5274
60.9057 36.6239 20.8801
55.1142 30.6754 18.3663
54.7111 27.9071 15.1151
90.5882 53.7687 28.8297
52.7775 24.987 13.7929
51.2456 25.1011 13.7029
74.9755 42.9933 23.845
72.1453 34.782 19.1762
50.3972 25.3269 12.5274
64.9585 40.7431 25.4788
58.7436 29.6223 16.5946
69.9875 37.864 19.5122
47.0916 28.7865 17.389
70.1547 39.8612 23.1465
50.5576 31.9426 18.8037
61.0054 34.1466 19.8518
49.1202 32.018 19.3086
71.2388 41.444 24.3041
61.2901 35.2481 21.3171
67.0754 45.6855 30.4665
50.5761 24.0375 13.9286
36.5313 21.6798 13.9611
46.6338 26.6914 17.2872
35.8767 20.0888 13.1909
60.8431 31.3525 16.5024
46.5528 26.0437 13.9639
31.2659 21.803 14.5362
62.6478 41.2013 26.9172
76.3461 40.1932 21.9991
48.6538 29.7101 19.5004
54.5672 36.4522 22.3324
39.0905 23.4062 13.5129
28.3205 16.3322 10.5425
36.3877 25.5195 19.466
54.9381 33.5211 19.9549
37.6933 20.6288 12.3927
41.7225 31.0258 21.2186
45.7785 28.8125 17.7419
35.1886 20.6065 12.5354
51.0029 34.5832 22.7383
39.0994 22.9949 14.002
30.4788 20.2656 13.318
48.14 30.3777 19.0887
45.9208 32.5007 22.7349
57.8246 34.9941 21.2192
34.9033 25.0821 19.8183
54.577 33.0135 20.7247
56.7193 37.7084 25.4674
36.029 30.0486 22.8045
46.1752 31.9213 22.6417
73.0829 50.9214 31.8943
19.6879 14.9547 11.4478
54.6109 40.3417 26.7079
42.6202 27.6206 18.4634
43.6195 32.7813 24.1546
33.1027 26.7148 21.8225
54.9727 36.1196 24.0864
41.0105 30.8823 25.3626
58.3758 38.0961 25.9373
33.0476 20.3596 14.4664
42.6606 32.4666 23.1689
40.1851 32.67 25.0636
38.4463 26.6033 18.5533
19.0132 11.8235 8.87366
59.1557 44.4808 31.1466
47.9272 39.524 30.9964
49.2603 37.5471 26.612
21.8809 15.2787 14.5377
55.8234 44.0774 33.5502
60.0774 51.3973 38.7603
28.0466 20.5913 16.6529
58.7884 43.0601 30.7253
43.8326 33.4068 24.9167
62.5515 53.1556 41.4717
47.0755 44.4238 42.4148
62.3249 41.0197 27.9475
35.625 26.8729 23.8286
54.2281 39.2375 27.9284
28.8594 24.7371 22.3361
42.5168 36.2795 33.0385
39.6137 26.9167 20.7962
42.4871 34.7657 31.091
49.8844 32.1392 21.7071
44.2077 36.5127 30.1098
31.6355 20.8743 16.3473
43.1934 38.6231 33.3938
30.6021 21.7795 18.2658
44.0173 35.4718 27.5376
35.0491 32.4204 30.1849
38.0378 27.6935 20.4567
26.4895 23.1386 20.7506
32.7686 26.9441 23.6979
33.5478 26.0819 18.7907
23.7156 18.4521 17.0801
41.3969 39.2817 33.5423
40.4217 31.1605 27.0433
53.0704 42.9951 34.0852
29.0622 24.5997 23.2412
49.7669 40.6829 33.6683
38.1952 31.0152 26.5831
53.4946 45.2702 33.9113
35.6447 32.0107 29.2219
46.3156 42.4046 36.7523
33.3688 30.4399 26.1869
40.0343 30.6852 26.6466
42.3238 36.9692 31.9535
33.8624 31.3101 26.8364
29.4968 25.492 22.4368
26.6967 26.2913 26.9938
48.1778 38.09 30.2622
40.768 36.1773 30.9688
43.0187 33.7331 26.5007
35.4836 34.5441 32.1975
53.2638 51.0279 46.8612
32.582 31.2135 32.9268
42.9447 36.0468 31.6523
38.7399 39.9327 38.1222
40.3304 37.2533 35.9892
39.438 38.5099 38.9787
48.4475 38.6738 31.2355
26.8034 23.0742 22.8017
26.3854 24.3674 23.5881
45.4401 39.0273 31.7682
51.1658 53.0049 52.6589
45.8914 49.4851 51.3084
46.3087 41.4617 36.1446
31.0159 23.5672 24.6779
33.1719 32.7025 31.702
41.6444 34.7764 28.0339
33.3927 32.1668 27.6062
32.4174 27.6133 25.5022
31.4317 36.0397 36.2708
36.8294 32.7374 32.9898
41.312 46.1406 50.3296
44.0863 39.8483 34.5939
25.4768 26.5108 27.699
44.8478 45.3201 48.2459
31.7522 28.9171 28.4202
48.9968 55.0221 59.0972
50.4638 44.8184 36.5095
22.7114 27.6353 34.4611
67.8211 67.7863 67.7372
36.2392 36.1476 39.0906
36.3798 36.9824 40.2184
21.8961 18.0233 19.022
41.6967 43.0165 38.9996
33.1963 38.8736 39.7202
37.6365 48.9902 58.3471
42.0961 33.565 26.6459
28.2805 32.3591 35.0921
28.5803 31.6613 36.9235
37.7972 38.1882 42.9372
35.7346 35.1055 32.7282
28.8479 29.392 26.4339
38.8403 42.9026 45.7267
33.676 37.7908 44.2888
26.9713 20.441 21.7216
38.733 36.1846 35.6187
25.4927 25.4971 25.1056
22.2913 25.0946 30.7116
29.9877 36.5694 43.2132
36.3664 39.5909 49.5552
35.5384 32.1442 26.9645
32.4114 43.848 53.3834
40.7449 48.1906 53.667
39.8697 41.9216 50.1875
38.4873 31.7537 29.4344
44.2905 51.1656 55.2337
24.036 29.6596 37.0541
30.3058 31.7082 38.4854
54.2221 54.6644 50.9294
28.39 39.1293 49.1291
24.9802 25.6523 35.4505
58.0325 67.736 70.5969
21.6258 20.199 25.9918
31.2306 37.2083 41.2974
19.8431 22.7878 28.9553
37.5805 52.9518 71.541
44.7411 48.5618 50.4564
34.1087 39.5984 47.5426
37.885 35.061 30.7136
19.6131 32.0935 44.0979
27.0829 28.9872 34.4548
26.1267 30.3932 38.6167
46.582 55.6498 59.694
23.4504 24.5304 28.1637
27.7915 31.7627 30.0129
13.5186 21.6174 32.926
31.298 33.2035 33.896
22.189 29.9699 37.7926
26.7283 28.919 33.1955
32.5474 46.6285 61.6482
63.7513 76.4269 82.3023
32.0287 39.8956 54.7497
36.308 33.1192 35.1362
22.0115 31.086 40.3771
26.5031 36.2575 45.0389
29.2507 31.844 36.9231
32.1086 47.0215 61.4823
29.4259 28.9488 30.5317
36.4617 45.3412 49.2318
16.0827 25.9218 33.9412
24.9788 32.0893 39.8328
35.4776 53.4069 80.7636
38.9086 37.4469 43.8451
30.2008 37.4181 47.3643
31.1542 38.3293 46.8588
22.7301 33.2724 46.4603
41.2535 46.4759 44.4013
30.443 45.0493 60.9016
18.5561 24.4255 37.3193
29.4766 31.9592 36.9359
28.0398 48.2427 65.8349
23.1077 31.3233 44.2458
29.8554 35.1296 46.2968
26.802 36.6382 52.929
33.9286 38.4274 49.0875
37.7689 49.4935 54.9141
31.5002 49.4142 65.1692
26.0804 33.6975 59.3792
43.7565 53.4888 65.3895
42.8509 62.8825 83.309
20.9613 20.4834 27.5171
23.264 36.4173 57.552
33.4512 37.1322 42.809
26.6293 41.2888 65.5916
32.0563 38.1289 45.6592
19.3763 28.662 49.1794
35.8243 45.4484 52.3737
22.5808 42.0533 68.7133
30.7643 35.2311 39.1009
24.9093 41.1802 65.7671
34.2711 43.1756 60.7455
31.2453 44.989 67.4594
40.1118 46.4165 53.8437
31.9984 47.5646 68.6158
43.5087 60.4057 80.3733
23.5941 32.6794 54.5917
34.6996 48.4529 76.9158
47.2108 58.1873 63.2149
26.6451 42.6312 63.6425
26.5809 40.8346 52.3615
16.8501 26.5115 49.3616
29.3965 35.9122 45.0164
21.9217 28.7229 38.2414
22.1522 23.8466 24.5442
19.0155 44.7018 71.6962
22.231 35.3847 51.6867
22.4404 28.2554 47.1797
30.6192 45.0726 59.8577
21.9645 26.6366 38.9972
17.4581 23.1634 27.2781
19.3804 34.3656 57.0121
26.964 36.5642 63.517
27.4804 33.8233 48.9842
27.952 40.0429 56.5704
24.4335 28.3008 37.0887
18.8866 30.288 47.881
22.2854 31.7673 48.0182
23.8189 34.4007 48.0341
18.8831 28.0754 40.4929
21.8034 32.7461 48.9639
23.0798 23.2875 28.4409
22.769 48.7349 82.6157
21.8997 28.3591 48.9047
26.2142 35.409 46.203
29.132 41.6687 57.3457
23.5661 39.6158 56.5308
22.0884 34.5837 50.7818
18.5845 24.0786 43.6623
23.0034 31.4488 36.9616
16.9694 30.8618 51.543
24.0377 38.2508 55.2818
20.2966 37.9498 70.1526
18.8674 27.3648 48.124
31.6627 41.0059 53.4313
16.167 25.0034 34.4285
12.9507 21.6781 39.9086
19.8167 40.7935 68.6408
25.7732 40.8269 65.2585
21.1835 31.7067 50.5803
13.9414 19.0696 31.2894
20.717 36.4317 56.0518
20.0692 25.7081 32.3916
15.1756 38.7217 75.8115
21.7705 30.1509 52.4684
30.4391 47.9354 68.611
27.1847 46.9454 78.2361
20.8489 28.3031 48.0409
24.5363 40.0627 59.8599
14.308 23.6132 41.476
19.5322 27.1645 50.0656
25.0324 39.0032 59.3593
20.2069 31.8857 48.665
21.4528 37.289 56.1523
18.0852 32.6818 56.3969
13.9257 22.8683 42.0821
20.9029 30.8785 47.5692
18.3291 28.5126 47.7418
15.826 25.6252 46.1166
20.763 38.1235 66.2953
19.8137 32.7912 68.2408
24.7448 33.8825 60.5993
32.4604 55.3866 81.3769
25.4503 42.8185 76.5719
28.9532 50.519 93.0333
36.8688 44.7201 57.1535
14.192 22.7851 45.4472
32.8091 58.148 84.4408
19.3788 35.9377 65.9512
18.0572 20.9548 27.9877
14.2346 25.6447 49.28
16.6032 24.0242 37.9296
10.9673 20.5084 39.9875
17.3597 31.4396 71.5349
36.5487 55.5316 79.7881
20.3978 31.4744 60.7685
24.7725 38.9965 53.3066
8.60812 24.3976 71.3518
20.4158 21.7915 24.6824
15.7676 33.3723 64.6512
22.1234 39.9515 69.8079
22.7263 35.0984 61.1736
19.3513 38.4863 78.2892
24.7772 28.6037 37.0548
19.3949 42.3518 74.1884
18.4418 26.3262 40.7423
15.7538 37.3618 75.9971
16.0599 26.4798 58.9198
25.4431 35.4868 51.6405
19.9829 31.1383 55.7642
22.3657 40.7307 67.4477
13.1539 24.8627 56.5852
15.1401 19.8885 30.8256
15.9915 30.624 49.4585
9.95044 25.0557 56.828
22.8392 40.698 65.5693
16.5246 27.229 53.8839
15.8039 29.1297 57.5511
19.8447 37.1785 64.4596
17.9976 31.9963 51.8598
14.6831 34.6685 77.5237
25.3292 43.8925 73.0276
16.186 26.1523 40.89
20.6065 41.3851 85.7591
23.7598 37.252 71.4556
22.9884 38.9065 92.4277
43.4493 70.0819 96.7764
25.6088 51.5227 94.4539
14.9118 23.1488 46.3709
21.8879 44.2211 97.8849
25.7618 33.7443 46.4829
15.5209 33.2952 68.8618
22.1729 37.9171 60.9885
11.891 22.9386 43.5087
11.7019 24.9773 53.6425
12.3663 25.5423 56.2174
15.0081 33.2819 70.3515
16.2026 27.6372 58.8987
20.6256 33.4524 45.0762
7.44659 16.7033 43.8657
17.9801 31.5966 49.9701
12.4946 29.8261 71.5666
22.8008 35.9177 64.0128
21.7158 41.4418 81.9691
19.0752 36.5068 72.6483
17.2608 29.7363 52.5637
12.8859 24.9423 49.1318
12.6408 22.2035 47.0216
20.6534 39.7649 59.7772
15.8716 45.0767 101.237
13.8704 21.6591 49.2874
15.6213 32.1403 60.8165
12.5218 21.3422 45.667
15.1529 26.2364 50.3188
16.3711 29.0177 54.5632
14.2631 28.8012 58.6225
13.3422 20.6442 54.8008
18.1131 33.1262 66.8249
24.7665 42.3115 71.5741
20.4638 44.4972 79.7485
15.656 33.7928 86.4963
25.2158 47.498 85.0528
18.4349 37.6978 97.451
17.1333 24.8465 52.2034
23.7521 40.8894 67.1029
12.1092 26.8068 55.2597
11.5804 20.1238 43.668
18.1701 40.0929 78.2223
13.134 24.4342 58.196
18.9179 36.1413 71.5424
17.3154 29.7076 44.2151
9.58646 23.7577 55.9311
10.9278 20.401 50.7855
14.1604 34.3968 65.8968
10.1804 20.8793 58.2017
21.8838 47.2919 93.6275
12.299 22.0278 44.274
10.5616 16.2237 43.8595
17.5802 31.1234 57.4919
14.4084 34.6353 72.9479
13.1855 27.4546 52.4461
11.5247 19.7362 48.4583
16.0798 25.4049 39.115
9.68251 21.7915 50.0816
14.5511 30.6095 53.7448
10.582 31.48 87.2748
16.4123 36.7156 70.3853
10.972 19.1121 37.8919
9.12304 24.2489 60.9555
12.9146 22.9156 50.0842
13.7201 30.372 63.6701
8.76941 19.608 50.6679
18.1686 38.9803 72.7956
11.928 20.6852 50.2194
16.6763 31.9965 53.1864
9.82599 18.2796 42.6678
14.0729 34.666 73.9073
18.3653 31.7302 62.612
12.4755 31.5242 77.6257
13.147 19.4657 36.7218
9.76692 25.2902 52.7879
9.81092 25.8215 62.4407
11.7074 28.3939 78.7966
20.9784 46.8895 96.6683
15.3404 26.9844 52.944
9.61603 13.8362 23.8683
8.87713 22.0322 46.97
8.18821 22.9971 61.2914
15.2719 28.5207 56.8602
14.1908 37.0004 85.4753
10.984 24.3428 60.006
14.3414 28.1455 55.8461
8.05971 19.4035 71.4831
21.094 40.3505 84.3247
15.0644 25.7288 54.1861
13.5353 27.9254 54.8174
12.2332 27.1526 54.2138
10.3344 25.1712 64.3713
15.4055 31.2452 71.9477
18.7513 45.9879 90.4144
7.52535 14.6886 65.6203
23.4661 48.9969 76.348
9.14738 27.734 90.2631
20.6129 39.7155 58.3848
8.90231 23.155 66.3371
10.8704 23.7754 67.4894
14.2688 23.1948 51.3643
9.50451 20.8442 57.9182
16.4278 34.3461 76.6579
13.227 24.4384 48.1238
18.1579 39.7465 92.8592
15.911 29.8667 54.4128
8.6836 26.7089 66.16
10.4683 24.8723 52.5233
8.64586 18.5048 44.0658
10.3273 24.2608 66.2541
15.5852 28.0997 63.0898
14.9122 30.5745 69.5414
13.6984 29.7049 70.7116
14.7631 35.0986 81.9644
16.1833 32.9699 67.6012
10.817 30.8988 69.4699
5.31199 10.2622 49.1091
14.9332 38.9366 110.508
17.6095 32.5596 68.4381
16.2146 38.4826 90.082
16.2792 38.968 76.9602
14.1188 44.148 110.525
13.4581 20.8755 56.9649
9.98248 21.9904 48.5601
10.7437 27.8374 63.5508
11.1452 29.342 79.6688
10.6877 21.8671 50.1366
13.0329 29.0306 62.3308
9.60587 24.1334 62.9177
11.4681 27.2141 54.5581
13.3983 37.6305 86.8565
12.4338 29.7578 91.506
11.6326 21.3208 41.0406
8.1393 21.8078 84.1604
18.2735 37.9214 69.5935
11.9963 28.1925 70.9559
13.5224 33.5734 81.3713
14.0775 35.6452 102.658
16.9224 37.4154 84.6583
13.9066 30.3187 69.8428
9.56774 18.878 62.6595
15.3911 34.2841 56.4286
9.26391 21.2929 57.218
8.68147 25.3384 84.1031
12.5304 27.7355 68.5574
12.0538 24.849 58.996
9.49564 22.2205 63.8351
15.4274 46.8784 127.53
15.1538 33.1788 87.768
15.1641 25.6876 51.8982
10.582 30.976 62.1717
11.6193 43.3756 134.394
14.6019 22.9123 45.465
14.0815 39.9475 101.599
14.6831 37.2124 81.907
9.38425 20.8404 48.909
8.48101 25.4428 69.1586
13.0012 38.0014 95.7825
11.1834 25.2708 75.8785
15.9123 36.0575 78.9991
11.4879 33.4224 110.044
19.1434 38.8523 82.2421
10.5302 24.7324 46.0306
5.21456 19.4834 74.2497
13.5417 34.0049 86.0784
16.0756 33.2787 90.4312
17.7327 33.7028 56.1229
5.07568 15.8088 52.525
8.00455 22.8093 53.5224
7.17327 18.9935 66.1968
11.426 17.3244 56.1232
12.3446 18.9388 33.2731
8.1877 31.3882 82.1819
10.3392 22.4425 66.6764
11.1006 28.0732 72.2502
11.0318 28.5639 81.9535
14.3091 32.7164 89.169
10.6444 16.2031 28.1143
9.68874 42.1369 98.9409
7.97036 17.8684 63.8313
10.6146 21.1448 41.6237
7.78805 18.4477 55.6713
9.99564 29.558 82.9457
14.8705 46.3123 107.37
13.1086 31.5523 81.2592
7.80537 20.1838 54.6876
7.79704 16.4851 60.8255
9.46749 26.6565 62.5541
9.35822 32.1781 84.2642
9.76345 17.422 54.7301
8.83949 25.5162 78.8707
12.0679 29.209 64.0072
12.3959 33.0313 93.0086
12.7472 29.7652 87.373
10.643 23.4637 51.1617
13.2505 42.3891 116.834
12.9511 26.6032 70.6628
10.9174 24.6458 70.5719
12.5152 32.4347 67.9761
7.32728 18.3246 58.2962
7.74989 21.1571 89.8438
15.4572 41.2453 77.2756
5.84679 23.8862 89.0127
11.4069 21.9178 45.9049
10.1594 34.9181 90.9778
10.2581 26.3003 93.4168
15.8664 33.9935 92.6728
12.8381 32.3244 59.2211
8.567 38.5183 145.46
16.2676 25.5113 60.9276
11.2906 35.3066 93.2451
8.79427 19.7304 71.0989
11.7741 27.6691 97.5599
21.0744 57.7432 112.404
15.1216 51.4273 194.366
23.2067 43.4262 104.936
17.0572 58.3708 136.923
11.6058 32.8786 122.22
16.547 34.9641 79.233
12.2587 31.2266 71.5528
13.2521 45.274 145.454
15.8275 33.1684 80.1059
10.8163 27.2131 79.7614
9.85912 26.0524 88.8508
16.468 50.4784 114.806
10.3552 18.5337 71.1997
15.5992 56.4616 150.329
15.0049 30.4546 111.183
16.4736 36.8731 82.2772
9.5529 28.5585 98.8831
15.0297 35.7746 91.8562
7.76577 19.1455 61.9904
10.6281 30.5498 70.1299
9.14812 25.2438 79.9313
8.98078 26.557 62.9401
10.1436 33.7524 124.611
14.727 21.7466 68.8107
15.7784 45.5377 81.1972
8.28093 26.5789 75.7425
7.43753 19.4121 50.792
6.09619 19.5836 62.3478
7.46498 15.2909 40.9539
7.71118 28.6831 66.8365
4.7926 16.8026 79.7316
11.0886 25.2247 42.0774
5.03123 19.1665 70.5036
6.17207 16.9499 62.4866
8.85139 18.9601 53.7204
9.01533 27.8428 66.3362
5.90486 12.7657 36.4567
5.49581 21.4843 67.1078
6.04512 11.0988 37.7783
5.38101 15.4122 60.1388
9.00235 25.3013 66.6019
7.95508 20.4269 49.9263
4.53015 16.1015 56.9027
7.9176 18.9609 49.6972
7.27964 21.8286 58.5227
6.49631 14.6411 65.1368
10.2366 25.8413 58.2713
6.07238 15.0178 52.2294
9.12745 23.3337 62.4369
6.03127 12.4647 34.5658
8.11428 28.4454 78.3782
8.19449 17.3957 40.0254
3.37545 19.0307 75.4365
7.76055 27.6073 90.4701
9.75584 21.2769 63.1515
7.82458 16.0687 31.9933
4.16329 24.4095 90.9899
9.37213 24.0147 81.6011
9.78974 17.6452 59.0321
7.0926 17.9441 48.7371
5.41247 12.3783 52.8178
10.5544 24.4627 56.8782
10.5329 48.0198 122.266
6.35623 16.3422 93.6852
12.9526 35.8284 95.6185
10.7098 27.2039 68.1016
7.57738 18.2824 53.8877
7.42829 21.644 56.1599
6.53689 21.926 62.1375
6.69702 17.1934 52.4956
6.32718 22.3152 81.191
7.11852 14.1978 41.5562
4.14515 21.9383 61.9101
6.12013 17.2625 61.3154
6.90174 15.6364 47.128
5.18232 23.4841 77.1291
7.24786 18.2032 70.2397
9.64996 18.6637 34.7002
5.54208 16.2616 43.9429
5.43179 18.6931 71.5012
7.95724 27.7519 78.8374
7.01645 19.9408 55.6436
4.97624 20.7536 81.9699
9.54169 23.16 71.2681
8.04882 18.2063 53.5958
6.59813 18.5396 62.4665
7.59695 17.9955 58.9238
8.88001 30.5051 78.7486
6.70907 23.4322 83.0371
7.68473 19.6236 41.9641
3.37082 20.0403 74.3254
5.11171 9.44931 61.4005
10.395 26.9671 71.8315
5.29245 11.443 29.4131
6.24598 21.4275 74.2989
8.88237 24.3862 61.0467
6.8264 26.6577 77.0708
7.67788 24.2727 122.681
13.3791 27.8861 55.6081
7.05174 23.5468 57.5971
4.82592 23.3267 84.4877
8.73136 27.6862 93.266
12.0247 22.8422 70.9647
9.15472 20.5487 50.457
5.01695 17.0194 47.733
5.75698 18.9765 62.2833
4.68825 18.9683 84.1246
9.52852 20.5576 39.3851
3.96769 13.9295 54.3605
7.02052 12.6951 47.9068
6.12994 26.0801 57.1306
3.58416 16.7755 72.1922
5.73184 13.1928 44.8179
5.96007 15.7339 64.6937
6.01557 18.6037 48.2023
6.39453 19.5605 55.8167
4.83692 17.1809 62.3173
7.04563 23.2453 85.2556
7.2088 13.4243 48.2156
5.85938 14.5865 45.3674
5.31092 14.6898 45.6182
5.33432 18.3459 47.4743
4.69991 16.1545 60.7686
6.89524 22.3117 70.6676
7.18411 16.9215 50.8074
5.33532 14.5043 57.9716
6.73542 29.3732 86.973
9.27308 26.9034 81.3659
6.77963 18.0502 52.453
6.61498 15.3583 42.2449
3.49026 19.0255 89.2737
10.1835 21.543 66.0919
7.21336 25.5067 79.5684
8.69824 19.2865 52.6128
4.92644 9.89953 35.4365
6.06808 17.9241 68.729
6.32766 14.3834 56.6416
10.6246 39.8809 97.7925
6.73395 21.211 74.2639
5.91722 19.9417 78.1919
7.62239 22.2983 73.8704
8.23498 25.9384 86.9434
6.44662 18.4844 85.3008
10.4556 28.1367 72.9735
6.82185 23.2265 77.0867
7.99701 25.8994 76.6188
8.48166 25.2075 92.2596
8.51751 24.1857 76.4474
7.12358 21.5475 63.6806
7.08709 26.1748 80.9569
5.98542 8.37413 28.9225
4.86564 22.6323 72.3303
7.04872 20.2073 64.916
5.90138 19.4047 74.845
7.43183 16.676 40.1411
3.77501 12.3253 35.0873
4.06905 19.1105 87.0684
9.26631 19.9801 62.987
5.49182 11.255 32.3506
5.67576 14.3854 55.2246
5.69301 17.7869 80.9655
8.33932 22.7055 45.1604
4.23549 11.8234 38.9316
4.44669 13.9825 61.4966
7.97199 22.9577 59.8622
4.19866 18.4506 94.4183
8.33335 21.4349 88.5845
8.16139 16.3642 32.5384
5.74144 21.8689 84.8383
10.2605 41.9057 124.58
10.9287 23.3009 82.2286
8.89801 31.9061 79.8516
5.27892 16.7279 69.8956
7.30307 24.1086 78.2165
5.50932 12.7239 44.645
5.2676 24.0557 92.5
6.53433 16.7913 93.3591
10.0002 27.8128 73.4577
4.99866 10.7576 52.3433
6.31577 18.1381 52.5216
4.81339 23.6165 88.4766
8.29634 26.1483 64.5997
4.98755 18.3425 59.3324
4.97983 12.4142 46.3286
6.05272 21.0261 69.3186
5.5342 25.5969 77.368
6.04274 15.5616 55.1008
5.49384 17.6636 42.3522
3.75249 24.2779 92.7886
7.07896 14.7721 80.5183
10.358 24.1102 61.4403
6.38623 23.8136 76.54
7.09354 24.1923 85.3776
6.41183 19.2878 63.6847
5.38539 13.2188 32.6507
3.17267 13.4052 56.1709
6.98947 22.1028 73.5222
5.55294 12.2841 44.26
4.68973 16.9773 66.1195
7.14403 15.2663 50.8471
5.9129 27.0242 62.9099
4.45561 13.6795 82.2855
7.06669 20.8056 88.7212
8.2698 23.0657 64.1719
5.05385 22.7882 116.815
9.61898 19.3514 40.1017
5.95531 28.6179 78.4333
4.27241 11.4211 76.5515
7.10274 23.0394 64.2992
5.0189 16.7182 60.285
6.15614 17.1948 56.8766
5.19614 16.078 24.4483
2.8489 13.5648 44.259
3.37221 21.8727 106.193
8.89124 13.2132 48.8715
5.82341 21.016 52.0683
4.86424 14.6301 60.4262
6.76875 17.8947 62.8978
6.45975 14.8329 42.918
4.52661 14.0437 50.6533
4.23101 18.1848 76.7272
7.36472 16.2278 49.6059
5.20063 21.5352 69.7321
5.06353 20.1515 109.691
9.46929 27.416 64.2823
5.17943 18.0932 65.8263
6.04699 14.5202 56.8148
5.1943 19.1656 69.2551
5.50909 8.89714 37.7754
5.4941 23.52 56.3994
3.5362 11.7523 69.5272
6.00583 14.9209 49.5534
5.369 15.0996 44.1056
5.09934 25.6945 84.8055
5.78906 11.7303 43.4282
3.96851 17.0772 81.5237
6.39306 13.158 47.2444
4.17582 12.5123 77.8504
8.00592 28.7804 80.0929
6.56895 20.6084 81.8911
8.09914 14.9024 44.3938
4.76834 22.7023 74.4197
5.36947 14.8685 70.4785
7.40535 22.551 62.8897
5.45911 17.1852 64.7285
7.15317 18.181 83.5462
7.43735 19.5849 65.0568
6.447 19.2092 63.2769
5.29234 19.2902 39.8317
3.06613 15.545 59.6625
4.63962 22.9945 108.899
7.22539 19.5202 61.4281
4.6949 15.7907 46.2249
5.599 14.7613 56.6041
5.67724 21.2438 85.8618
6.30014 19.0509 64.8567
5.41068 16.2696 67.263
5.92385 25.5568 72.7216
6.18873 22.0845 65.6724
6.27391 20.7692 70.0005
5.33651 23.5306 100.923
8.19416 20.6563 49.1873
3.33848 15.5261 86.3892
7.30032 17.3058 36.3502
4.27352 21.4344 80.998
6.61003 20.6824 92.5616
8.30802 32.8639 89.7543
6.61204 18.6769 57.8072
4.13746 12.3318 68.7303
6.20362 19.3776 82.9914
6.75755 20.2761 51.5552
3.39352 16.6409 53.6227
4.36582 15.3788 68.0251
5.49668 20.8536 68.8416
4.46668 12.3079 80.0209
7.21852 25.5427 68.1486
5.56016 32.9956 137.504
8.84573 19.2079 58.4205
5.31878 16.8362 78.6278
6.1942 15.5324 59.5985
2.87676 13.07 90.5593
8.96796 29.5437 58.2974
4.45475 25.7613 84.914
5.94981 18.5728 61.2551
4.89114 14.0816 76.5287
6.72304 12.7352 42.7741
5.55345 22.036 75.3256
5.5332 15.0635 66.3991
5.28421 25.4397 76.8495
4.6458 13.88 47.829
3.20918 14.6977 63.5349
6.08378 16.6769 80.0997
6.3196 20.7047 62.25
6.25789 18.7415 51.1738
3.76341 18.0339 90.5804
7.73968 22.1154 53.0704
4.29651 15.6777 75.1223
5.24407 26.4665 126.961
10.0525 19.4397 68.7615
5.84819 22.0185 65.0064
4.60604 13.2013 55.5771
4.69881 17.0397 46.9399
4.97359 26.7305 90.7965
5.52275 13.9862 74.8456
6.97971 16.4938 34.7271
3.28125 13.7263 54.9984
4.8222 14.8745 75.2518
6.57715 19.8969 50.7032
4.63476 18.8424 68.5779
4.40574 12.0642 55.5366
5.79095 21.9759 82.5099
7.05688 14.7437 45.2895
2.99888 10.0159 52.4686
5.68793 22.9911 79.7171
5.36761 16.5498 78.8791
7.18834 24.5076 55.1953
4.7152 13.7888 54.483
4.02898 9.41264 47.8262
3.29341 9.11736 55.8364
6.39671 14.5831 36.7298
2.60252 18.2728 83.1591
6.28392 14.334 46.7294
4.77249 13.2177 45.0273
3.03816 17.8817 73.1319
5.25154 14.5289 66.5848
5.80792 23.4971 72.7535
4.34349 15.4396 53.3395
4.3466 12.286 44.7433
3.74215 16.968 67.7951
5.73142 11.2949 41.6072
3.30557 18.8642 70.2464
4.70896 20.0669 62.5696
4.74118 17.8498 81.0776
6.34566 14.5296 75.7653
6.1496 17.9239 42.6503
3.92553 10.9455 54.4697
4.56254 20.5475 88.2121
6.83374 17.4279 49.2002
5.07354 13.5992 55.1951
5.56042 16.2288 56.2652
4.73321 15.6152 60.9622
5.63984 18.9067 61.5645
5.03114 11.9468 42.141
2.25122 13.2126 77.0204
6.14197 17.3348 36.9127
3.08551 12.4562 63.7342
5.40439 13.5556 54.7648
3.86097 10.1661 38.8694
3.15254 11.8616 69.4883
6.42545 21.0757 81.6106
6.64286 17.5802 54.6853
4.89213 24.8618 118.916
9.82727 22.1046 78.2038
7.14503 26.8721 83.9772
5.19795 16.9288 57.843
5.74377 17.043 53.7758
3.7661 8.9915 46.1122
3.72377 17.5061 53.8418
3.77688 12.8415 39.8436
3.343 14.0399 42.0782
2.82533 12.4665 56.1779
4.61439 16.0193 98.0831
7.68493 18.5514 42.5204
2.36167 7.57285 31.1146
3.3685 16.568 62.8503
4.44059 15.5927 63.7908
5.28956 21.2832 104.508
8.46579 20.6404 61.8071
4.0508 14.8025 82.7913
5.88271 12.1841 63.8678
6.5979 17.6026 27.97
2.21681 10.4415 54.7876
5.7 16.6619 88.406
7.25463 14.7783 53.2335
5.60209 17.9379 49.2532
2.95434 10.7353 43.5996
3.68816 14.2254 60.5914
6.99531 18.969 56.1088
2.58317 18.9813 87.6708
8.17475 16.0902 34.8329
2.46242 17.3425 98.5193
7.66893 19.5042 48.3721
4.10575 15.7928 76.078
5.12656 13.908 47.2443
3.08057 10.6139 48.7431
4.16139 14.0191 65.6339
4.48364 13.7832 52.7396
3.29941 14.7336 54.0723
4.26693 16.2883 67.0334
5.13858 15.2395 47.2826
2.82494 8.04594 32.6267
2.68269 17.92 50.3208
2.8839 14.6477 57.0089
3.06369 13.4743 67.7821
4.89438 14.6056 50.2908
3.84761 19.4176 70.0713
5.45221 11.8114 70.0235
6.08493 24.171 70.904
5.23916 23.593 86.1192
4.58016 8.17969 42.3254
4.46973 17.3341 94.5167
7.70263 24.2145 63.155
4.49139 12.8515 63.6865
4.83574 13.8162 64.3352
3.8855 15.7656 42.1664
4.19403 9.05488 68.325
5.47509 17.7745 64.0717
5.53528 20.8589 44.5463
3.94612 13.5994 52.9661
3.04562 15.0347 62.1288
4.13247 14.1346 51.5734
3.75941 12.6353 51.6186
4.04804 11.122 59.9852
4.90273 26.749 86.2845
6.31082 16.657 75.8514
5.67459 14.6441 53.9892
5.10822 17.0954 78.7396
5.50407 17.608 74.2109
5.31168 15.3942 59.8179
4.96114 22.8253 83.5259
6.1987 26.4655 84.6631
5.79139 11.8338 53.089
3.40435 12.7809 55.054
5.89968 17.3505 71.86
4.72206 12.6451 35.3503
2.53712 14.3406 64.0669
4.43291 11.8935 58.4054
5.36966 12.649 39.1349
2.82999 12.7609 48.7038
3.44194 14.5198 54.7852
2.62536 9.38991 41.1408
2.94742 23.7934 102.246
7.43491 15.3562 55.744
4.37181 20.9765 83.5492
6.00116 16.7894 48.3251
3.50621 14.7919 62.1491
4.12364 13.3198 51.5223
3.6517 11.92 50.8094
3.44915 18.0716 71.1553
4.25474 16.4426 47.092
3.74491 15.4763 61.628
3.69783 12.9671 77.2031
5.45624 16.8744 58.5908
3.56069 10.0034 31.6108
2.77945 12.5727 61.2896
3.47615 16.1711 50.5399
3.81886 12.5509 55.4519
2.88905 14.4622 69.3633
4.4021 20.2013 69.0312
4.84822 15.5473 61.0582
4.11979 13.778 57.9878
4.7048 13.2186 63.9062
4.75608 14.7303 51.5341
4.1546 12.5321 39.2061
3.76644 11.0841 46.1277
3.74576 13.3651 24.0212
1.98191 9.5192 65.5455
4.96608 20.9723 93.8462
5.29045 19.1931 67.8833
5.51877 13.6465 57.7923
4.98031 21.703 73.8687
6.08091 11.9584 31.8061
3.65617 8.72225 62.49
4.64777 15.1434 56.344
3.63517 9.7632 36.7533
3.81258 12.5182 85.3737
7.08412 25.5941 54.481
5.07218 14.0611 77.2266
5.14645 16.1448 82.8201
6.16658 20.3568 57.0485
3.53933 14.7022 49.1936
3.97474 12.064 40.7018
2.54216 13.504 54.6378
3.28712 16.2919 58.2626
2.85529 6.13834 38.7205
3.0012 11.4521 40.386
3.39525 20.4708 84.4895
5.11513 15.1776 65.8107
4.58818 15.2252 65.4063
4.37603 16.0047 57.7936
3.98442 9.96784 41.638
2.83955 16.2967 61.4309
4.74503 8.84628 38.1267
3.00355 16.2776 106.906
8.43829 29.005 111.081
7.20655 26.5605 71.5417
5.56737 14.6703 39.0462
3.12185 11.6446 72.612
4.44668 23.7454 103.225
6.23146 20.6368 98.5526
6.43244 34.1086 125.348
8.52574 21.8811 64.9027
3.86632 28.1953 108.339
7.52528 22.8673 117.522
7.86969 25.9875 88.2852
6.05982 23.765 79.9742
6.19584 10.0841 64.4802
4.58425 13.5973 79.6555
5.00185 29.2951 63.0434
5.51292 22.1018 119.736
8.03587 25.4841 90.2191
5.90135 19.3942 70.4927
5.38959 26.7441 78.7938
5.22941 16.0593 76.4669
4.72053 19.2063 84.2957
5.96102 20.6757 67.4715
5.65265 11.9014 51.4785
3.76519 15.552 88.7238
6.76129 22.0138 49.032
3.73742 10.9265 40.3214
2.78564 17.2515 74.7744
6.11772 10.1436 31.6385
2.33643 14.5869 59.9606
3.36512 10.5663 64.8024
4.54697 21.2461 48.8072
2.96994 11.8053 97.3958
6.32909 15.657 42.1738
3.38134 12.5083 56.8148
3.71747 12.3656 35.7334
2.67679 13.5839 44.6686
4.40961 7.26454 17.0038
1.73278 8.12709 40.1863
3.16492 12.833 73.2344
5.93282 18.5456 98.9033
7.55047 16.9095 68.916
5.18017 21.4521 82.5256
5.27317 19.2229 52.001
3.18253 13.0787 56.5648
3.36313 13.3716 51.2298
2.82992 17.5308 53.5478
3.61467 16.6709 58.921
3.98331 19.9078 78.6084
4.65492 6.63893 49.6664
4.01687 16.9116 63.8506
3.95522 13.2868 57.2338
3.34354 13.3403 41.1135
3.62124 0 0