# pn-170911/RbIIR-54-RbIIR-1280-1959.psd
# Power spectrum* (dif=0,1,2) (really just |FT|^2)
# NOTE: only the first half! (symmetric)
# weeks: 1280-1959
# 4171 clock-days, 562 excluded
# PSD: 1441
164.153 0.128088 0.0487317
40053.3 0.627511 0.0529657
249464 5.24115 0.0547928
29839.2 1.12324 0.0547697
35751.8 2.63472 0.0537766
10816.7 1.09349 0.0555511
8168.86 1.23738 0.0548793
5683.04 1.15275 0.0571032
5799.04 1.58225 0.0574888
3687.97 1.24778 0.0572335
3100.51 1.31237 0.0545069
2619.43 1.32703 0.0548467
2320.33 1.40445 0.05419
1943.25 1.38885 0.055389
1824.31 1.51988 0.0548561
1574.41 1.51747 0.0559453
1474.12 1.62722 0.0571173
1302.34 1.64459 0.0565362
1223.03 1.726 0.0566865
1173.57 1.83167 0.0566166
1052.92 1.83572 0.0594114
1026.07 1.96976 0.0583767
997.319 2.10983 0.0637429
917.647 2.15875 0.0631755
902.37 2.28891 0.0602543
851.379 2.35377 0.0652237
843.831 2.54891 0.0654341
812.344 2.68845 0.0634264
790.2 2.74234 0.0656021
789.659 2.96639 0.0674514
779.621 3.18227 0.0685
748.572 3.25803 0.0692782
758.755 3.51646 0.0755336
738.91 3.61893 0.0743567
726.133 3.81232 0.07681
744.093 4.13457 0.0809549
695.997 4.10094 0.0801214
704.166 4.35598 0.078709
666.983 4.41179 0.0862756
674.944 4.67403 0.0900267
670.806 4.89538 0.0930278
671.324 5.18608 0.099644
645.898 5.29327 0.100214
640.687 5.49227 0.103932
666.963 5.89772 0.110666
647.703 6.07821 0.115161
636.487 6.27664 0.11656
624.437 6.40553 0.12012
646.56 6.86012 0.130365
613.352 6.83521 0.134691
609.509 7.07339 0.136068
627.842 7.58441 0.151521
606.561 7.70226 0.154981
606.465 7.93835 0.160499
630.896 8.5772 0.174067
597.214 8.39904 0.173719
599.869 8.77235 0.187022
581.464 8.69967 0.189337
585.198 9.15764 0.204723
601.362 9.75693 0.215581
595.205 9.97905 0.227877
574.153 9.92059 0.231942
581.383 10.4274 0.245574
571.721 10.5976 0.258741
572.197 11.0329 0.269498
567.234 11.3087 0.286591
558.805 11.3594 0.289244
543.282 11.3502 0.296864
540.1 11.6086 0.301925
535.422 11.8905 0.31961
552.926 12.6843 0.347672
547.817 12.8709 0.361422
536.625 13.097 0.382262
516.594 12.8974 0.384083
499.025 12.7876 0.38654
502.319 13.2896 0.411
534.832 14.4655 0.457218
518.305 14.2913 0.459001
504.5 14.3089 0.468633
512.335 14.929 0.493746
493.77 14.8249 0.507713
521.58 16.0445 0.554505
484.651 15.2332 0.533726
481.96 15.5396 0.55929
488.49 16.1461 0.592386
476.093 16.0743 0.607316
466.54 16.1551 0.621919
491.774 17.4634 0.678544
466.091 16.963 0.687605
479.431 17.8127 0.726752
467.561 17.7536 0.743547
476.906 18.5514 0.785879
442.029 17.5295 0.765693
447.355 18.0452 0.790406
444.02 18.3336 0.820035
446.262 18.9072 0.858868
503.112 21.803 1.00798
434.987 19.0832 0.901447
437.589 19.6627 0.953084
413.331 18.8353 0.926916
429.325 20.0962 1.01158
419.576 19.9288 1.01886
434.221 21.2524 1.1063
415.678 20.6926 1.09251
432.41 21.9036 1.16137
407.473 20.9902 1.15109
404.047 21.3462 1.18924
403.034 21.6117 1.22693
399.473 21.7769 1.25033
389.889 21.8768 1.28774
389.353 22.0168 1.31766
402.721 23.1994 1.40542
395.947 23.3383 1.43478
387.211 23.3005 1.45366
384.65 23.3784 1.47877
379.134 23.4117 1.51999
377.606 23.819 1.57241
376.427 24.2066 1.63125
370.644 24.1723 1.63143
371.924 24.6488 1.69545
360.664 24.3802 1.7189
376.101 25.8016 1.83056
352.328 24.6031 1.78303
372.935 26.4522 1.93662
370.81 26.9445 2.01783
358.376 26.2677 1.98887
359.2 26.7303 2.06143
338.104 25.5362 1.99936
343.187 26.464 2.09868
344.599 26.8151 2.14878
339.4 26.8611 2.20999
341.591 27.299 2.25724
332.332 27.2703 2.29445
334.412 27.7656 2.36184
325.411 27.396 2.36282
322.015 27.6268 2.41973
324.154 28.0444 2.48327
334.676 29.7618 2.69288
332.683 29.6097 2.71646
324.821 29.2089 2.70924
326.526 29.907 2.80135
312.991 29.1262 2.79852
312.864 29.4006 2.85197
305.842 29.4361 2.90072
318.215 30.8683 3.06277
300.25 29.5225 2.99055
301.673 30.1611 3.10342
304.214 30.7535 3.16855
298.811 30.6655 3.24099
298.677 31.0467 3.27894
308.333 32.6129 3.53976
293.452 31.2244 3.38509
296.318 32.0815 3.51571
287.052 31.4473 3.52818
286.972 31.7901 3.58215
296.521 33.3645 3.81478
279.542 31.9647 3.70967
283.465 32.7579 3.83436
275.8 32.1313 3.8154
283.704 33.5617 4.0251
274.95 33.119 4.04744
272.571 32.9538 4.06672
277.095 33.8586 4.22532
270.492 33.7229 4.25348
273.96 34.4724 4.40998
269.209 34.1302 4.39094
264.924 34.2378 4.47891
267.716 34.7962 4.61446
272.043 36.0492 4.81176
264.321 35.2302 4.76519
255.658 34.4082 4.71708
253.964 34.6441 4.78464
257.382 35.4959 4.95832
247.673 34.6433 4.91142
252.442 35.8731 5.15231
253.576 36.3729 5.27649
250.994 36.2082 5.29612
249.169 36.4334 5.4185
251.505 37.1189 5.52935
241.636 36.114 5.48616
236.58 35.5979 5.44165
241.611 36.8099 5.68993
229.847 35.596 5.58071
236.584 37.1167 5.8743
234.305 37.2527 5.99653
234.164 37.1627 5.97652
236.193 38.0122 6.15346
232.196 37.912 6.2825
229.667 37.6974 6.27661
230.738 38.4555 6.50283
221.304 36.9865 6.28547
226.526 39.0448 6.79433
273.442 47.0284 8.09115
224.778 38.5884 6.71241
222.107 38.9142 6.91439
221.849 39.3266 7.05372
216.206 38.7815 7.03358
218.586 39.3563 7.15676
217.808 39.8367 7.35575
210.653 38.6903 7.2067
214.261 39.8416 7.53812
207.543 39.1362 7.45495
211.068 39.8287 7.61832
201.231 38.3819 7.42818
209.122 40.6242 7.96629
205.701 40.1923 7.94045
207.73 40.9777 8.15379
200.704 39.8097 7.9667
203.645 41.2169 8.42975
199.879 40.574 8.33167
204.176 41.7756 8.61162
194.007 40.0526 8.37955
199.551 41.6717 8.78092
192.417 40.3739 8.54288
188.855 40.3075 8.70176
198.947 42.7651 9.24424
188.603 40.8827 8.92328
195.335 42.6279 9.37288
182.652 40.2683 8.99166
187.424 41.908 9.45871
192.501 43.2504 9.81213
183.457 41.6602 9.53547
186.189 42.4491 9.7726
181.062 41.8379 9.76581
185.355 43.0582 10.0931
177.495 41.682 9.86784
182.006 43.1547 10.3105
179.134 42.728 10.3018
183.503 44.1514 10.7251
180.365 43.6218 10.6399
177.508 43.3163 10.6634
176.427 43.7631 10.9332
175.542 43.6985 10.9716
176.441 44.2539 11.1981
173.144 43.7206 11.0813
166.355 42.7074 11.1089
169.03 43.689 11.3479
172.29 44.6608 11.7112
169.596 44.2197 11.648
178.209 46.9871 12.4526
169.468 45.3073 12.1868
164.616 44.1232 11.9048
163.582 44.6363 12.2762
161.265 44.0955 12.1355
166.785 45.4912 12.5086
166.555 46.236 12.8621
157.141 44.3306 12.5718
160.713 45.0361 12.7633
161.036 45.5634 13.0025
161.587 46.5696 13.4809
159.487 45.863 13.3476
155.668 45.3173 13.3411
157.023 46.0906 13.6413
158.396 46.6879 13.8781
153.978 45.8458 13.757
155.11 46.551 14.1378
148.546 44.8262 13.6749
153.427 46.5729 14.3283
153.32 46.7805 14.4182
150.562 46.4924 14.4595
149 46.4416 14.5672
152.359 47.6481 15.0602
147.097 46.3006 14.7728
147.912 47.0169 15.0991
143.346 45.6843 14.7586
146.522 47.0733 15.1987
140.657 46.3114 15.2773
145.22 47.4462 15.6526
141.276 46.9749 15.7072
142.861 47.7165 16.0808
139.808 46.5101 15.6225
140.599 47.488 16.1264
138.794 47.3161 16.2266
137.721 47.253 16.3477
139.292 47.9233 16.6438
137.424 47.6073 16.5921
131.141 45.9684 16.2604
137.043 47.8676 16.8637
129.109 45.8817 16.4389
134.746 48.3875 17.3749
132.106 47.4323 17.1555
129.725 47.201 17.3712
129.089 46.9395 17.2479
130.122 47.8451 17.6718
125.811 46.3311 17.289
131.889 48.7281 18.2032
128.287 48.095 18.2142
128.169 48.3594 18.4959
162.855 61.7173 23.0986
126.263 48.3264 18.707
125.193 48.0346 18.598
125.28 48.3572 18.7993
122.837 48.1596 18.9973
124.227 48.6785 19.2602
121.206 47.9675 19.1668
121.897 48.5589 19.4493
117.081 47.1178 19.1459
122.21 49.0402 19.8194
115.905 47.2373 19.3873
120.738 49.3112 20.3017
118.144 48.6294 20.2553
117.954 48.0395 19.7862
116.479 48.644 20.4143
116.476 48.4838 20.3415
117.903 49.9278 21.2152
113.776 48.5062 20.9699
117.108 49.751 21.2758
114.335 49.2809 21.4118
115.612 49.6104 21.4759
118.171 51.3783 22.4454
111.652 48.909 21.6149
110.751 48.5466 21.478
112.651 49.8666 22.2292
109.374 48.8765 21.9347
108.222 48.6115 21.9923
108.003 48.5161 22.047
110.724 50.3439 22.978
107.344 49.0119 22.5307
106.286 48.9603 22.6852
108.613 50.1282 23.2605
106.558 49.5749 23.2176
107.397 49.9608 23.3741
106.269 50.223 23.7841
105.749 50.2169 23.9532
102.471 49.2556 23.9024
102.574 49.152 23.7987
102.99 49.4281 24.0016
103.843 50.5486 24.6462
103.898 50.616 24.8148
102.706 50.397 24.8782
104.947 51.3173 25.3082
100.128 50.0261 25.1441
103.386 51.444 25.7589
97.8871 49.0057 24.8109
99.6645 50.1906 25.4906
98.799 50.0951 25.6776
102.041 51.8704 26.4862
95.743 48.8355 25.1856
95.6406 49.7502 25.8517
94.6708 49.3064 25.9877
97.9015 51.1055 26.8396
95.1174 50.22 26.7944
96.0863 50.4819 26.8426
97.1103 50.8831 26.8801
90.6073 48.4771 26.1435
95.219 51.1284 27.4937
91.325 49.8262 27.3458
94.2452 50.9504 27.7207
90.9516 49.9725 27.7062
93.2943 51.3877 28.544
92.269 50.4837 27.8622
91.5359 50.7342 28.2109
90.726 50.7691 28.5791
90.0119 50.466 28.5389
89.7053 50.4213 28.4686
88.3163 49.881 28.4972
87.2147 50.007 28.8787
87.9122 50.44 29.2244
85.5753 48.8724 28.2672
85.8105 49.7787 29.0528
86.1593 50.0186 29.1964
84.6632 49.6044 29.3733
85.9868 50.8667 30.3775
88.3461 51.8895 30.7511
85.554 50.6315 30.3344
87.5553 51.9385 31.0026
82.6614 49.8978 30.4334
84.3146 50.8399 30.816
84.209 51.5028 31.5329
81.621 49.6545 30.5485
81.5115 49.9269 30.8439
83.2584 51.478 31.985
84.1023 51.4567 31.6201
81.645 51.535 32.737
80.971 50.4371 31.6737
80.6992 51.0248 32.5747
80.5896 50.588 32.0653
77.2633 49.1693 31.6417
77.3585 48.9763 31.4674
79.4307 50.9238 32.6951
75.5056 48.8341 31.6998
75.4482 49.3239 32.503
75.3424 48.9001 32.2273
77.7053 51.1486 34.4083
97.1187 63.1906 40.517
76.1101 50.2803 33.6829
76.8735 51.0184 34.0826
75.0861 50.0156 33.7166
75.9998 51.1032 34.6466
74.7798 49.6889 33.4106
74.2546 50.6651 34.7796
74.6262 50.4137 34.4186
74.2829 50.5693 34.624
73.6654 50.7201 34.9559
71.4288 49.7662 35.0116
73.8498 51.0884 35.7386
74.0293 51.2636 35.794
73.7933 51.8243 36.3885
71.3146 49.6471 35.0036
71.1387 50.8155 36.4654
70.4493 49.7732 35.4657
71.8686 51.7085 37.3809
72.6584 51.7526 37.0283
69.0057 49.9031 36.3308
70.1347 50.8172 37.0548
69.4087 50.5108 37.1149
69.6893 50.8735 37.6653
69.7502 50.2314 36.5533
68.1386 50.6952 37.7754
67.6704 50.2081 37.8341
66.1775 47.9389 35.3698
67.7193 50.5138 37.7867
67.2747 50.8147 38.6959
66.4138 49.4587 37.1447
65.0861 49.5491 37.7877
64.788 49.2169 37.6503
65.294 50.1115 38.7947
66.1682 50.5276 38.8647
63.772 49.0704 38.1004
64.0962 49.9684 39.205
64.5645 49.8695 38.9605
64.1154 49.87 39.1639
63.8372 49.7541 39.0158
62.4236 49.4397 39.3776
63.0959 49.9075 39.679
61.9611 49.4457 39.8334
63.7833 50.8884 40.7667
62.5911 49.689 39.6609
63.3989 51.6228 41.9972
61.8876 49.6892 40.3853
60.5992 48.798 39.8472
61.4155 50.0463 41.0419
60.7353 49.7826 41.0667
58.5687 47.8909 39.6397
61.4853 51.407 43.0302
59.9021 49.3381 41.2287
60.6364 50.622 42.4772
60.4862 50.62 42.4812
58.6518 49.5202 42.46
59.5167 49.4136 41.4676
59.1391 50.2061 42.8716
57.8691 49.2142 42.3497
57.9209 49.2472 42.0537
57.7632 50.1936 43.7425
57.672 49.7637 43.1144
55.3634 48.0228 42.2747
59.3248 51.4965 44.9747
55.2463 47.4084 41.4747
57.1348 50.1015 44.0064
56.9613 50.0778 44.1612
55.1958 48.9539 43.6937
54.4808 48.3667 43.5148
56.788 49.929 44.1472
55.3802 49.8337 45.1497
53.7556 48.33 44.2103
55.4724 49.7172 44.9477
54.9684 49.3648 44.867
55.1762 49.9433 45.4375
52.138 47.4397 43.6773
53.7141 49.327 45.6707
53.6345 48.8108 44.9684
55.1717 50.7383 46.7046
53.6857 50.0582 47.1733
54.1699 50.0183 46.2929
52.8861 49.3166 46.1874
51.8017 48.6879 46.2648
52.028 48.7365 45.9401
51.9252 49.3916 47.1106
51.4562 48.4964 46.2364
53.1265 50.8712 48.69
50.0441 47.6603 46.0866
50.8238 48.7975 47.0692
50.3819 48.6091 47.2188
50.6772 49.4456 48.7465
51.744 49.4778 48.093
50.6216 48.7807 47.6157
51.0656 49.6577 48.2898
49.8813 49.3653 49.1361
49.3585 48.8582 48.9709
49.3964 49.2897 50.7995
61.818 60.472 57.6215
47.8608 48.2065 49.1833
48.1375 48.0469 48.6533
48.4688 48.3615 48.3558
47.5293 48.9133 50.6078
47.7131 47.6615 48.3582
48.4582 49.0465 49.7975
47.6077 48.3278 49.2965
46.78 48.0975 49.8431
46.6736 47.7395 49.4605
46.9762 48.918 51.2731
46.5972 48.1808 50.4234
47.4094 49.1639 51.5671
46.2724 47.3837 49.2959
46.767 49.1834 51.7762
46.8322 49.3969 52.3235
46.6354 48.7449 51.6613
45.0918 47.2432 50.2493
44.5994 47.049 50.2863
45.5393 48.0582 51.0962
46.2796 49.5511 53.1113
44.973 48.1784 51.7574
43.8641 47.8366 52.5509
44.6861 47.8585 52.0782
44.6031 48.2011 52.6054
45.5628 49.6308 54.2039
42.8661 46.7047 52.0465
44.8646 48.6429 53.0431
43.6167 48.0005 52.9339
43.0301 47.5244 52.8156
43.9689 48.5936 53.9678
43.0073 47.4324 53.1317
43.0824 47.7209 53.6649
43.3088 48.437 54.5592
42.8661 48.0499 53.9934
42.2653 47.885 54.1675
40.8404 46.4293 53.4498
42.3185 48.2065 55.4596
42.2675 47.8364 54.673
40.9997 47.0946 54.6342
41.5943 47.1466 54.2055
41.2189 47.8861 55.8513
40.9472 46.6266 53.9138
41.1276 47.7192 55.0944
40.122 46.9892 55.6897
40.8854 47.3361 55.4295
40.1009 46.5793 54.8059
39.6735 46.7736 55.0625
38.8946 46.2467 55.3327
38.6101 45.4721 54.4778
39.4113 46.5312 55.1488
38.3971 45.7166 55.2517
39.3089 47.2128 57.4224
39.5576 46.5588 55.7846
38.9432 46.4128 55.4154
37.8154 46.1154 56.2044
39.2673 47.955 58.7495
38.7873 46.7541 57.2266
37.9607 46.4665 57.4214
38.0235 45.8481 56.0507
37.4433 46.1625 57.5516
37.8969 46.1609 56.9189
36.8511 45.2937 56.5593
37.2541 45.6109 56.5261
37.2955 45.9133 56.7888
36.6085 45.8425 57.7976
36.6246 45.3012 56.2577
35.2682 44.5411 56.7385
36.554 45.9383 58.3335
36.2552 45.4708 57.491
36.6514 46.6139 59.5172
36.4443 46.7479 60.6597
36.7475 45.7041 57.4165
35.202 45.4771 59.1026
35.7193 45.5253 58.3796
34.2251 44.4496 58.4465
34.6255 44.3296 57.8738
34.8041 44.8794 58.4331
35.3757 46.2648 60.4399
35.3108 46.2566 61.1253
35.1767 45.0189 58.7507
34.9173 46.1934 61.3998
35.5886 46.7938 62.3028
34.1011 44.1062 58.0912
34.0599 44.6898 59.0113
34.2227 45.934 61.7123
33.3622 43.9314 58.4521
33.2653 45.2203 61.886
33.1969 43.4297 58.1747
32.3368 43.4058 59.3289
33.8155 44.7761 59.4894
33.4062 45.725 62.484
32.9187 44.2232 60.1785
32.9879 45.1986 61.6788
31.7562 44.1364 62.5223
33.52 46.3559 67.8933
43.061 56.9241 72.8902
33.6679 46.6521 64.8541
32.9884 45.6978 63.8728
32.3652 44.4396 62.5939
33.4878 45.9362 63.5164
32.3787 45.0861 62.7106
30.8278 43.4479 61.8978
31.5188 43.5097 60.6261
30.6121 43.7523 63.034
31.1909 43.7024 62.2895
31.7304 44.8237 63.7969
31.3574 44.5436 64.1705
31.8552 44.8 63.9057
31.7619 45.163 64.4094
30.7329 43.9807 63.7771
30.3312 43.1468 62.5656
29.9018 42.6097 61.6935
30.9171 44.7128 64.7407
30.3825 43.7519 64.1459
30.4869 43.9844 64.2361
30.0419 43.5199 63.8315
30.1676 43.6471 63.7961
29.7469 43.6752 64.8009
30.0977 43.5411 63.6766
29.474 43.3903 64.5249
29.2958 43.0418 64.2814
29.8066 43.3169 63.1881
29.0834 43.9172 66.5392
29.5915 43.8662 65.789
29.9486 44.7434 66.603
28.5845 43.1152 65.9209
28.795 42.6665 64.5782
28.7504 42.8044 64.3827
28.3374 43.305 66.5284
28.5632 42.4081 64.2381
28.3533 42.9725 65.3397
28.3052 42.8725 65.1377
27.6444 42.5485 66.1478
28.5577 43.2757 65.8191
27.3153 41.7125 64.7888
27.2162 41.9168 65.379
27.7499 43.0698 67.6241
28.1525 42.6368 64.9701
26.7733 41.8083 65.731
27.1744 42.3864 66.9915
27.7402 43.2201 68.0185
27.3325 42.2799 66.443
27.2473 42.7924 67.752
26.6314 41.3194 65.847
27.366 42.7435 66.678
26.7533 42.6922 68.4952
26.7477 41.7782 66.5484
26.1021 41.2092 66.1785
26.7453 42.2912 67.0445
26.2353 42.1824 68.7097
26.1353 40.7794 65.5038
26.4541 42.7889 68.8994
25.8422 41.4739 67.697
26.6597 43.0985 69.7035
25.5526 40.4984 65.49
26.0733 43.2571 71.6071
26.4035 42.26 68.1169
24.9412 40.6004 66.7862
24.6402 40.5468 68.5398
25.605 41.0507 67.1
25.2621 41.4206 68.5168
25.4966 41.7401 68.5304
24.7797 41.1028 68.1892
24.5932 40.5652 67.5058
24.4717 40.9568 69.1163
24.9931 41.2502 68.6383
24.226 40.7237 69.5234
25.0345 41.1308 68.1524
23.6218 39.843 67.7739
24.4182 40.9029 68.9718
24.2058 41.0773 70.6091
25.1376 42.5221 72.7262
24.9275 42.2044 72.0036
24.2194 40.8203 70.2256
24.2449 40.6761 69.3197
23.6627 40.2963 69.67
23.3076 39.4642 68.0201
23.1686 39.6621 68.7322
23.24 40.1907 70.387
23.5075 40.0866 69.8475
23.5971 40.2031 69.216
22.9965 40.0946 70.3728
23.3001 40.3299 70.3763
22.9942 40.1588 71.0738
23.0048 39.544 69.177
22.7609 40.2765 71.9997
23.5084 40.5664 70.6507
22.2521 39.3311 70.6944
22.7099 40.1854 71.908
22.8732 40.3417 72.7347
22.7264 40.9427 79.6792
30.3669 51.4102 82.9121
23.2657 41.5783 74.2242
22.5401 40.3205 71.8871
21.4799 38.5121 70.7016
22.3141 39.9984 72.5337
22.1597 39.3827 70.9075
21.7089 39.0745 70.9605
21.7163 39.5101 72.7315
21.6534 38.5715 69.8491
21.3435 39.115 71.7479
21.8581 39.7799 73.2473
22.2192 40.403 73.6567
21.699 39.3467 72.219
21.3376 38.7694 71.1586
21.2215 38.9623 72.2221
21.1733 39.2866 73.3539
20.5612 37.5362 70.6788
21.0911 38.4674 70.8288
20.4489 37.9136 71.8069
20.7902 38.2075 71.0257
20.4148 38.4514 73.4623
20.9612 38.3489 72.1377
20.7729 38.1948 71.3349
20.3424 38.0402 72.1085
20.598 38.0415 71.2767
20.2008 38.2993 72.9839
20.087 37.5858 71.6388
20.3732 38.505 73.1931
19.8444 37.3724 72.2156
20.1944 37.6741 71.6077
20.0311 37.8729 71.8134
20.4115 39.7924 76.3293
20.1472 38.6375 74.9704
20.2736 38.9617 75.1153
19.6569 37.5228 73.3083
19.9499 38.13 74.0921
19.8707 37.4341 70.8582
19.0922 37.8117 74.3891
19.5061 37.7397 72.9859
18.8788 37.3202 74.8058
19.7286 38.2372 74.2365
19.2752 38.2586 76.2125
19.3121 37.0115 73.1626
18.947 36.7672 72.2032
19.0787 37.9405 75.6301
18.9848 37.2114 75.179
19.4044 37.6334 74.8509
19.379 38.0049 74.7007
18.8442 37.2914 74.4615
18.8669 37.5069 75.2857
18.9546 37.3631 75.1815
18.7076 36.5952 72.5951
18.6146 37.6271 74.5229
17.9542 36.1127 73.577
18.5195 37.2571 75.0895
18.274 37.2424 76.3309
18.1881 36.2181 73.9959
18.1516 36.2681 73.5065
18.0674 36.7177 74.9284
17.8623 36.1428 74.5523
18.1148 36.6659 75.346
18.0015 36.6045 75.9636
18.6904 37.8659 76.7508
17.7763 36.3232 75.8508
18.4579 37.7582 76.5222
17.3138 35.5385 74.5047
17.8755 37.0013 77.3672
17.4555 35.2237 73.4997
17.4717 35.6749 74.1547
17.261 35.9968 76.6258
17.8598 36.217 74.5983
17.0336 34.8785 72.3178
16.8414 35.3195 74.2639
17.0639 35.8369 75.872
17.0116 35.7399 76.1418
17.5294 36.6852 76.5412
16.4949 34.3934 73.6833
17.0529 36.0808 77.1082
17.4943 37.1993 78.2295
16.6185 35.1685 76.5353
16.8362 35.3646 76.5757
17.2376 36.1078 76.6745
16.7484 35.256 75.8902
16.9664 36.0686 77.0846
16.7296 35.7741 77.4107
17.0907 36.5779 78.1829
16.5273 35.4684 77.2093
16.4479 35.1939 77.0738
16.8739 36.2672 78.4352
16.3923 34.6546 74.1598
15.9872 35.0721 77.3389
16.307 35.1839 77.0798
16.0212 34.6058 76.7878
16.5642 35.8531 77.5039
15.7387 34.7177 78.834
16.3657 35.8963 87.3471
21.493 44.5571 86.0489
15.7452 35.1494 78.6564
16.0148 34.9471 77.6688
15.9152 34.9976 77.6023
15.9223 35.453 79.041
15.8991 34.9119 78.1098
15.9801 35.2099 77.453
15.2224 33.6018 76.1848
15.5674 34.3484 76.9543
15.3997 33.6423 74.6503
15.0919 34.0761 76.6648
15.0242 34.0173 78.7943
15.8051 34.8886 78.5163
15.6928 34.8088 77.3066
15.1322 34.1526 77.0878
14.9549 33.5337 76.2872
14.8204 33.2645 76.5439
15.1297 34.2129 78.5788
15.3106 34.1253 76.9431
14.75 33.0743 75.5441
14.8032 34.281 80.0031
15.1491 33.705 77.7135
14.9242 33.5345 76.1921
14.4996 32.8709 76.1674
14.8215 33.9897 77.9419
14.8267 33.8949 77.5347
14.3955 33.3331 78.6744
15.0258 34.4812 78.159
14.0302 32.7988 78.7649
14.6819 33.7134 79.3925
14.7144 33.57 78.2952
14.6112 33.5762 78.2903
14.3686 33.2982 77.8768
14.0059 32.5589 77.6811
14.4439 33.3402 78.4456
14.5221 33.5036 77.8867
14.0725 32.796 77.4689
13.9104 32.7636 79.0104
14.1917 32.4241 75.6896
13.9567 33.2996 79.891
14.1399 32.7158 77.9043
14.1 33.535 79.385
13.7415 32.2848 77.0962
13.8099 32.9343 79.7232
14.2474 33.3066 79.3566
14.0034 33.1777 78.7188
13.5641 32.0246 77.1045
13.5435 32.6039 79.6891
13.8997 33.0542 79.3366
13.52 31.8525 77.731
13.9003 33.6164 80.8164
13.5995 32.4493 78.6206
13.58 32.4466 78.0944
12.9617 31.2333 77.2034
13.207 31.6347 77.6206
13.3531 32.0505 77.7872
13.0997 31.7028 78.0674
13.1037 31.4313 77.489
13.4268 32.2861 78.0804
13.0702 32.4854 81.4651
13.4699 32.178 79.3287
13.2673 32.0108 78.5064
13.1351 32.1156 79.9392
13.3725 32.6233 79.8336
12.9512 31.9128 80.0844
13.1271 31.8475 79.9078
13.2113 32.4693 79.5724
12.9265 31.9584 81.2137
13.2613 32.1991 79.3222
12.6626 30.9136 77.683
12.7847 31.8337 80.7071
13.2475 32.871 81.4032
12.6768 31.0008 78.3036
12.8028 31.4475 77.2568
12.41 31.5073 80.2081
12.8363 32.3202 81.6894
12.9318 31.7603 79.7915
12.6317 31.7847 81.1872
12.9568 32.3625 80.8963
12.4732 31.8316 81.9875
12.4958 31.2129 79.9329
12.3071 30.9116 79.8231
12.5998 31.6108 79.6342
12.282 31.182 79.0479
12.1364 31.3189 80.8605
12.3898 31.4133 80.6493
12.3025 31.2785 80.994
12.1898 30.6677 79.7081
12.2459 31.0241 80.3921
12.1233 30.4771 78.5658
11.8532 30.1062 77.9986
12.1211 31.272 80.6301
12.2209 31.2294 80.6285
11.9693 31.482 83.3213
12.318 31.4293 81.5559
11.9528 32.6034 97.9429
16.2252 39.3874 91.2816
12.388 31.7072 82.8885
12.1189 31.5249 82.7073
12.0085 31.281 82.9458
12.3252 31.8753 82.6433
11.883 31.0721 82.8149
12.1476 31.2598 81.768
11.7237 30.3279 80.4338
11.6887 30.243 80.3277
11.7416 30.6447 80.2361
11.4112 29.6738 78.4189
11.4451 30.5555 81.5618
11.5302 30.3658 80.3278
11.1437 29.4264 79.9709
11.4578 29.6377 78.9822
11.4387 30.735 82.0444
11.5115 30.2669 80.9846
11.3595 30.1943 81.3004
11.2659 29.6426 80.367
11.3291 30.1696 81.757
11.296 29.4503 80.1252
11.3707 29.6333 77.5663
10.7387 29.0429 78.2985
10.8179 29.1641 79.8009
10.9691 29.508 80.6317
11.1511 29.9858 80.9007
10.9752 29.265 79.4738
10.9592 29.57 80.4504
10.8571 29.4313 81.1199
10.949 29.717 82.1269
11.0659 29.5474 81.3023
10.87 29.3211 81.7257
11.1224 29.546 80.4087
11.0096 29.8727 80.6561
10.6987 29.1529 80.9826
10.6942 28.7389 78.3261
10.3729 28.39 79.2114
10.4799 28.4605 78.4119
10.3052 28.3997 80.3273
10.7266 29.035 81.0257
10.6476 28.7435 79.4279
10.5813 29.1016 81.1697
10.6053 28.9361 80.8712
10.8802 29.9401 81.5101
10.3652 28.6271 80.0978
10.3756 28.7153 81.5287
10.5409 28.4267 78.6008
10.2732 28.4518 79.7213
10.318 28.5362 80.4485
10.4196 28.8468 79.7711
10.0208 27.9513 79.4658
10.1227 28.4369 81.4714
10.38 27.8019 77.1993
9.93967 28.112 79.491
10.1532 28.7509 81.4809
10.1892 28.4849 79.3136
9.8097 27.8691 80.3543
9.99086 28.25 81.9473
10.239 28.587 81.993
10.0665 27.4419 78.1292
9.80922 27.6389 80.1687
10.1019 28.3532 80.274
9.86509 27.7499 79.501
9.77151 27.217 78.1281
9.71534 27.8985 81.2945
9.96503 27.8424 78.9232
9.4841 26.7283 78.071
9.77295 27.5631 78.7176
9.63976 27.4865 78.9786
9.65033 28.0335 81.0959
9.60528 27.1716 80.0071
9.84436 28.2021 81.1981
9.72248 27.6968 79.8726
9.61016 27.9076 81.3233
9.42502 26.479 79.1466
9.77176 28.0736 80.4294
9.41236 26.9005 78.6907
9.38472 27.216 80.7226
9.5648 27.4207 80.3497
9.42076 26.6584 78.8203
9.48055 27.5113 80.7476
9.55265 27.4481 80.9534
9.46483 27.3765 80.7306
9.47341 27.0062 78.8323
9.21935 26.747 79.1587
9.38776 26.9658 78.0625
9.12282 27.2258 81.3165
9.41764 27.2893 80.5769
9.46836 28.0153 81.007
9.08476 26.8341 80.6326
9.33698 28.0834 82.9393
9.15967 26.7496 81.7167
9.32635 26.8084 79.4145
9.00359 26.7418 81.2066
9.09457 26.2375 78.8609
9.02713 28.1304 97.9776
12.0732 32.9508 85.0034
9.12484 27.1217 80.8099
9.01437 26.6402 79.3021
8.85078 25.8237 77.7978
8.91737 26.7584 79.6895
8.8037 25.9163 77.9056
8.75296 26.2902 79.979
8.98702 27.0162 81.6222
8.98066 26.4413 80.0206
8.99535 27.0239 81.6054
8.86236 25.9587 77.7405
8.73541 26.9202 82.653
8.89088 26.0712 79.8582
8.79946 26.1273 79.9074
8.8212 26.0435 78.3757
8.71222 26.2641 79.2783
8.56325 26.0309 80.5143
8.73205 25.9868 79.6647
8.60651 25.3634 78.676
8.74097 26.4532 79.9047
8.49807 25.3072 77.6712
8.47089 25.5176 78.6913
8.48601 25.6771 78.3571
8.47215 26.1333 79.9083
8.44736 25.6903 80.0943
8.51319 25.4064 77.7218
8.32252 25.7097 80.1556
8.47196 25.8357 80.4894
8.53804 26.0979 79.3848
8.19515 25.1504 79.6505
8.40636 25.4947 79.6885
8.40473 25.284 78.0301
8.16451 24.9674 78.4541
8.2353 25.1347 79.1183
8.49279 26.3578 80.5292
8.26149 25.3433 80.2703
8.37711 25.844 81.4034
8.3677 25.2353 77.6981
8.03752 25.1225 79.3626
8.21661 25.2206 78.8158
8.16917 25.2851 79.7714
8.15253 25.0016 79.7079
8.23015 25.1647 78.1688
7.95872 24.732 79.7109
8.20578 25.0422 77.3255
7.90815 25.0196 79.9503
8.10081 25.3344 79.7112
7.98787 24.5836 78.7087
8.01261 24.66 78.4189
7.99713 25.4363 80.9202
8.12031 25.2483 79.9187
8.00169 24.8393 79.2997
7.97755 24.5924 77.0418
7.61671 23.9678 78.8428
7.96697 24.6183 77.1243
7.66681 23.9589 77.7492
7.96802 25.1284 78.5282
7.79395 24.9306 80.2701
7.80148 24.1438 77.2038
7.64787 24.431 79.3039
7.80272 24.4697 78.8701
7.74941 24.2448 79.4282
7.9552 25.1167 80.1638
7.80653 24.498 78.2873
7.68706 24.655 78.8265
7.56293 23.7809 77.3176
7.59786 24.146 79.2319
7.79758 24.8769 79.4276
7.6016 24.085 77.8875
7.5626 23.7257 76.8098
7.46693 24.1112 78.0009
7.44511 23.5507 77.5423
7.51267 24.5757 82.2423
7.93064 24.8856 80.1155
7.68472 24.5392 78.5073
7.40562 23.5597 77.703
7.38718 23.54 78.8551
7.65631 24.3091 78.8175
7.51584 24.2337 78.3386
7.44927 24.007 78.811
7.46023 24.2445 79.0454
7.38407 24.0274 80.658
7.63732 24.1323 77.2518
7.15398 23.1195 78.0129
7.43516 23.773 77.937
7.38368 23.8854 79.164
7.37178 24.0785 79.6508
7.4179 23.7904 79.2965
7.41883 24.0162 79.0607
7.30262 23.2169 76.507
7.15102 23.1427 76.8441
7.2857 23.7148 76.7454
7.11733 23.7694 79.2451
7.21116 23.0946 78.0511
7.35929 24.0934 77.3736
7.04181 25.3971 102.067
9.93865 29.5198 82.4876
7.24008 24.1221 79.4023
7.09572 23.7677 81.114
7.32717 23.3225 76.7373
6.98137 23.0524 78.4893
7.17245 23.2974 76.8319
6.94529 23.0299 78.2689
7.1547 23.3922 77.9957
7.11541 23.5163 76.558
6.8358 23.061 78.4834
7.01686 22.7317 76.1852
6.87705 23.093 78.6291
7.01899 23.4383 79.9896
7.0854 22.6361 77.7856
7.05509 22.9204 76.2116
6.81364 23.1164 80.9554
7.24366 23.305 75.9893
6.79941 23.2026 79.6567
6.99183 22.3989 75.7553
6.82394 22.8146 76.2243
6.76457 22.8408 77.2777
6.81841 23.0406 78.7306
6.87305 22.8443 78.1688
6.84864 22.5186 75.8018
6.67357 22.3087 76.7369
6.7867 22.7507 76.8003
6.71646 22.7979 76.5616
6.53591 22.0278 78.4723
6.91503 22.5212 76.3295
6.71563 22.5892 77.0209
6.72919 22.8673 76.6616
6.59476 22.4494 78.8303
6.85029 23.0299 79.7332
6.96939 23.4261 79.2033
6.69378 22.3084 78.3965
6.87517 23.1238 78.3428
6.67219 22.2764 77.4838
6.79248 23.2739 79.7885
6.81615 22.8728 78.629
6.69093 22.6035 77.39
6.53369 22.3222 77.9936
6.63122 22.0311 75.4465
6.44127 21.9839 77.8227
6.66473 22.5066 75.8663
6.33373 21.6836 76.775
6.5274 22.0025 75.8055
6.39964 21.7759 75.8867
6.39181 22.0153 77.6638
6.55735 21.7504 76.0083
6.49762 22.3616 76.3012
6.35906 21.9312 77.5139
6.48846 21.553 76.7461
6.54107 22.3299 77.1006
6.42442 22.1511 76.7294
6.39161 22.1715 76.9565
6.33808 21.2933 76.9704
6.46561 22.1879 76.6313
6.35634 21.7894 78.2037
6.61719 22.4522 76.383
6.31811 22.2353 78.617
6.46305 22.1137 77.7877
6.4685 22.2565 77.6894
6.37356 21.7277 76.904
6.4235 22.4928 78.685
6.33216 21.3437 75.7994
6.22596 21.7494 77.3858
6.31882 21.8048 76.4251
6.16835 21.0601 75.3969
6.29247 21.9737 77.0553
6.19619 21.437 77.8977
6.4411 22.0455 77.4025
6.23749 21.3476 74.4054
6.07925 21.5084 76.6782
6.234 21.4276 75.9107
6.21223 21.8782 76.3931
6.17455 21.5948 76.7003
6.11692 21.4193 77.4112
6.22336 21.5888 77.0799
6.19622 21.5663 77.3247
6.21439 21.4608 76.1372
6.11242 21.4945 76.4503
6.15254 21.5454 76.7392
6.09241 21.5128 76.8745
6.11135 21.6598 77.6069
6.18118 21.3068 76.4457
6.09683 21.8812 79.9027
6.3333 21.7808 79.41
6.31083 21.8027 77.0041
6.15229 21.7249 77.2373
6.09089 21.6511 77.7274
6.09959 20.8466 74.3085
5.90247 20.8075 74.9626
5.91035 21.3492 76.5842
5.98642 21.6782 79.308
6.14881 21.4528 78.53
6.20977 23.7455 103.858
8.55022 27.5276 83.8621
6.39301 22.5911 78.501
6.0964 21.4581 77.6528
6.08067 21.8254 77.0307
5.92122 21.4817 79.1973
6.14436 21.0258 76.3051
5.98081 21.6174 78.5916
6.10045 21.5053 77.579
6.07676 21.5586 78.0635
6.01564 21.2876 76.7677
5.90598 21.05 76.067
5.81948 20.5127 77.285
6.0481 21.118 75.4361
5.82966 21.1153 76.4055
5.82787 20.8861 74.9531
5.68157 20.417 76.5371
5.86287 20.9905 76.8575
5.88547 20.7917 75.5838
5.75022 20.7975 75.8305
5.70959 20.4249 76.3497
5.82774 20.3621 75.9583
5.86391 20.7034 74.6617
5.7403 20.8388 76.5353
5.82386 20.9524 75.1167
5.6361 20.3333 77.2881
5.97163 21.4298 75.4452
5.6296 20.4014 75.9107
5.74835 20.7061 76.5831
5.78595 20.7471 75.375
5.66774 20.4472 76.847
5.85192 21.027 75.4655
5.61232 20.1633 73.2967
5.49395 20.0204 75.4025
5.71427 20.5295 76.2497
5.72884 20.5524 75.4933
5.62426 20.24 76.6975
5.7382 20.7856 76.998
5.74517 20.651 76.317
5.7351 20.6322 76.2132
5.65953 20.0842 74.82
5.59785 20.7379 78.3267
5.79105 20.3911 74.2244
5.54262 20.4696 76.6503
5.66718 20.0644 73.952
5.52484 20.1412 75.2166
5.59998 20.4154 73.0906
5.36233 19.6974 75.3737
5.6327 20.5821 75.3972
5.52481 20.0046 73.7006
5.42359 20.4097 76.523
5.5873 20.1431 73.398
5.3931 19.6736 74.04
5.43651 20.0284 75.6816
5.52422 19.9623 74.508
5.45995 19.8267 74.5062
5.45674 19.5329 73.8657
5.43797 19.8502 72.8204
5.32333 20.1535 75.3744
5.4556 19.8258 75.728
5.52614 20.2859 77.1357
5.63517 20.0972 75.9404
5.55095 20.6385 76.4821
5.52868 19.6149 72.3146
5.27609 19.8677 76.4547
5.61191 20.7367 75.5946
5.40266 19.7311 75.2492
5.44725 20.0402 74.9052
5.3855 19.8188 74.3864
5.37293 19.675 74.223
5.37175 19.8325 75.1862
5.43498 19.7222 74.2495
5.31547 19.373 73.4667
5.30299 19.6883 75.5812
5.42145 19.6676 73.0749
5.26228 19.7461 75.1412
5.39106 19.8097 75.7028
5.40764 19.4786 73.0218
5.2642 19.5473 76.3449
5.45906 20.067 74.924
5.33744 19.8359 76.5345
5.45891 19.4757 71.8932
5.18102 19.6672 73.9254
5.26155 19.9543 75.6415
5.3416 19.4235 71.628
5.07658 19.2405 75.4001
5.34729 19.6865 74.3678
5.26877 19.7381 74.3839
5.25315 19.2899 75.1459
5.3108 19.8155 74.6843
5.23996 19.2919 74.4154
5.26408 19.6605 73.3797
5.17536 19.2131 73.635
5.1682 19.4268 73.2376
5.15255 19.4177 75.3612
5.28962 19.3898 72.2662
5.11708 21.7447 100.641
7.1346 22.9314 74.4662
5.19738 19.9066 74.7949
5.24328 19.5761 72.3602
5.04733 19.3567 74.2585
5.1946 19.1666 74.8748
5.27799 19.8261 73.4249
5.09165 19.4697 75.7951
5.26525 19.3522 72.9592
5.07816 19.3526 75.0075
5.17246 18.7849 71.8827
5.03531 19.2262 72.5846
5.0468 19.426 76.2537
5.26101 18.7115 71.4911
4.98447 18.7742 73.4338
5.10508 18.7615 71.6393
5.01265 19.439 74.7582
5.13715 19.2774 75.5643
5.22008 18.8986 72.104
5.0014 18.8576 72.1482
4.99038 18.8482 72.9621
5.13166 19.2217 74.034
5.08662 18.7948 72.4267
4.99473 19.2296 74.5834
5.14783 19.1933 73.2658
5.05095 18.9743 74.4001
5.12344 19.051 73.1866
5.02794 19.0497 76.116
5.22813 19.531 74.8237
5.17226 19.1856 73.4654
5.03643 18.8258 71.6634
4.94927 18.9754 72.8219
4.96887 18.8419 73.1925
4.99602 18.8365 72.9721
5.0216 18.8742 73.6864
5.00113 18.829 73.789
5.08891 19.0895 72.8949
4.97301 18.9775 73.399
5.01989 19.2964 74.6042
5.04261 18.8695 73.1387
4.94747 18.6409 73.6105
5.0459 18.8709 72.5902
4.96709 18.9908 73.5697
4.94677 19.0744 74.0945
5.01841 18.876 72.8302
4.87144 17.8439 71.668
4.88534 18.9458 73.2944
4.94316 18.4292 72.0957
4.91845 18.7157 72.4222
4.95711 18.9104 74.5041
5.05403 18.8146 71.9435
4.88692 18.6902 73.222
4.96419 19.0974 73.6459
4.94858 18.7363 73.0644
4.92976 18.8047 73.2366
4.93835 18.7408 72.7226
4.8921 18.7021 75.2314
5.06434 19.3701 73.6501
4.92677 18.72 73.302
4.92411 18.5102 70.5177
4.70625 18.1567 74.1728
4.99073 19.065 74.8548
4.98755 18.3687 70.8745
4.75927 18.7705 73.593
4.92421 18.6932 74.0254
4.9508 18.8673 73.8089
4.92831 19.023 72.2232
4.83253 18.6063 74.9634
5.01717 18.8369 72.2784
4.84857 18.274 71.8258
4.78243 18.2775 70.6384
4.72518 18.139 71.1364
4.7437 18.6146 72.5555
4.82752 18.9469 74.1037
4.92065 18.7033 74.3749
4.96737 18.4661 72.4124
4.79709 18.3449 74.0591
4.95024 19.1482 73.5584
4.85296 18.2713 71.9282
4.75164 18.1893 73.19
4.84087 18.7167 74.4632
4.9406 18.7099 73.2782
4.86661 18.7802 72.7891
4.84895 18.7256 72.3085
4.78231 18.4881 72.5949
4.77482 18.121 72.2601
4.82366 18.3277 71.2487
4.71596 17.7809 71.493
4.74985 18.7014 72.9742
4.80995 18.4781 72.7442
4.84754 18.7238 73.723
4.86515 18.1376 72.1043
4.79046 18.3924 72.8818
4.80772 18.3022 71.6133
4.70165 18.4014 73.89
4.87909 18.9674 72.8579
4.78926 21.175 102.471
6.73443 22.1938 73.3439
4.78318 18.8756 73.3667
4.7841 18.6194 71.6575
4.70465 18.6037 73.9257
4.8428 17.929 70.5958
4.66942 18.7885 74.5747
4.85666 18.5809 71.8202
4.69988 18.4669 72.9217
4.80622 18.1941 71.6254
4.67132 17.5808 71.0261
4.67867 18.2273 71.4061
4.68809 18.74 75.1251
4.90283 18.4339 73.0523
4.80078 18.3291 73.9505
4.81223 18.1118 71.9475
4.7126 18.4711 73.5143
4.80157 18.2304 71.3108
4.65646 17.7188 71.533
4.6737 18.2344 69.9497
4.56212 17.6419 70.4028
4.61911 17.8267 71.7633
4.68148 18.2436 71.303
4.64952 18.1578 72.6673
4.75677 18.2447 72.4562
4.71723 18.3761 72.7781
4.71428 18.2265 72.6951
4.7455 18.1292 70.6968
4.623 18.5676 73.9286
4.80269 18.6506 72.4504
4.71599 18.6746 74.9442
4.89096 18.4809 72.4331
4.72206 17.9748 73.8064
4.8023 18.275 72.6023
4.69587 18.2647 71.7614
4.65447 17.9729 71.2409
4.65986 18.4378 72.5209
4.72799 18.3619 72.1509
4.69466 18.2271 72.2788
4.68475 18.1518 73.148
4.70764 18.2334 72.3814
4.66612 17.8529 73.0151
4.74485 18.5435 72.9502
4.73755 18.259 73.1892
4.6966 18.4074 73.5699
4.75153 17.969 71.0272
4.59313 17.5818 69.7731
4.51921 17.7799 70.9483
4.59878 18.6753 74.4136
4.80813 18.3428 71.7056
4.69182 17.9886 73.083
4.73781 17.8098 69.7407
4.52449 18.2181 71.979
4.67548 18.2539 71.0308
4.59764 17.5224 71.7561
4.6653 18.0237 72.9716
4.73502 18.3039 72.4398
4.69936 17.9 72.739
4.68768 18.149 72.5208
4.68826 18.09 72.6542
4.69239 18.2751 72.7683
4.6813 18.3383 72.7515
4.69721 17.9702 71.8627
4.67547 18.6138 72.6236
4.68408 18.1159 71.12
4.65179 18.1518 70.8926
4.60045 17.7844 72.5756
4.67256 17.9835 73.2315
4.74457 18.0241 71.1307
4.59894 18.5189 72.541
4.66818 18.0982 72.1154
4.67345 17.7595 72.403
4.70279 18.3072 73.8651
4.77035 18.3671 71.0115
4.57921 17.6884 70.6771
4.55285 18.1094 72.0347
4.6565 18.0346 72.04
4.69118 18.0187 71.3757
4.59496 18.2633 74.4266
4.8143 18.2852 72.8528
4.6658 18.6031 72.6264
4.66167 17.786 72.4315
4.66528 18.4836 74.2641
4.79271 18.3502 72.4966
4.71051 18.1774 72.7372
4.69554 18.1021 72.5126
4.66478 18.2161 73.2383
4.73146 18.2966 72.4786
4.64738 17.8877 72.1718
4.66587 18.8278 72.1627
4.67715 17.6115 73.1987
4.72493 18.2351 74.2544
4.78765 18.5968 73.0346
4.73976 18.6278 73.1574
4.69538 18.8992 76.2863
4.89951 19.2716 77.0527
4.9264 21.7171 101.351
6.54324 0 0