# pn-170911/RbIIR-44-WTZR-1280-1959.psd
# Power spectrum* (dif=0,1,2) (really just |FT|^2)
# NOTE: only the first half! (symmetric)
# weeks: 1280-1959
# 18 clock-days, 1 excluded
# PSD: 1441
4602.19 0.0876245 0.102724
182563 5.99583 0.0877018
253307 3.91926 0.147745
78166.3 1.09163 0.136594
60471.4 1.7875 0.125288
27626.1 0.638082 0.164665
17184.1 0.618737 0.107914
11353.3 0.749594 0.182079
10039.8 0.895099 0.143645
8777.62 0.759483 0.177369
6489.92 0.849309 0.121623
5312.45 0.523889 0.143557
4412.87 0.743584 0.146658
4411.53 0.734363 0.104017
2598.61 0.643336 0.148126
2688.53 0.636603 0.106712
2317.69 1.02843 0.141493
1950.9 0.540644 0.117541
2176.9 0.810873 0.0750066
1540.25 0.723076 0.110613
1050.92 0.8113 0.086252
1478.23 1.27342 0.111941
1738.46 0.844891 0.122772
2165.96 1.97169 0.0798134
1620.71 1.85707 0.194816
1228.55 1.80656 0.106137
1168.09 1.04699 0.187641
1509.68 1.60406 0.102486
1344.54 1.96585 0.139207
1194.37 2.11663 0.22248
1184.55 2.3114 0.119042
802.241 2.4165 0.236057
1117.22 3.0397 0.130766
1034.09 2.08579 0.156188
1263.1 3.52976 0.161792
606.146 1.64816 0.151532
1025.24 3.61249 0.147585
817.533 2.65532 0.139584
989.409 3.10721 0.163654
1019.11 3.51318 0.11163
536.149 4.23367 0.135257
873.319 4.58042 0.12062
779.806 3.17473 0.143575
939.755 5.03081 0.12783
892.633 3.91165 0.0804659
764.567 2.98182 0.14865
595.376 4.26045 0.0708829
744.248 4.74808 0.206692
608.135 5.10207 0.152338
806.111 6.53274 0.185738
575.362 6.42773 0.185858
513.886 5.99145 0.184105
636.932 5.14815 0.252577
637.61 5.01155 0.145346
500.929 3.59574 0.191712
517.865 5.82579 0.210877
805.221 6.24039 0.192556
587.623 6.08775 0.315145
611.21 6.49055 0.279935
456.246 6.50551 0.243706
361.193 4.70022 0.247668
622.843 8.59708 0.291006
869.617 9.85965 0.362763
550.447 5.30142 0.192054
363.366 5.04855 0.322868
568.086 7.31023 0.258849
513.407 8.04583 0.198785
396.232 6.0168 0.246274
444.296 7.21609 0.269324
452.477 8.1428 0.27261
548.79 10.1237 0.290083
488.528 6.92476 0.363629
267.215 6.44011 0.245925
629.472 13.064 0.3991
456.099 11.3233 0.53481
398.527 8.87871 0.373134
568.63 10.6481 0.542845
311.235 7.00989 0.328558
757.05 17.8189 0.577312
282.495 6.93941 0.212812
308.257 7.53762 0.409449
278.374 7.62611 0.353912
450.202 9.69237 0.331317
347.12 11.5427 0.553339
465.199 12.7576 0.48901
316.711 9.08929 0.388956
345.031 10.9038 0.385114
283.174 9.25458 0.344309
451.869 12.0202 0.514411
441.405 10.2089 0.628394
281.767 8.11461 0.321244
311.672 10.7452 0.527671
321.897 9.71236 0.479808
360.69 12.8412 0.375579
298.394 8.8311 0.470803
446.042 15.5764 0.732776
426.151 17.7858 0.729465
311.384 12.4987 0.860599
195.688 8.74812 0.510729
296.572 10.0526 0.546806
324.723 12.7287 0.770729
302.925 12.8184 0.720347
206.835 12.0248 0.790109
359.1 13.6206 0.712109
210.074 9.63309 0.583572
178.226 7.41439 0.421278
467.646 21.5253 1.15428
306.402 15.6693 0.838312
298.956 17.3801 1.09519
399.219 19.0937 1.22932
204.659 11.5722 0.642854
249.833 14.2651 0.853711
320.919 14.594 1.02728
321.033 13.1318 0.969717
246.341 15.8621 1.02731
211.149 16.1141 0.962549
250.282 13.6231 0.974634
190.175 12.5735 0.872101
233.37 12.556 0.933098
211.314 13.3487 0.868673
244.203 12.8712 0.740944
257.333 12.8658 1.17277
327.153 17.536 1.5429
211.174 12.5432 0.982591
360.934 23.0608 1.5008
208.383 13.308 1.09955
201.131 16.5408 1.48555
211.991 12.0686 1.07626
221.961 16.5348 1.63602
347.58 20.7262 1.78287
287.402 19.5601 1.52496
220.07 14.6081 1.2741
162.695 9.82956 1.03117
197.363 14.3059 1.39639
235.525 14.104 1.25427
207.361 13.7624 1.15925
181.269 14.7002 1.3518
217.292 16.7118 1.41195
109.041 9.11962 0.970883
198.42 13.9723 1.33256
150.486 12.903 1.31168
185.078 14.9665 1.23723
139.886 8.09615 0.917856
215.888 16.427 1.66273
216.542 17.7783 1.5973
188.705 16.225 1.63959
136.985 11.4993 1.28497
208.872 19.4823 2.16943
190.483 17.9017 2.1075
201.169 14.7283 1.74523
211.238 19.9271 1.94057
113.46 14.8914 1.77916
195.286 22.3943 2.42819
149.164 15.9832 1.72717
233.106 18.4537 1.8712
145.861 16.9465 2.29132
185.478 17.8386 1.69554
136.52 14.6017 1.63774
150.846 12.2351 1.52166
131.305 14.6701 1.87645
119.868 9.88304 1.13571
172.994 18.956 2.17339
182.603 17.6855 2.10298
183.486 22.3818 2.93147
176.876 18.347 2.3947
171.102 19.3685 2.51855
134.635 13.351 1.68832
195.951 23.003 3.12315
176.412 19.1947 2.51559
206.245 28.6791 4.2908
188.153 20.2005 2.88054
146.924 16.6433 2.18739
172.673 20.9044 2.7499
129.991 15.9891 2.41891
119.613 15.4085 2.53005
193.379 22.0284 2.91765
101.79 11.3343 1.67242
106.392 13.1056 2.22231
128.41 16.0271 2.49786
95.5004 10.3455 1.49957
131.162 18.0531 2.52466
163.252 22.4071 3.43018
136.672 19.1421 3.34914
114.694 15.794 2.35674
152.519 22.7227 3.39731
121.054 17.2996 2.76205
151.18 21.8856 3.45065
115.278 14.7251 2.415
107.937 14.458 2.56361
94.3104 12.6596 2.4062
71.4639 10.1132 1.79768
107.178 17.0605 3.38904
301.098 57.0174 8.86068
104.887 18.206 3.41703
85.9189 13.3979 2.33013
123.031 21.8111 3.71242
80.1257 14.337 2.48009
116.142 18.0794 3.48296
134.728 21.1109 4.00285
109.209 15.0328 2.67846
115.588 17.1103 3.07481
64.3127 10.6032 2.23239
92.8613 16.2895 3.37178
81.0039 11.7929 2.62005
146.744 28.0372 5.65557
144.816 21.8222 3.87972
96.656 19.1871 3.75508
143.182 23.804 4.96786
112.527 22.642 4.37624
94.1902 17.2076 3.34981
85.2491 13.1638 3.0646
91.7033 19.3995 4.08433
107.321 17.681 3.66859
90.5485 14.4876 2.73114
153.987 26.4589 5.76359
103.138 16.9162 4.16238
118.89 22.6224 4.75085
153.995 28.3076 6.10831
106.58 21.9914 4.99299
101.18 18.8179 3.64819
127.17 26.9485 5.65039
81.2988 15.0954 3.22545
153.348 30.3754 6.55877
117.246 22.1138 5.17778
83.3747 17.5362 4.68144
92.5613 16.5845 3.88171
41.6164 12.2252 2.82439
104.707 22.2277 5.09966
99.4835 20.3065 5.55499
79.0125 15.1901 3.65175
132.693 28.7774 6.97934
99.8023 26.9368 6.54769
88.8325 22.2862 5.73119
114.174 23.9571 6.04276
105.39 23.5915 5.51241
57.5057 11.1289 3.10485
157.47 37.7673 9.44448
96.3202 22.5317 5.86153
85.4426 22.2821 5.77494
105.207 20.4724 5.89283
120.603 25.5481 6.90565
69.5838 16.1355 4.77699
82.6911 20.6213 5.7569
64.2207 15.7891 4.17826
76.7432 20.6429 5.02111
83.3451 22.202 6.12594
111.278 29.832 7.95922
68.8029 19.5606 5.30961
76.9211 20.3427 6.32
81.1028 19.4082 5.6836
77.3682 18.4947 5.2022
99.3679 24.2161 7.29217
76.7526 21.4568 5.97329
82.5009 22.9043 6.32932
56.4941 16.2692 4.63804
95.9072 24.0607 6.75388
100.983 30.39 9.65821
80.5854 28.1393 9.24151
85.0749 24.0146 7.647
54.5142 16.1658 5.28226
63.2787 21.4227 6.4571
101.274 27.1509 8.57458
73.1919 18.6004 6.28481
87.872 31.468 10.4023
68.7892 15.3989 4.07035
78.9763 22.9938 8.05819
59.8837 15.6266 5.18038
71.2662 22.8739 6.99354
69.9255 19.5815 6.59044
68.9795 19.0556 6.37103
78.8771 17.5356 5.61311
58.1192 17.0563 5.58826
64.577 19.9756 6.30966
48.1227 16.4403 5.51603
69.9937 20.7522 7.46966
95.4392 27.9755 9.72392
64.4137 17.9136 6.71832
85.4625 29.3314 11.0341
47.1274 13.49 4.73922
62.8738 21.7061 7.74579
64.4492 25.7151 8.68032
70.3628 21.8648 8.58075
66.7848 24.996 9.40641
63.8556 19.5094 7.60573
72.4697 23.7323 9.36921
65.7048 20.8438 7.4187
56.258 22.3713 7.88038
81.473 27.6176 11.6165
175.301 59.3 21.2094
51.6806 18.9125 7.20464
58.9774 24.7556 10.1981
73.8284 26.1327 9.70758
65.4079 24.5296 9.81078
67.3953 25.3354 9.33397
53.6598 21.5032 8.73868
92.6658 35.9067 14.0909
42.8311 17.0411 7.0734
54.79 16.7376 7.49448
71.8554 24.046 9.44319
48.7727 20.0204 8.55138
83.1452 27.5219 12.849
60.2801 20.092 7.22879
80.5341 25.6751 9.93411
40.1808 13.8226 5.26407
37.9406 14.4021 7.24039
54.1105 18.8647 8.53937
61.5485 20.2821 8.27954
47.6784 16.7384 7.96694
78.3925 32.9978 13.0918
42.7607 14.4438 6.42622
37.2203 13.537 6.78532
59.8923 24.941 11.6538
64.3227 29.3701 13.2032
67.8696 25.1865 9.58349
51.6456 21.5712 9.96711
52.3388 23.7215 11.1686
42.8976 19.5043 10.623
79.5541 30.7577 11.6885
40.1493 18.9821 9.01386
46.3837 22.0555 9.98729
59.6886 26.8309 12.855
50.399 21.6598 10.4186
65.3981 25.7573 11.4452
38.6995 21.2577 10.3863
64.4755 32.388 17.8768
81.4008 29.3502 11.4363
53.7049 24.695 11.0624
59.223 24.8714 11.0607
66.1396 28.6374 15.6751
56.5687 25.0426 10.1775
45.0685 24.1311 12.3998
58.9223 25.0909 12.4996
47.8633 24.1876 13.2575
58.9074 20.4723 9.64705
42.9363 18.8001 9.86703
47.7602 19.0796 10.029
59.3488 24.6761 12.1143
83.4124 39.9065 20.4576
42.818 26.9176 13.9976
54.6804 32.1055 19.3741
65.1187 27.9809 15.0765
46.3717 20.4613 10.5854
41.2503 16.4008 7.80892
43.1079 21.5334 11.5479
45.6 28.5326 14.995
45.3243 22.253 12.7105
44.4725 21.8842 11.0585
38.8704 15.7822 9.59878
47.6897 28.1731 15.9089
53.9562 24.1626 11.5332
54.2155 30.6596 17.7196
34.2499 15.4002 7.75257
56.195 34.4426 19.9998
45.6873 25.2052 15.6425
57.0046 28.1165 14.5452
42.9232 21.7542 12.1705
46.3216 25.9571 14.0217
49.1286 26.5301 15.3354
39.5535 21.6483 13.6884
46.0779 23.1241 12.8546
30.3327 16.4493 10.9468
38.8856 17.5514 11.1773
29.4913 14.3514 8.03161
52.4043 24.6419 14.6737
57.6702 29.9395 16.7541
51.2723 30.1328 17.2855
36.9493 23.2419 14.4733
52.5536 30.0165 17.4622
32.9284 25.2058 16.1731
47.1534 25.0519 16.1939
54.4545 30.3771 19.3516
38.8873 18.2295 11.0843
29.0749 19.434 11.3242
39.1043 23.3574 15.798
54.6392 31.6391 16.0782
41.6231 28.9682 17.8832
17.5968 14.7241 11.7627
39.1405 19.3419 12.7929
41.0826 20.2491 12.6789
36.166 24.923 17.1788
32.4136 24.8963 18.4968
30.9671 17.1392 11.3782
51.7796 30.6367 21.3112
40.9875 27.9234 20.933
129.562 68.5928 38.7025
40.2002 26.873 19.7909
47.1548 30.0764 19.8511
28.0155 16.6373 11.3283
27.655 18.4519 13.5873
34.301 23.4743 15.5874
40.6156 26.5732 17.7474
36.8057 20.8624 13.6209
34.5844 22.942 15.2339
22.4304 14.9678 10.9956
35.3273 23.3672 15.4398
30.4683 22.1892 15.2025
38.9454 24.2876 16.719
37.6942 23.0117 15.622
42.1045 27.6574 20.9389
38.8344 23.0274 18.1935
31.0502 16.0948 10.4308
29.6446 17.1883 10.5166
25.4299 21.6375 16.75
32.4648 17.928 12.798
31.926 27.1298 21.1536
38.9934 24.6058 18.673
31.2787 25.5119 19.7218
49.9127 35.013 26.5833
43.84 31.0695 19.9533
22.5287 14.414 10.661
34.696 22.3344 14.9085
22.9541 19.1891 14.7833
24.2345 18.3708 15.827
37.9141 21.9613 17.675
36.5019 27.795 23.6309
37.9853 21.2371 12.2449
45.6173 39.6522 32.3825
43.3829 23.6556 16.3953
33.0072 26.7916 21.1082
36.1254 23.1308 18.2717
33.5106 25.8639 21.0809
37.2225 23.3645 17.1904
47.7982 30.7815 24.1376
42.8409 31.8341 23.2559
28.3437 24.1069 18.8724
12.9048 12.8778 15.4501
40.7324 31.4382 20.843
25.4103 22.8655 20.4826
35.6381 18.4154 15.6167
36.9727 24.1342 15.6382
30.3956 27.9109 25.4212
43.5777 34.0765 30.3861
40.6265 20.7434 14.8299
29.2738 26.1223 22.5776
38.7594 28.8126 21.8123
19.4284 14.6852 13.1898
31.0294 25.9103 22.445
30.5948 21.8745 18.732
22.3091 18.57 15.2693
25.4351 27.281 26.3343
31.6384 22.3114 16.4594
28.1194 24.8704 23.9644
35.6916 27.8845 23.6483
33.6844 27.2907 24.4591
30.6871 21.5321 20.7082
35.0831 25.3671 20.7185
26.8198 18.9703 17.9825
34.1199 24.5769 20.7441
35.0281 31.9809 27.506
40.8698 27.2718 24.8412
27.1367 30.6722 31.5465
48.7998 31.315 21.549
26.576 19.6298 18.3052
25.7238 27.2359 25.3541
31.8927 19.3279 13.5573
34.7224 31.6419 25.3984
22.0353 21.0359 21.0083
23.3826 15.9782 16.0116
21.8043 19.7274 17.5709
36.1297 29.3933 26.331
27.0842 23.5892 24.5999
39.2387 31.5974 27.7714
49.0371 42.0722 37.3189
24.4169 21.6292 18.8754
21.4691 25.7148 23.7029
18.7982 20.5704 24.2827
34.4144 25.8038 22.384
22.5239 14.8655 12.923
33.0617 28.6058 24.9942
23.4408 23.8814 25.791
36.0837 31.9317 28.2326
26.5293 23.2236 21.5927
20.3778 19.0948 22.8533
27.9794 21.9657 18.6395
24.7105 22.7032 24.3277
29.6052 31.5297 30.8908
30.7281 26.9244 32.403
40.2133 33.2346 30.2871
26.4867 21.5106 24.3203
44.9682 35.184 31.5025
79.4257 68.7372 59.2623
18.3176 20.2338 20.6786
23.5317 21.5932 24.8952
27.1953 23.5191 25.2956
36.8854 29.4309 26.348
23.7677 21.1492 19.6715
12.8524 15.5926 17.4859
30.5872 24.7376 24.1494
19.3897 19.4505 18.7992
13.9775 11.3991 12.946
17.1033 15.0077 15.0313
26.9699 28.3171 30.0648
22.4243 21.2398 24.6496
16.4922 12.9094 11.0103
14.9982 18.0998 23.7005
26.3098 27.4502 32.7001
25.2682 20.3968 17.9667
21.5348 22.2885 26.1138
27.2492 20.5982 20.6445
26.952 25.5018 26.4246
22.1038 24.4989 25.0414
19.5634 13.6552 13.4906
17.6342 15.8629 19.6683
19.3637 21.0209 24.8447
28.4136 28.0763 28.0426
24.9467 23.6865 22.5071
18.4934 16.9048 15.5512
17.0436 22.5952 26.3432
15.9331 17.7249 22.6984
18.859 19.6987 23.3331
20.2752 21.8597 26.3306
25.2152 19.8851 21.6954
14.7996 17.0056 22.8448
18.8658 19.6709 23.8689
37.0589 31.7189 31.4137
33.4791 35.9812 35.0973
29.9189 35.1695 38.3966
16.3407 24.6818 29.2071
22.9329 25.009 31.7648
27.5827 22.8631 27.5862
27.8208 26.1003 27.6923
28.4153 22.2144 22.1006
15.0261 18.6024 23.6904
18.6406 16.5787 16.3244
17.0655 25.6165 31.8511
24.1571 22.425 26.5584
23.8014 25.4025 32.3309
30.846 28.7011 35.3597
25.3908 21.5341 22.9137
22.0318 16.1274 17.7353
15.1639 14.2488 15.7096
12.2397 12.3047 18.4689
28.9116 31.7441 33.6527
13.1519 14.989 23.3051
27.2999 24.6878 25.9605
30.9995 34.5748 39.4425
20.5588 21.5813 26.9963
18.3288 20.9188 26.901
15.8789 18.3411 23.6398
22.0006 22.9562 24.9693
17.9568 19.59 26.9815
18.6351 16.5922 16.8309
21.4281 28.3613 34.8565
20.4365 19.4199 24.0302
21.9784 29.5244 35.6207
16.4046 18.7549 24.775
19.4935 22.5399 34.7159
31.3205 29.3116 29.6183
15.8714 16.5023 19.8855
23.1802 28.1472 34.5405
14.6284 21.0073 29.6606
21.2075 27.1398 34.4655
16.3864 21.3613 28.5913
24.8526 24.4668 31.4841
21.5885 23.4936 29.7291
22.6103 21.5231 22.44
12.7433 21.4162 33.3323
21.2865 20.8385 24.7412
17.1868 19.9117 25.39
24.8964 32.6186 44.1076
25.0757 31.2976 39.0581
29.0487 37.853 51.707
23.4051 25.1184 31.2638
16.0597 18.8594 25.4363
22.8361 33.7087 47.0053
18.7137 18.8869 28.9231
23.9578 26.167 34.8241
18.7638 15.5225 19.4137
20.573 22.3195 31.4632
23.9288 29.3153 33.8635
17.9746 22.4328 32.6154
18.7835 23.762 36.4808
18.5096 20.8806 26.8596
12.9202 18.9082 33.1215
26.2624 25.9529 30.1489
25.4794 36.6321 67.3523
59.8829 76.3306 80.5992
19.5522 25.1239 40.4215
22.1269 29.3634 37.0543
16.986 23.7433 31.2113
13.224 16.0146 22.0519
16.426 23.2139 33.9259
24.5568 25.9282 35.2066
16.6597 22.1473 35.3621
11.112 17.648 26.0133
12.8582 16.1577 23.225
14.3103 20.1922 29.9961
15.5602 24.679 29.4339
13.7914 21.7943 37.5186
18.1251 16.6374 19.0367
14.6441 22.6267 33.4593
16.4683 15.9949 20.1856
9.80264 10.3806 16.3228
13.932 17.6687 25.819
14.1191 21.6123 35.8646
14.8873 18.3969 25.8797
16.2484 21.5365 31.7681
17.3514 27.4977 35.1308
10.3286 15.2537 25.1862
10.7138 19.451 36.091
23.7443 29.3921 42.6766
20.0183 21.8675 26.5437
17.8395 25.939 39.0301
17.1661 18.5392 29.5021
18.4825 26.1795 35.5903
15.4362 22.9679 39.0665
19.2133 23.28 36.4427
14.3234 17.5499 25.9038
14.7681 14.5292 21.5479
20.6792 27.137 38.8952
12.3236 15.0899 23.2554
16.2671 19.0084 26.5324
12.4783 19.9371 33.0024
14.1311 16.1647 22.9674
14.9288 16.0709 19.6033
15.6616 26.1506 39.2791
18.7582 31.9103 52.5178
16.6927 21.5146 33.7442
19.3273 24.5031 40.4421
15.4005 22.6776 39.6507
16.7866 21.6021 26.2393
10.5398 17.4384 30.0194
15.9703 19.2082 30.8172
13.361 19.547 35.7714
19.8225 30.7641 48.9686
16.9857 17.9519 19.1128
13.1808 16.2699 22.7204
12.847 18.5456 32.4512
10.9592 14.565 25.4414
21.2466 29.9094 43.3191
17.4875 28.4392 45.1862
16.8077 24.3013 42.3887
15.2795 18.301 30.5082
16.2672 17.2716 23.1185
17.4724 26.7943 46.3798
8.05545 8.59476 17.4536
12.9309 17.6957 28.3448
22.3949 28.1883 37.3843
12.9688 16.8734 25.7582
11.0971 16.6208 32.1617
15.8226 25.8682 44.3126
13.9907 20.1343 28.0636
11.4141 21.1097 41.8828
26.1721 39.3469 58.7504
9.98732 14.7399 24.6977
10.9143 20.4031 41.6462
18.1669 16.5242 24.5755
24.5733 40.8538 58.3425
12.3224 27.6722 55.1575
23.8016 32.7186 61.6372
15.8343 24.4769 41.5083
20.9065 24.2485 33.6559
13.7495 23.4238 36.1532
14.8392 23.6754 39.1923
13.6857 24.015 48.0328
15.0307 16.1811 20.1692
14.8675 29.0159 47.6672
9.05745 13.3277 24.3343
13.1189 22.9936 46.2132
14.7085 22.2942 39.4915
19.9459 32.2076 47.2759
11.4344 14.9763 20.4524
7.16238 16.7992 41.1061
11.1196 16.9361 32.1489
12.4816 18.8366 38.8472
13.6043 18.9274 30.4186
19.6928 32.6177 51.4887
14.1175 21.5725 41.8152
10.812 21.2417 34.3986
10.9019 16.1889 30.2053
9.03542 16.3908 31.5293
10.3675 18.9498 57.5747
40.9204 75.7759 104.188
13.9217 18.5622 34.4528
11.6045 15.4312 20.5223
6.45433 14.8881 36.8663
16.9415 24.7666 38.658
15.0647 18.7069 36.0005
11.3226 17.3996 30.9545
9.07705 19.1076 40.7789
15.3818 22.2913 41.4125
13.6013 17.9931 30.5745
9.45107 14.6914 28.663
12.9446 26.4305 47.6204
8.62719 14.4962 30.0397
14.7101 17.6252 28.8408
7.95074 12.2611 21.9255
11.8987 24.5267 41.0229
10.0249 21.6751 43.9011
9.44663 15.0636 29.752
9.93232 20.3185 42.4623
9.99414 12.1834 29.8171
13.5387 16.5849 25.3149
12.7077 19.479 35.7287
12.3833 22.0544 40.2501
10.9884 17.4214 31.4312
11.2865 16.505 34.463
13.1608 21.6614 43.959
12.9881 15.8105 31.8761
16.2591 18.6996 29.6294
12.1065 20.892 35.4609
9.54587 16.3829 40.0228
14.0841 24.46 47.4106
11.5429 14.4085 24.3298
9.74196 11.9524 25.303
16.0625 29.3944 52.1343
8.76627 23.3822 56.5646
17.9391 28.3374 47.6915
6.8716 14.0372 30.9839
12.1184 16.4736 29.5119
10.5526 17.5815 33.7062
9.58763 15.9979 36.3532
8.68231 13.2288 26.9828
11.7694 20.3292 34.6842
11.1968 20.5581 40.6672
14.7716 27.1494 62.0092
11.9957 17.1585 32.1374
14.4666 21.0966 29.4629
9.09856 15.9946 29.7742
8.77855 20.0571 53.4327
17.5455 29.4857 49.2645
11.886 18.3252 35.7641
8.9418 16.2017 29.4863
9.12736 21.9081 47.9781
11.868 16.6733 30.1611
8.27769 14.2664 27.0474
11.6459 18.5756 37.1138
10.1969 21.2562 47.1365
8.91349 20.1124 39.3755
11.425 23.4274 57.6225
17.3711 24.0768 38.6493
11.2144 25.7241 50.1934
8.50797 17.4039 34.346
6.42169 13.274 38.1462
17.3247 25.1246 53.9344
14.6824 27.472 53.6716
10.6 17.0554 32.756
12.6279 27.3157 53.061
11.5763 14.7123 22.7363
6.71731 17.2825 45.3591
13.274 20.7812 42.6277
10.6191 22.3437 47.9976
9.5448 17.024 41.053
10.4681 20.9398 34.8983
9.55903 16.0443 34.98
11.1507 18.1021 40.0982
14.582 29.375 53.1454
8.77082 18.0169 34.1441
10.7423 23.9357 52.0302
12.3203 21.5678 52.1079
13.119 26.1663 48.5863
8.99039 15.109 39.3802
10.6303 18.1852 38.1305
11.5366 24.5416 44.9746
6.46452 12.1486 34.6274
8.4151 10.8587 19.0242
8.19175 15.2878 34.6357
9.6181 17.1515 45.4514
11.6165 13.4902 25.6216
8.09341 17.7064 43.527
12.7558 27.754 52.2915
10.5819 15.0459 31.062
10.9832 19.5507 41.8154
6.96187 16.0035 47.2747
8.66801 16.0219 25.6383
7.98139 20.3925 53.9482
10.155 18.2077 41.9511
8.11928 18.5969 69.9685
21.976 47.2311 79.0744
12.8448 24.4084 46.2576
7.89328 15.1011 43.4358
11.5207 19.5575 30.9915
8.1122 21.4232 45.9181
11.6281 22.0953 54.4704
10.1657 16.2134 39.7742
7.4668 12.3361 26.4632
9.89871 14.9789 30.3081
8.93567 14.2359 30.1639
9.29819 17.4409 33.9814
5.7121 13.4992 30.3908
5.36958 13.0308 34.86
9.27795 15.6858 32.6261
9.03037 14.7105 40.4041
8.47867 18.8354 40.8216
7.31178 15.9194 35.3975
8.0807 12.5165 29.3275
8.21521 16.6383 36.9184
6.81678 16.1823 35.4869
7.30518 13.7618 36.2457
9.2074 16.3209 31.7309
4.33178 11.8653 37.1462
10.3134 22.789 51.0981
8.68154 9.221 20.095
9.4241 18.905 34.7606
8.54779 25.2458 63.7716
12.2228 23.2277 39.1916
8.0012 15.6692 41.4354
5.33789 7.5664 18.6557
7.08211 12.7606 26.916
4.81582 11.9598 34.8291
7.3623 13.9732 23.0562
7.91307 17.7072 37.7011
7.99233 14.0406 33.3257
7.38828 21.9672 49.55
11.0361 15.8881 42.6045
10.4439 15.8239 29.5122
5.66111 11.7853 38.8339
10.2514 21.6751 45.9244
7.07136 14.6104 41.3467
8.31188 18.7854 36.1766
8.62088 19.3289 38.519
6.31214 19.9136 58.0834
11.3587 18.117 36.6665
6.23822 12.1274 35.125
7.63395 13.0992 33.4874
8.02277 16.5328 38.4018
7.65017 16.2646 52.4948
14.624 23.0994 43.6819
7.02434 11.8186 26.1097
8.65598 18.4296 45.2111
9.06247 17.1919 44.122
7.69345 13.5124 31.5721
7.37411 16.7258 48.0348
9.06326 12.7401 21.6003
7.38046 15.5219 31.599
5.03756 11.0307 40.8471
12.4808 20.6685 43.7383
7.14525 9.56312 32.3906
9.972 17.7911 41.7747
7.58633 16.0613 38.8438
10.5968 22.1255 49.3816
7.25584 12.6138 35.2221
8.90201 15.5682 27.837
7.06397 16.6867 41.9448
6.99446 19.7295 49.5608
7.15875 12.181 28.1674
7.915 16.562 36.9801
6.71909 16.1999 45.7993
7.53675 16.5075 35.4294
7.29748 17.0153 45.8418
6.5875 11.4188 22.9539
5.94573 13.6272 41.9566
4.83581 12.4615 33.6782
8.42923 14.2863 39.0238
7.55517 13.4463 31.3679
7.06403 15.8097 44.0936
9.03816 15.4006 31.2416
8.22909 19.4898 53.6684
7.72304 16.6181 44.7076
7.96329 16.6388 40.0031
8.11496 15.3207 39.3826
6.72641 12.6048 24.0924
5.01987 11.2226 33.5332
4.51501 8.02362 18.7981
5.16834 14.0074 38.4077
7.13196 15.1714 49.7149
11.4774 21.5284 48.6464
9.33773 18.6407 49.9425
8.66503 16.8995 43.1227
6.4599 15.092 36.4536
6.03708 13.4959 26.6522
4.78612 16.4314 55.4481
9.86146 25.1479 61.0517
5.61673 14.4913 90.0416
20.0142 41.872 66.261
8.97583 14.5825 28.3294
6.81651 16.4228 44.2862
7.89542 18.9601 39.5254
6.08906 14.5568 40.8962
4.92404 12.9585 31.4192
6.34325 15.2907 31.6689
5.78678 15.8756 48.7229
5.69114 8.70243 29.5038
4.121 14.3555 39.4486
9.22021 22.3337 48.0854
6.71594 10.6101 32.6904
7.83042 17.3769 42.8187
6.97916 13.7273 34.4493
4.55794 12.2532 33.6667
5.7438 14.3718 39.3056
6.17041 15.5172 54.3705
10.8988 18.4735 47.1404
5.86223 15.9116 44.4113
6.48865 12.5701 43.696
7.52624 11.1517 32.7123
9.32059 17.5132 36.255
4.18981 13.7325 58.1641
13.0837 25.22 57.0147
6.33398 13.0977 35.6666
5.05057 11.8514 33.639
5.86255 15.8542 42.2215
7.76483 13.7433 35.9268
6.87182 18.1725 48.6277
5.99499 15.8066 42.2777
7.94482 17.193 39.4875
4.32116 18.8595 57.1182
7.85155 13.2011 40.3633
6.2786 11.9357 38.2357
6.00097 14.3289 40.9321
8.50207 25.348 68.086
5.90556 12.5813 36.5161
7.19631 12.7868 28.9427
3.87586 10.3197 30.8749
5.65335 16.7675 54.1683
8.38129 18.7121 48.8486
8.48583 14.4115 35.8332
7.64686 20.0309 46.7935
4.80409 12.5368 39.2915
6.57529 13.6171 42.3571
8.14373 18.2279 41.5178
4.83795 12.9436 40.5873
6.21194 19.6131 39.5371
4.34842 11.9541 28.8381
4.18886 12.4026 44.973
6.83616 14.5032 36.6807
4.15783 13.846 40.5361
6.82933 12.153 41.9582
6.16488 12.8665 30.4627
5.99306 15.0226 47.7221
5.28307 13.9581 51.0715
7.7724 14.7087 29.5698
4.63309 14.7411 37.9378
5.85282 14.9772 45.7184
7.09935 13.9128 44.6954
9.11979 17.0283 31.9524
5.22403 10.8385 28.2056
5.56814 19.2311 65.4442
7.67809 13.9247 41.1029
7.05342 15.5805 41.9798
5.23338 10.9208 31.3902
5.29328 13.6639 39.4006
6.27314 16.6503 48.1719
7.00317 16.6375 49.15
6.51143 15.6069 39.2272
6.6509 13.6994 50.4242
5.30044 13.6808 40.7169
6.54647 19.3831 45.5125
4.88067 12.0984 46.2018
5.79803 11.8264 32.5934
3.9435 10.7126 36.0552
5.61793 19.309 45.7343
5.53868 7.8707 23.4947
4.83855 11.1155 37.2744
5.57394 10.7754 27.6867
4.90935 10.9599 40.7024
6.76562 14.3372 35.5826
4.21301 9.5837 32.1048
5.53002 16.0658 43.3537
5.40883 14.9335 64.7587
8.46948 19.6931 68.0679
10.8488 15.4494 23.9127
3.83254 17.6059 47.3596
5.57012 10.1679 44.2182
7.66102 16.1551 39.6016
5.16901 12.6146 34.5764
3.74349 10.5514 28.5558
4.11951 10.2161 37.795
7.86486 15.0094 40.5964
4.92546 14.4652 44.8869
5.59721 27.4076 152.917
22.3697 43.9018 64.2812
5.0679 11.7665 36.8401
6.36902 21.0759 49.2953
4.87716 16.1791 52.3254
4.69408 13.4606 50.8707
6.06269 18.2158 56.0395
8.01384 17.9543 55.6462
6.99355 12.7893 34.5699
3.42908 8.16713 33.8152
5.94683 11.23 28.6225
5.25183 14.1227 40.0815
6.55539 14.7238 40.4941
3.25215 9.49986 34.7094
6.46749 14.9559 41.5075
5.01595 12.7264 36.3235
5.52743 14.4 60.2143
7.68661 16.7262 36.4637
5.42026 11.1673 49.506
7.70467 12.6603 24.1081
3.55806 12.7153 36.7773
5.58266 12.6204 39.0944
5.32984 15.6025 52.3041
6.31781 9.45878 27.3706
3.63911 9.66473 36.609
3.75648 10.9263 27.8166
5.28562 10.9682 26.0404
4.54569 13.8756 44.5844
5.45292 14.9273 52.1366
4.89631 12.3317 36.7272
3.80678 8.55324 18.3568
2.98269 14.4843 51.0623
4.98305 11.3732 43.4754
6.18712 12.9134 30.6802
5.62371 15.5276 50.5566
5.26593 15.4457 51.65
5.92862 11.7341 36.7807
4.46067 13.4335 41.5461
6.28026 14.4739 55.3326
5.54954 10.1445 22.4848
3.42874 11.2597 30.8791
4.90233 13.8126 46.8043
6.22297 14.3926 37.3685
4.75573 14.99 45.0911
4.93825 8.04786 30.5486
5.45289 10.5554 35.7697
4.47968 12.2949 39.4498
7.28655 13.9964 41.6092
5.60155 10.6394 35.9812
5.67092 20.7346 66.861
6.75119 17.1167 46.2793
7.32403 13.2642 48.6363
8.04447 27.1246 78.3447
6.0404 9.83388 28.7782
4.27225 12.9424 45.0856
5.44514 13.0801 40.3814
4.41679 14.316 49.9852
5.26499 5.54479 24.4862
5.00778 14.7632 45.7407
5.29228 12.4612 35.3761
5.15918 21.2088 51.4434
4.92509 14.9573 50.9263
5.4264 13.4636 44.8491
4.80367 11.8425 36.9366
4.53453 9.53043 38.1817
3.70583 9.76318 32.9149
4.837 10.2522 32.555
4.21353 10.014 29.9618
4.30211 19.2421 59.7433
6.4051 12.3757 50.7573
7.29821 9.6954 26.3966
3.8225 14.7079 47.2378
4.69654 9.6361 32.1366
4.6058 10.1603 33.7459
4.88114 8.97885 26.6549
3.7729 7.11072 24.3432
4.72311 15.1259 42.5998
3.87007 11.8718 31.0681
4.36406 13.228 47.7923
6.20988 10.0393 38.7489
5.32748 12.226 45.47
5.25661 13.8593 38.3945
3.93427 11.6562 39.2007
4.98593 9.13748 29.3943
3.25071 14.4453 58.4744
7.83269 12.3109 35.2021
3.5131 10.3155 46.6786
4.44956 10.4541 25.7576
3.46885 10.6296 32.1858
4.94174 10.3804 36.5276
4.26971 12.0972 43.0916
5.83679 16.8177 65.5493
6.93498 17.8765 44.7666
3.71427 15.2012 59.7091
6.44285 16.5977 46.4978
3.8543 13.9389 35.3859
2.42369 21.7592 178.809
21.2843 35.9836 41.6913
4.31722 12.1133 32.4875
2.9114 11.8454 42.9069
5.46886 6.47661 20.4204
4.0894 11.3557 41.0903
4.97896 17.2428 51.4102
4.72184 10.6742 45.0958
5.44346 11.6133 25.5755
3.50369 13.5036 53.2423
6.27587 17.2937 67.0757
6.13205 18.9326 56.8184
6.05577 8.09259 31.6374
5.40014 15.8555 45.2026
3.73027 10.3432 52.4766
6.94508 15.2496 31.8506
3.32021 10.3717 47.4936
4.85644 14.1464 55.8609
6.9011 17.9055 49.5008
5.59341 9.73543 32.5162
5.15233 13.8132 53.1268
6.00096 14.8083 37.1253
3.18148 9.63007 36.6976
5.42252 10.4045 40.5487
4.9419 15.2104 47.503
4.67037 8.87612 21.0416
3.68924 8.76676 27.5148
3.1738 9.1222 35.6274
5.58866 14.3626 41.8767
4.62505 10.0138 41.7591
5.56861 14.1808 38.7587
3.5175 10.4061 40.6354
4.54767 13.5916 39.583
4.17143 12.8017 56.8227
5.71456 11.8902 35.9046
4.16088 11.241 43.6619
4.37255 10.9221 30.0479
4.4925 14.7778 59.0763
5.52238 17.3001 51.272
4.80174 10.501 37.2515
3.80759 12.9912 36.6563
4.70327 11.7598 34.7107
4.24719 10.8546 52.3904
4.85447 11.8178 37.4166
3.94964 13.6778 59.6083
4.91481 13.807 47.4614
5.36906 15.5195 36.2838
3.23857 8.61042 37.131
4.67242 12.9647 32.3382
3.74178 8.28351 34.7957
4.76287 8.22746 30.0442
4.35794 15.1544 31.8885
3.92526 14.7141 63.1406
5.89809 11.1823 34.5888
5.3033 13.2639 43.4498
4.88861 16.1574 45.5789
3.08647 9.25986 30.5227
3.46989 9.56111 35.4973
3.39807 7.77217 30.9639
3.68324 8.43374 32.4194
3.22671 7.59245 25.2693
3.80429 13.9352 43.9941
3.46908 7.73506 24.9802
2.76904 5.62691 25.9743
3.47924 12.3908 46.6274
3.03501 5.99741 30.9737
3.93774 10.7188 54.8999
5.04883 13.0496 28.2545
3.31665 8.56929 18.7758
2.93495 11.5691 39.3994
2.95253 7.3038 25.3293
2.57464 11.8462 63.7834
7.9295 10.8584 37.4123
4.22227 15.4171 53.4799
5.75079 12.4328 42.194
4.41693 13.6256 45.9256
3.7959 13.234 43.7696
5.05024 10.9311 37.462
3.37369 9.43544 47.0081
4.52365 13.4911 34.8558
3.91902 7.26948 41.9717
4.8219 14.3945 39.6858
4.12553 10.4384 56.3975
6.01389 17.4369 37.9764
3.89952 11.1495 33.8521
3.56367 11.7211 45.4135
2.84759 11.2345 47.2244
5.13594 10.5511 27.6774
3.7789 11.275 36.3619
3.30958 17.3473 56.0402
3.93059 13.9776 51.8251
3.96884 8.63587 68.103
6.51869 14.9093 47.294
3.59858 13.3291 38.2155
3.32133 10.9162 37.2774
3.80638 17.315 54.7806
3.35903 15.9784 171.743
17.5473 35.1607 47.5489
3.81583 13.8156 46.7212
5.52525 8.63157 26.2023
2.75982 9.92424 30.4687
4.01061 10.6935 44.5205
5.10406 13.8426 42.4319
4.58853 8.47345 49.4689
5.68324 11.8776 34.448
5.34315 10.8538 26.1141
3.66429 10.8104 44.6969
4.01078 15.255 60.6112
6.46093 11.2618 28.461
4.51844 15.1639 41.7822
2.79271 16.2108 48.9798
4.65006 17.3304 64.017
4.94759 9.25424 42.7618
3.692 12.2361 55.0927
5.30826 10.5121 41.626
5.04612 10.469 30.4436
4.30614 14.3752 43.7566
3.66789 14.08 55.771
5.9805 11.3504 26.0124
1.89476 8.88651 37.2325
3.54196 11.2119 41.7941
3.82124 10.3158 43.9694
4.45063 11.2108 32.8837
3.38474 7.53159 23.7799
2.51197 8.05028 41.8075
3.47522 9.56929 41.3057
4.94741 12.8092 40.1763
3.50603 7.45498 41.4699
5.03115 11.9681 35.4214
3.75518 12.7749 41.7749
3.23484 9.49529 55.2457
4.6404 13.2172 36.161
2.88319 11.1293 40.3491
5.27471 16.7163 52.4735
3.91909 12.989 47.3829
4.25303 12.2698 45.8455
3.12265 9.99867 36.5007
2.39943 6.77851 32.7043
3.25492 9.08377 29.5527
2.65654 12.9153 58.2054
5.62621 11.0876 30.4782
2.88319 7.20312 28.1354
3.46969 11.1408 39.3603
2.4906 9.78795 33.3448
2.82708 8.15645 33.3135
3.61375 7.91769 31.3887
3.64068 9.38944 39.092
4.47956 12.3186 39.7619
4.02275 14.5822 54.384
4.53177 11.6568 50.9041
3.55713 10.3655 34.98
3.38696 10.013 45.7746
3.79799 13.7023 58.7764
6.74213 14.2672 43.772
3.56344 9.04912 35.2237
3.35863 14.4881 49.7577
3.76449 9.12564 47.423
4.40756 11.9799 30.6853
2.95476 12.7715 31.8304
2.49676 9.27696 36.881
2.85212 8.73764 34.028
2.43651 7.61435 38.7765
3.7375 9.4451 33.7389
3.26738 10.0663 29.59
2.82958 9.97242 47.0492
4.10795 11.6659 35.6143
3.97378 9.09011 36.8588
4.50585 8.7254 42.0177
4.18525 12.2235 41.539
2.57093 13.0508 33.215
3.25244 8.56733 40.6238
3.50585 6.13637 28.3245
3.51068 10.2583 39.0056
2.94973 10.9647 47.9025
3.73037 7.68323 40.7168
3.73369 11.304 34.8008
3.15525 8.2441 44.0621
3.79658 10.935 38.4209
3.22468 6.90943 38.3755
3.62786 9.45511 24.6427
2.3242 12.2226 48.5324
4.23099 11.3032 29.0996
3.75385 10.0754 52.5995
4.4142 9.15281 39.9649
3.47116 8.6099 26.9463
3.92408 14.055 31.8616
2.36975 9.96117 51.0975
4.09817 11.0805 34.5714
2.79208 8.40825 33.0981
2.56863 10.8262 50.8071
5.44301 12.0881 51.4449
4.44043 14.6579 32.8824
4.30689 18.547 151.091
11.3201 30.2486 39.7662
2.53731 5.6599 38.8699
3.58202 10.4922 36.456
3.36827 12.9895 43.1135
3.00997 10.8071 33.4824
2.73 9.24196 43.9329
3.55491 6.69869 24.9986
3.44763 9.87209 40.7939
3.75764 7.6789 30.4067
3.70672 9.25408 34.8818
3.90154 10.6136 27.3007
2.38136 6.3884 37.7572
3.78472 13.4865 35.6712
2.89353 9.33918 34.8463
3.83274 10.2178 44.1893
3.43017 8.27554 34.539
3.82019 6.76898 35.638
2.88834 11.4882 48.4002
3.58799 11.0748 39.8778
2.97009 8.46177 49.6763
3.48118 11.7325 26.1264
2.87491 15.9983 58.395
3.98973 8.90831 41.7749
2.88637 9.30016 32.7892
2.80837 11.4973 44.8867
4.25002 8.00065 32.1878
3.21029 9.18121 26.306
2.64367 11.7733 53.5161
4.15324 10.1438 44.1773
3.28254 7.96769 36.7111
2.8216 8.25348 33.4492
2.98639 12.0914 30.2725
2.58045 9.71561 56.8642
4.68405 14.012 36.722
2.62026 5.80476 50.0303
4.00345 14.5194 29.9224
3.01461 7.91813 38.1367
2.63287 8.78122 37.2327
3.28789 10.9768 28.1278
2.47509 8.31732 37.8079
4.08967 10.4187 40.6861
3.5894 8.88942 34.6889
4.11088 11.6124 37.2956
3.17749 8.26832 39.287
3.32332 10.0806 45.3252
5.2339 12.1321 36.6396
3.49595 12.8106 45.4119
3.02286 9.46586 43.7189
4.01327 8.1313 38.4886
3.34524 12.0001 44.0104
2.61252 8.37675 39.713
2.6443 8.67164 37.2762
3.20273 9.32859 41.9976
3.38929 7.90839 37.7873
2.92036 11.1011 48.5736
4.4641 11.2557 29.4508
2.27925 11.7232 52.5319
3.96915 11.0247 40.1949
3.50241 11.7251 59.4746
5.8094 17.679 43.918
3.31893 10.2567 28.4516
2.40987 13.7922 50.0988
4.04437 8.85976 49.7167
5.85808 8.74365 53.1262
5.91881 17.8963 46.0767
4.70336 11.7876 29.279
2.6011 8.83955 36.9436
3.36793 14.2013 63.3244
5.37902 12.1407 65.7907
5.25953 13.8912 37.6901
3.5549 10.3892 35.9476
3.44151 8.92851 32.7941
2.61011 6.01595 33.8438
3.87297 6.45865 31.0449
3.94723 13.0785 63.373
4.81353 15.2753 57.1303
4.40189 12.8549 47.9086
4.08823 11.1822 42.359
3.25674 11.0882 38.7254
3.17604 7.92664 53.3388
5.7167 10.8029 42.8633
4.30219 11.0275 40.394
2.87868 13.5773 40.9685
2.46803 9.79867 41.2071
3.32329 6.93229 44.4042
3.59546 10.7986 34.1332
2.73819 12.6726 40.373
3.20753 12.0502 33.4896
3.07486 11.799 42.3687
4.50259 10.8573 47.455
4.33672 8.04942 30.8243
2.24291 6.91726 25.774
2.32816 10.3409 36.4257
3.45495 9.39393 29.2322
3.47736 11.318 52.1886
4.86478 24.5297 179.117
10.9357 25.0539 32.8258
2.88669 11.6653 44.3754
3.87979 10.1683 33.9858
3.51727 10.6317 31.6249
3.33154 6.02025 33.0872
2.92828 11.5059 38.7316
3.64209 14.8331 58.4643
4.8481 9.12465 35.9137
4.19928 11.1693 54.9603
5.97076 12.9297 39.4746
3.31864 6.42898 16.0576
1.8759 8.89581 38.9876
3.3802 9.36865 31.7964
2.26229 6.36646 38.3455
4.02472 12.0328 36.3521
3.12403 6.00338 32.8055
3.27029 10.7134 46.5607
3.91006 11.2895 31.3597
2.47576 6.42733 46.6933
3.61565 12.6165 38.7184
3.04189 10.4054 43.0472
3.69304 8.36579 28.0686
2.9838 9.63235 26.9329
3.23434 7.94836 44.822
2.77218 15.8697 67.323
4.21482 9.01003 20.9673
2.19569 6.13124 29.2027
2.99009 9.53609 39.6467
3.74283 7.08613 38.1342
2.80584 9.14783 28.9071
3.28388 11.262 33.3194
2.65073 6.94647 40.3653
3.83027 8.1424 31.0202
2.8233 10.279 35.5705
2.39934 9.79681 28.2579
3.3312 9.44938 42.4966
3.84113 9.32525 31.5276
2.5662 10.3008 38.0433
3.71444 7.63912 33.1347
3.33519 10.4332 57.2059
3.91551 12.3738 50.1877
4.75332 12.7136 41.2749
4.19386 8.4632 45.7101
4.82441 11.6061 29.1877
2.53133 7.0712 28.3444
2.60022 10.939 33.5589
2.60461 10.7651 47.6127
4.81627 10.0613 42.5075
4.46376 15.6845 58.981
4.29779 15.9115 71.6465
4.80881 12.4936 38.5376
2.42354 9.11198 47.6302
3.5693 9.89355 35.8269
3.08473 7.2985 31.8132
2.29119 11.6862 50.1059
4.17888 9.20597 18.8797
1.90192 11.4165 45.6812
4.18775 6.89965 31.5215
3.89747 10.144 41.0519
2.42582 7.75262 28.4562
2.35874 7.16479 46.2989
4.03837 18.1438 68.2311
4.37369 13.723 39.1128
3.77255 6.36409 41.2114
3.4938 8.98842 36.499
3.26005 11.558 39.9334
2.77549 9.13097 45.1016
4.34959 10.7971 30.6024
2.35566 8.16617 38.2154
3.04026 7.64906 34.024
2.00012 10.8865 29.8076
2.60405 10.2789 63.2246
4.73606 12.7152 26.9584
2.72268 10.6995 62.984
4.12678 9.56231 38.4933
2.80469 12.7382 37.1929
3.72428 8.67368 39.821
3.05739 8.86693 34.8791
3.68939 9.14868 39.5212
3.02429 5.20994 30.3564
2.16546 9.90594 38.0366
3.45949 18.5357 64.5839
4.58457 10.5144 43.037
4.04384 10.6162 32.1868
3.12759 9.97578 44.8131
3.09074 8.08294 44.4559
3.92703 10.8892 37.6181
3.11353 8.62366 45.9099
4.23573 13.3234 36.6444
3.30486 9.16974 48.345
3.94722 7.87134 28.8021
3.84801 11.0007 35.5769
3.24253 8.96374 34.1935
2.06667 11.7598 33.8191
3.08035 14.1384 50.9393
3.18645 26.3442 214.674
10.5137 0 0