# pn-170911/RbIIR-41-NIST-1280-1959.psd
# Power spectrum* (dif=0,1,2) (really just |FT|^2)
# NOTE: only the first half! (symmetric)
# weeks: 1280-1959
# 5 clock-days, 1 excluded
# PSD: 1441
23.5479 0.116514 0.028046
11892.4 0.469641 0.185507
19205.7 1.08065 0.114196
18901.3 0.387772 0.168761
15312.7 1.13594 0.103133
13366 1.00049 0.165303
2870.68 0.734456 0.0688754
3279.93 0.995929 0.190809
2437.46 0.424177 0.0828721
3193.11 0.834508 0.172243
1896.6 0.997248 0.117111
863.296 0.649912 0.196009
2342.4 1.49343 0.0745888
1762.05 1.90261 0.150674
1723.11 1.27655 0.135706
792.43 1.31422 0.142453
708.779 1.13684 0.102468
452.626 0.879071 0.142027
668.099 1.37636 0.0892656
694.241 1.15329 0.182034
1155.56 1.95241 0.110104
455.384 0.433616 0.112078
402.258 0.733463 0.193127
464.368 0.714489 0.166504
609.19 1.46077 0.0971195
184.421 0.9676 0.122408
256.337 1.07156 0.136124
444.73 1.25214 0.188274
582.914 1.98514 0.121662
272.77 1.53875 0.0885366
450.28 1.53795 0.157159
233.295 1.31335 0.15904
270.143 0.973859 0.133614
239.199 1.52577 0.0836168
295.561 2.23487 0.205937
85.7623 1.23738 0.146631
305.003 2.86936 0.0918212
145.512 2.0371 0.0948114
451.911 3.5007 0.139699
64.6453 1.19084 0.140442
105.085 1.1872 0.217738
367.62 2.61234 0.116759
518.008 3.6759 0.127515
648.957 4.40823 0.117291
158.576 2.13535 0.178493
323.876 4.40392 0.136481
228.756 2.44686 0.206029
303.771 3.701 0.235259
301.333 3.42522 0.187571
440.135 4.34646 0.137577
354.379 4.36515 0.145886
108.489 3.07119 0.163547
178.073 2.53087 0.130758
475.914 8.00976 0.18747
398.155 4.47099 0.260192
217.398 2.22027 0.162518
222.82 5.5699 0.185923
228.622 3.81865 0.153035
188.813 2.38061 0.145057
376.522 6.51992 0.280793
471.983 8.56992 0.382722
200.389 4.76362 0.138109
332.604 6.41689 0.118732
266.892 4.34905 0.202276
413.188 8.87332 0.202505
151.649 3.05558 0.154788
99.3285 1.58388 0.132363
419.176 7.48137 0.42091
288.777 6.81305 0.334027
509.625 9.4448 0.371882
262.301 6.11558 0.10986
155.51 5.42193 0.260384
191 3.6019 0.18359
139.08 5.83335 0.365783
223.352 6.79452 0.170081
314.026 6.33395 0.558327
238.241 7.06157 0.323532
255.915 7.15244 0.318714
195.499 5.21963 0.210318
135.804 2.28416 0.0922395
450.782 12.3843 0.470548
318.135 10.7046 0.235816
274.509 6.62689 0.370092
155.55 3.78648 0.120829
143.639 6.37875 0.289599
269.783 10.0139 0.34372
190.497 5.56488 0.161216
165.443 4.8189 0.289673
214.501 6.73225 0.508335
203.06 8.76485 0.505591
280.563 7.42717 0.450708
191.039 5.17602 0.218283
120.658 4.55304 0.362418
198.7 7.30923 0.448793
172.625 6.62872 0.349494
46.2574 2.16715 0.207146
174.133 6.66843 0.548745
137.665 4.5962 0.265074
245.61 11.7331 0.631886
214.414 8.73587 0.393994
191.835 8.95107 0.7569
90.8688 5.77772 0.377382
183.391 10.0903 0.266323
198.433 10.2388 0.741647
87.9268 3.25855 0.281757
107.065 6.17419 0.555321
123.544 7.89828 0.493337
210.891 11.5866 0.661899
181.44 10.3379 0.858983
251.818 15.606 0.636099
126.063 9.93958 0.550519
184.704 10.2225 0.703789
215.464 13.2849 0.73365
92.0734 4.23078 0.206447
185.456 12.381 0.744225
312.885 14.9892 1.26812
162.509 8.86004 0.559911
193.23 12.1567 0.722512
136.715 8.64954 0.923506
264.063 16.0017 1.19283
222.868 14.4355 1.25121
144.382 10.517 0.791059
155.329 12.1028 1.0658
133.823 11.8387 0.737952
135.522 8.79401 1.0359
190.19 16.6328 0.920242
227.754 18.0904 0.887669
138.475 13.2564 1.12629
239.875 16.6966 1.16709
193.565 19.2809 2.01393
198.244 13.8796 1.18564
215.394 16.4103 1.33656
116.277 9.90411 1.06107
152.206 14.175 0.947202
251.694 21.6804 1.40318
130.673 12.0089 0.945186
206.599 16.4058 1.50033
70.4262 7.57584 0.590624
111.198 8.98269 0.592066
198.097 21.1562 2.03119
74.8927 5.94141 0.632393
201.305 17.437 2.36834
178.208 20.8275 1.91763
192.958 20.0831 2.1201
172.131 14.5384 1.63755
105.174 11.5564 1.30222
186.351 17.7477 1.49382
117.801 14.2005 1.58233
119.143 12.192 1.34968
160.882 14.4292 1.66973
55.1178 6.8235 0.400797
101.331 13.9123 1.31556
161.644 17.0206 1.8182
53.9602 6.35393 0.41865
194.385 17.6704 1.91844
233.083 25.5983 2.93352
108.027 11.2981 1.44023
144.83 15.0653 1.64406
206.355 23.4959 2.94854
173.008 19.2461 2.7349
47.443 5.50914 1.05129
147.969 18.3746 2.04543
66.7048 9.66558 1.9417
109.256 13.9539 1.56099
174.726 21.0199 2.6274
82.7729 10.468 1.23902
82.9722 9.03925 1.16503
96.2907 11.9629 1.90337
94.8678 14.3566 1.52294
166.098 22.0202 3.14285
171.4 22.7122 3.22776
69.0416 12.1061 1.79567
97.1838 11.5093 1.70037
83.5219 11.3521 1.60752
99.4722 12.0144 1.97227
80.8773 11.8888 1.49022
82.943 11.8887 1.53879
32.1279 3.71115 0.634388
58.8255 8.84796 1.51672
129.713 23.6836 3.33168
71.3718 12.5542 2.21977
127.177 21.8029 2.96282
116.855 13.76 2.24649
97.2059 16.2365 3.13899
126.811 19.7286 3.10548
117.277 19.7191 3.36311
128.476 18.0736 2.39714
121.907 18.7925 3.62629
113.581 16.476 2.57978
138.028 23.7221 4.42421
64.8306 11.2221 2.23593
70.5879 10.4228 1.49749
70.7592 12.2703 1.53348
113.227 16.0516 2.62797
22.1259 6.44018 1.41504
184.12 28.0475 4.02108
85.923 15.0794 3.17058
108.212 19.8135 3.58534
60.61 11.5714 2.14514
50.7444 12.5648 1.60981
85.6836 12.8887 2.16854
96.1101 16.1209 3.24881
136.181 24.1919 5.40108
35.4359 6.58682 1.50189
38.1136 9.01058 1.65919
100.719 22.3714 4.47432
35.753 6.03811 1.34728
123.99 21.9911 3.92856
203.919 43.3158 8.50208
52.0981 12.7046 2.66889
95.2925 18.4139 3.13726
108.966 26.4912 5.16481
122.208 24.647 4.5465
111.942 26.7108 5.7338
82.8225 14.8608 3.53215
64.7656 12.4431 2.53931
144.172 23.7448 4.18019
96.2129 21.811 4.43082
56.6536 12.6758 2.51026
72.3492 17.4318 4.11924
35.4441 6.99399 1.08356
55.5135 17.5772 4.09482
39.5811 9.93177 2.18319
53.9898 11.3569 2.39789
101.744 20.4262 4.43108
115.744 31.109 7.50229
89.497 17.1443 4.10036
119.76 26.1367 5.98078
63.2894 15.4471 4.02788
79.2039 18.983 4.75047
49.9685 11.6433 3.24977
147.238 34.2075 8.38937
68.1719 16.2757 3.88667
47.3279 14.1388 4.3522
63.9141 14.5544 3.06189
63.3249 16.0123 4.22718
111.644 30.978 7.8759
70.0309 17.2489 3.54252
37.3739 11.573 3.18051
44.341 11.898 3.84618
70.2771 15.4044 4.16795
54.8304 14.0302 4.37369
38.8591 13.2423 3.54936
80.4976 17.144 4.52638
118.471 31.895 8.64403
71.9364 15.7827 4.00094
71.2718 19.5082 4.6019
64.3545 21.6662 6.67073
52.4057 17.7755 5.15964
87.3607 25.8475 7.18606
85.186 24.3205 5.85483
50.6292 14.967 3.39003
40.2253 11.2697 3.07152
103.563 33.7936 13.0905
89.6098 24.6101 7.03381
100.406 29.4195 8.36195
60.9431 16.4671 4.40155
118.956 33.232 10.743
103.153 29.6253 7.83906
66.7298 21.0393 6.9566
72.9628 25.8815 9.23214
69.9037 17.6822 4.00814
57.2481 17.1163 5.08265
40.6771 11.4526 4.42151
110.305 37.0484 12.3427
123.518 37.3913 9.6373
62.2194 21.2189 7.26179
52.5121 13.4691 3.99821
60.0863 21.3862 7.22768
45.1143 10.6154 3.13956
36.2993 13.9551 4.25423
56.9798 19.1623 7.15133
44.1319 16.0132 6.27736
39.1593 14.033 5.29711
36.5355 14.8907 5.72341
37.7752 11.5632 3.13239
57.971 20.927 7.34592
68.7626 25.3833 8.47259
97.0374 31.5826 10.5005
20.9795 6.42685 1.95007
49.6977 15.9313 5.65284
24.9376 10.1348 5.05113
69.1869 24.7809 7.97418
38.0183 17.3024 7.58475
55.1285 16.6982 5.21737
41.1946 15.9099 5.57836
58.1767 21.9266 9.25638
87.1903 31.9335 12.6283
41.6769 11.706 4.46365
19.9777 9.29493 4.05007
55.729 23.6891 9.37053
65.5044 22.7556 8.54964
35.8147 12.4345 4.36972
60.1733 30.2786 14.7636
81.8201 30.2098 12.2128
90.136 33.5201 12.1444
19.1007 5.54203 2.44996
111.374 45.3645 18.5994
38.4625 14.1623 7.45525
54.6846 21.2385 6.79016
85.4472 32.3042 12.7949
32.2367 13.9901 8.32137
63.1395 22.8108 8.37326
91.0552 36.8178 13.7933
43.8004 20.1836 7.93836
25.0639 13.5916 7.49863
31.4344 11.0768 5.18022
29.2289 11.2158 4.28657
57.5456 22.9528 9.77155
78.6848 45.6816 22.0087
27.2875 9.5878 4.50304
28.6677 10.6653 5.36236
15.2304 5.78687 2.48456
28.6712 17.5385 7.88432
70.3874 26.6614 11.7455
18.2592 8.44469 4.10958
21.0662 12.5291 6.84416
56.4464 23.8826 9.14397
46.2402 26.0413 12.799
47.4506 20.2572 10.6538
71.9196 27.1104 10.7638
26.2942 13.8456 8.47854
61.1624 24.6525 9.41606
40.9699 20.3345 10.9343
56.0166 30.2676 14.4599
16.5158 5.19726 2.33528
39.8681 18.1451 6.68999
15.0311 7.56344 3.15927
35.9295 18.0042 8.40661
42.679 23.5275 9.90447
25.2695 15.6304 7.97147
31.5619 22.0456 13.5479
52.2473 31.1987 17.7302
34.4802 14.737 7.30786
95.4933 41.4973 19.878
34.5856 18.9271 11.1311
70.5013 41.3992 19.5851
33.2588 14.6715 7.20962
23.5501 13.1544 7.49495
35.0093 20.1715 11.7325
48.0859 27.9542 16.3036
40.6644 16.1 9.73828
54.8488 23.7152 9.66601
71.6402 35.4079 17.1039
42.5287 24.2692 16.4209
57.165 30.201 18.8474
56.8424 25.5546 11.1763
47.322 31.432 18.5886
50.6709 25.2188 14.7541
22.4264 13.3082 7.65997
27.6507 15.6619 7.91398
42.1699 27.0299 18.0381
37.917 19.8865 10.1532
24.549 9.67331 5.71512
35.1609 18.2331 13.0141
28.9826 17.7328 10.6303
26.5519 11.4101 5.80632
64.9994 35.5737 19.662
40.294 20.5657 10.7306
36.6132 23.5103 13.8047
37.6646 16.9422 9.5318
44.3774 25.1224 15.1492
47.5398 27.4037 14.3614
14.104 7.65839 4.56658
31.6231 22.3313 12.9238
38.7362 25.3759 15.7646
38.9856 25.9778 17.6262
35.6816 13.3658 6.17988
76.7363 46.7133 28.7543
15.956 12.7816 9.30129
33.8414 23.0153 16.9614
22.8623 12.0295 9.83387
35.6982 13.5944 6.05728
25.5608 16.7409 10.7195
16.6604 10.8625 7.47996
58.3475 35.3991 21.6459
46.4393 25.3637 13.944
39.6162 27.356 18.7346
41.1378 29.2549 20.663
34.1072 15.0343 7.49058
38.5527 23.6707 16.9398
64.6924 40.9339 25.3591
70.8492 45.7349 25.0638
16.3645 13.6277 10.3825
37.0237 23.4008 16.0573
27.9857 20.196 12.3655
21.8029 17.1552 14.1594
22.314 19.5132 14.6572
38.3552 27.6837 19.4704
35.4833 26.9706 21.5448
32.7454 18.8566 14.2255
32.8205 20.2987 12.9864
33.4319 18.6005 9.06904
14.7784 12.6966 10.6563
53.0722 37.0585 25.2593
48.1228 27.9767 19.1254
58.443 41.6608 27.9517
55.6457 34.1233 19.9149
22.3173 23.3513 21.9199
30.1088 16.3166 10.2425
19.6998 15.6312 12.1329
38.0126 20.7147 12.2726
35.6313 23.0693 16.2999
35.7114 28.5955 23.0769
31.7521 18.7477 11.3659
17.1305 15.6678 11.6806
36.7342 25.4479 15.4874
20.6793 18.1652 15.0622
32.3549 19.6975 15.4772
62.1011 52.4521 37.8029
26.1701 16.5327 12.9428
16.7466 16.0392 13.1771
25.8909 19.4966 14.6333
29.291 16.8872 11.3951
46.1273 43.1597 36.2633
63.7715 50.8289 43.5456
86.5752 58.3289 38.3673
45.3279 35.802 32.1509
40.1948 28.4344 24.1085
30.3283 23.1581 22.7346
60.7668 38.0219 22.775
52.2411 40.9785 29.8139
18.3542 18.0869 17.0378
16.1967 8.60523 8.70099
40.9173 29.6953 21.7276
41.8001 26.9755 17.3175
37.8549 30.9681 29.3177
34.151 29.3825 27.7217
52.0835 35.1356 23.39
22.2382 19.9586 19.8921
49.2537 37.548 24.8092
14.102 18.9172 21.708
25.8225 13.0045 8.24686
21.5284 10.789 4.84197
19.472 14.9272 13.2877
34.1925 26.6231 20.2021
39.51 22.8598 13.6107
26.3577 26.871 25.3257
15.9045 10.8406 9.5009
20.1092 17.6569 17.0752
13.4322 12.3255 9.17007
5.41855 7.00001 9.7447
14.7794 11.5444 9.54015
12.3826 11.2804 10.3305
14.3065 12.7033 13.19
14.0631 13.7174 13.754
15.3464 7.99988 4.30813
28.4979 29.4864 24.533
19.2447 18.1306 19.3492
31.1687 21.5774 15.4606
14.1856 18.6302 19.9586
25.7148 28.1748 28.1226
45.3115 29.1876 15.9492
29.7554 33.42 30.7552
16.18 21.8404 27.8328
43.8858 28.9338 18.9063
46.6193 46.4824 45.4837
16.8223 16.0345 16.416
31.8065 22.3464 19.6788
24.7774 24.3926 16.9842
26.4972 26.6212 23.6919
9.6874 12.9164 15.7699
17.1719 21.2855 25.3557
14.3068 7.28957 5.09372
38.6762 35.377 29.6141
17.6601 13.4602 14.8196
27.4359 21.9713 17.849
22.512 23.7396 20.3925
35.1363 43.5721 49.5146
38.6236 26.2829 17.319
12.2653 12.431 12.5924
15.9304 20.4456 21.5502
42.4292 32.912 22.8465
22.6369 28.4071 32.3163
23.36 20.0091 14.9101
22.3932 31.1374 35.1383
18.8241 20.4861 28.2497
19.3105 18.6039 18.6278
14.1298 19.3669 29.6221
29.927 19.8042 12.7859
32.5508 28.8677 28.0873
29.7404 29.2069 24.803
20.6074 15.7042 13.2648
23.2865 31.6247 36.0492
17.5729 16.9489 20.7016
22.0222 22.6917 27.7641
34.6676 33.4305 38.1344
62.3233 51.6495 38.8193
17.8465 21.0678 23.1459
7.48974 5.55857 8.87784
28.9461 34.6371 30.5938
43.3704 50.4155 45.4796
26.0744 33.0135 38.2699
16.0047 17.9932 26.4004
24.0071 21.7641 30.4864
42.4439 33.8034 28.5198
34.0602 35.7932 31.6696
12.983 17.028 24.0672
29.1721 28.5168 30.7422
15.6303 19.1644 28.2648
35.6975 34.8882 35.7518
33.3108 29.8383 32.2407
23.2313 21.3001 19.192
11.765 19.0876 27.6327
30.9077 31.7544 37.5247
15.2262 8.55054 5.56794
10.3107 13.931 20.0981
38.6 34.8568 31.9329
7.43895 10.622 21.2864
17.4581 13.9462 10.0513
14.7018 17.3852 19.1146
15.7093 14.5752 14.4075
16.9862 20.204 22.8302
26.7997 19.1439 14.6265
21.0147 28.0561 31.6518
17.4164 20.658 28.3079
18.2178 18.4362 20.1279
15.0316 20.2892 22.1037
11.3047 16.6453 21.3015
11.6475 14.3667 18.93
18.6604 18.5781 21.4788
22.3676 16.9161 15.1499
31.5734 37.9119 42.7212
18.639 21.3951 24.5782
22.8934 25.9144 26.4381
17.0344 19.5815 25.8558
18.2466 20.1134 19.9357
19.4465 26.343 34.3889
21.864 23.0206 30.0948
24.5488 29.7377 38.2325
14.9837 11.765 10.086
9.14927 15.3312 18.4074
20.7414 19.3303 16.7936
21.1594 32.4222 44.4441
28.6068 28.5446 30.4566
17.0285 21.6986 26.6289
12.0693 12.7154 17.5906
14.7233 21.34 28.5881
7.93421 11.337 17.7674
25.9078 40.5 54.2884
28.7631 29.6196 26.6146
33.2943 50.1421 59.8767
8.96031 13.7811 33.4454
33.0116 33.0421 30.9532
13.3702 22.4884 39.7051
29.3761 25.5681 19.7882
19.7137 26.3643 32.1759
13.8159 13.1352 13.3293
13.4556 19.8432 26.5858
16.2574 16.108 19.004
20.4015 21.6808 24.4055
19.85 18.4657 18.0098
29.8859 39.0779 41.4029
14.5599 30.7006 46.8926
19.1024 21.9949 27.775
4.98722 8.88626 15.5552
10.5509 17.449 24.3928
9.51553 18.1564 35.1841
22.5743 22.4687 21.2588
12.8906 18.0805 28.1751
20.919 21.1379 20.2973
7.74876 13.8548 26.2527
22.0256 23.3726 27.3313
24.5997 31.1778 36.997
6.49585 6.49103 8.05336
10.8425 14.2279 17.9398
7.32576 11.3228 17.273
9.46109 13.3583 18.0142
5.74437 14.9783 26.7864
25.8858 33.489 48.2591
13.7771 12.0903 9.4195
10.62 15.906 25.2343
14.1792 19.5402 26.2272
17.7151 28.2537 37.6245
17.4962 25.8958 37.8684
10.1153 11.2683 18.8594
8.56385 8.74565 10.7142
15.6998 22.3451 29.7494
15.5463 23.2664 30.3089
23.6879 45.2019 76.843
38.6131 36.679 31.7507
18.179 24.4078 30.157
18.1997 29.3046 47.538
13.0287 14.4945 28.1227
29.2165 27.0275 24.4344
12.5745 16.3246 20.7342
5.629 7.18444 10.2256
8.45113 17.7431 36.0554
15.9542 21.2599 35.213
30.9441 39.5016 41.3406
3.34644 8.21938 22.965
19.4499 21.9185 22.6233
9.41572 13.3168 15.8488
6.1393 12.7158 21.3979
9.40647 19.1805 40.3553
17.3295 22.5214 23.9531
6.23531 22.9278 49.9138
15.9608 12.5465 15.9757
12.7932 15.9459 27.9543
13.721 10.2486 6.85168
11.5587 23.0427 48.0418
19.5883 13.287 9.07457
18.2356 28.4234 39.2986
13.9599 22.3009 22.1106
13.4402 25.9614 36.9553
10.0023 11.0693 12.0516
11.2004 23.8741 36.7707
8.09307 9.70652 14.0578
15.9212 35.8373 62.6018
18.8707 23.4184 34.889
10.9719 12.6968 22.1737
25.3452 36.6935 51.3538
21.7116 26.2544 36.9113
19.8728 25.4277 30.8163
10.7969 12.297 17.3658
11.5172 22.9794 38.9972
14.1889 21.596 32.3449
7.37575 11.4602 18.9726
9.52507 10.94 20.4309
14.2149 14.4052 19.6671
12.6365 16.6863 25.3457
20.909 28.1756 29.1121
12.259 27.7815 55.2777
11.5729 11.9103 17.7467
16.8602 20.8587 29.1955
14.3575 19.996 33.5078
15.5431 21.8437 26.567
4.97763 6.54748 10.4018
13.1313 17.8165 23.7536
8.05828 16.9416 27.3732
10.9992 13.5542 18.897
7.23494 16.4043 38.3718
18.3044 27.681 44.4511
19.4343 25.9609 41.2368
10.7437 16.4572 37.444
19.0085 29.098 43.7478
19.3908 34.1171 51.8884
16.6733 29.527 42.52
10.3812 12.5626 21.4776
12.411 21.062 31.923
15.8209 24.5387 35.9068
12.0976 17.6053 26.8331
16.3238 33.093 49.2094
11.1898 13.0553 18.6088
7.64919 20.4786 36.3994
10.3295 12.5145 19.3751
14.695 29.0674 51.6765
10.2697 9.66265 19.1968
16.356 18.6886 22.2728
14.7842 28.0418 38.6231
6.89366 17.0756 35.1223
9.90242 8.79317 20.2285
8.55357 12.8151 20.0679
9.90741 21.8439 35.4631
8.83995 21.3885 47.1392
12.3444 15.033 24.8143
14.6617 21.4304 44.1701
19.3752 22.7346 33.591
16.9418 34.3092 72.6501
33.3009 52.8361 79.1655
9.49116 9.77081 10.6607
3.59765 7.79801 15.2298
6.81553 19.1546 47.9678
22.4397 25.4236 33.8247
18.4528 29.3796 41.6812
2.98392 3.276 9.93305
6.37909 16.8788 30.1816
7.17547 19.7548 50.7227
16.9906 20.1275 30.7182
12.3484 14.9856 16.9427
4.77547 8.3662 18.0278
7.94798 19.7154 50.666
30.6626 52.8296 77.0982
10.7279 13.5601 25.6856
5.55899 9.69517 28.3396
19.4794 41.9138 67.3173
8.99408 4.57135 18.0021
15.5102 24.6873 40.3714
14.7639 26.4221 35.3863
6.06805 11.2144 17.9085
10.1062 32.6154 84.4006
34.9407 43.4882 47.0021
15.0514 37.4105 66.8229
7.08796 4.44324 11.4924
5.66006 9.44955 29.3528
11.0376 15.7307 25.9339
25.7999 47.0201 71.8312
13.8697 19.5808 36.1911
8.01335 13.8347 22.5659
16.409 35.0366 77.5459
8.07644 4.54441 12.6438
12.1125 17.6937 30.463
14.856 27.4307 37.6399
10.7762 20.6161 48.3345
16.5062 19.095 25.8902
16.8584 31.8324 30.1298
19.8076 64.4672 114.261
4.18606 4.25173 23.2696
10.7827 13.0612 23.4279
6.74558 16.7979 33.742
16.6349 35.3061 65.5136
16.6214 28.4607 55.3098
16.886 38.1811 70.5866
7.48986 12.5156 35.3202
12.9762 23.9205 53.1689
21.686 41.0372 64.18
13.7697 39.3905 98.0871
21.919 23.453 34.2569
7.66438 11.2093 17.9778
8.66477 20.3057 50.4091
12.3544 25.8055 49.602
6.82271 20.3086 48.5115
3.7181 7.05026 32.857
15.5231 21.1159 31.4458
11.658 23.5304 49.9841
16.3364 24.1528 38.341
9.62062 19.2567 37.353
7.39118 11.3709 28.2261
11.9238 15.5387 26.6238
14.8889 28.8231 47.4744
10.5301 22.0419 35.989
4.66195 13.955 35.8274
8.09843 10.2289 19.4948
5.82968 10.8824 13.747
3.3738 9.40739 21.6796
1.6695 6.10932 40.1532
18.1624 33.5716 42.0897
9.79848 22.8263 62.4846
13.942 14.329 11.9068
6.15198 23.7162 53.5844
9.52178 11.3345 27.6547
7.98534 13.7681 16.3754
4.30146 9.8596 25.4048
9.22177 16.8526 29.3132
10.2415 19.7539 37.3918
9.76086 20.663 41.1105
9.22663 16.2814 31.3151
4.29522 11.3777 26.8685
7.52884 15.4723 41.2762
12.3345 19.6378 27.5932
5.05558 13.5894 37.866
7.00003 13.229 35.6474
11.0342 21.7872 39.846
5.80831 10.0778 23.8883
5.52488 7.21867 16.3218
5.79855 7.75164 7.73106
3.41854 10.7286 20.947
5.87897 10.9201 24.362
9.63523 28.2153 68.7026
11.2521 13.3855 17.437
4.69019 13.2054 33.7727
11.6859 23.6318 54.8166
8.76882 16.4703 31.1387
6.25521 9.5956 29.8622
10.9595 20.0991 28.401
3.72951 9.12298 17.0969
2.31328 4.78766 17.8527
7.03696 18.6525 39.733
10.5345 16.5766 26.4812
4.4656 11.3543 30.8046
9.86916 18.3847 36.5981
6.54161 15.0195 39.5182
9.64553 10.3029 15.1035
5.08577 10.9297 15.3271
4.63961 12.2791 29.7855
3.70493 10.2582 29.5485
10.9825 25.3624 51.9061
4.84561 6.90991 14.1736
3.24009 11.3248 47.9746
14.0554 22.6361 42.7939
13.2275 20.4058 33.8787
6.88034 11.3102 20.5591
5.35892 12.0562 31.2946
9.5672 17.7574 30.6958
5.10839 13.4967 45.3692
11.1337 20.4195 29.9491
6.07054 12.5603 20.2882
7.62055 23.3206 55.9605
5.03909 7.44043 13.5644
6.68895 26.2582 64.4669
10.7229 21.2347 37.4457
5.15469 16.8208 51.639
9.89069 22.5508 54.837
11.6382 15.6139 25.3437
11.1757 30.45 66.5656
9.12099 12.6287 18.3175
6.18427 19.6553 57.3677
10.8398 24.0483 60.1263
13.1614 23.8511 39.1711
6.95942 17.3353 41.7244
7.33059 18.1516 29.0958
3.65528 9.11094 30.3504
4.99302 11.473 32.7126
8.20261 15.8336 27.3922
5.27473 18.7573 65.3893
12.6005 24.1585 37.9635
4.06428 6.87055 16.4543
7.42819 24.1226 66.5186
9.99775 20.9183 35.2239
3.51466 15.1195 28.9067
6.79759 26.0234 74.7026
8.49302 19.6346 61.7961
10.0119 14.2867 32.7035
7.98853 12.409 24.9921
4.39519 16.1334 59.4988
13.7455 19.4607 31.4202
8.11094 25.3002 64.2689
9.03651 16.0492 38.7129
9.02196 17.1795 39.2366
8.41003 19.5453 49.9095
10.1773 14.6595 15.7903
8.14726 26.4497 63.4199
5.68787 18.1869 59.0001
8.8014 13.8606 31.0673
6.72947 19.9712 45.0241
8.08481 22.2801 44.361
3.47974 13.521 46.7451
10.5467 17.4009 44.9018
9.87244 22.1905 49.7331
11.1904 22.3428 44.8943
5.33067 9.55735 15.9821
7.86599 25.0406 58.8965
4.58371 11.3303 41.9138
9.16952 17.815 32.8318
2.8699 6.00113 21.6418
8.78508 24.7724 69.9446
9.64366 30.5811 107.896
15.2865 23.5934 29.5255
5.18981 16.3588 35.7845
5.49004 21.1848 50.2886
5.48435 15.1576 39.2451
3.58971 9.27551 32.5383
5.43753 11.5548 34.8436
8.30342 17.4545 36.9809
4.48269 19.0464 67.5693
11.6092 21.4771 46.6738
6.7063 14.8663 35.7315
2.88178 5.10903 10.6874
2.11764 4.58326 6.72402
3.02523 11.9154 47.2979
9.46735 22.8424 50.4745
7.24142 14.7455 30.5407
4.94771 15.7259 53.3575
11.129 30.8867 66.0618
8.11136 26.6151 70.7719
8.72225 15.1059 25.8994
3.48195 6.54077 14.4493
4.65715 13.6558 33.7425
4.50572 17.7265 60.0309
7.18311 14.9447 38.365
6.32839 16.5396 36.897
6.47386 21.0604 57.3394
6.3915 9.58704 25.2443
4.55303 8.41874 19.2446
5.23392 15.1242 53.6782
8.08074 16.0134 27.9684
8.85109 30.5162 69.9368
4.03693 10.8127 31.4073
3.73063 14.9212 50.802
7.06709 8.68142 19.4108
5.62603 18.9585 55.5672
9.11147 29.2133 87.627
9.97095 15.9545 17.791
2.29085 9.78188 32.7593
3.91348 10.0553 25.1402
3.04909 6.98163 22.3607
4.22261 11.3556 29.9161
5.0469 13.9676 34.2897
4.01628 13.3126 62.7922
7.01955 9.53573 25.434
8.39014 22.4702 35.6782
4.96404 9.53364 14.922
1.59981 6.76789 28.8375
3.29301 6.12577 9.33471
3.32326 16.2367 55.3013
11.2267 20.4962 39.276
2.76336 11.4359 39.703
4.69675 8.18118 28.5608
4.49416 11.1911 27.0919
3.84671 10.9241 28.659
4.33414 8.65461 24.31
3.13476 7.97869 30.6778
3.28083 6.20441 13.3925
3.78784 11.349 28.9825
3.82314 8.57874 28.4385
4.35699 7.82816 30.5987
6.87112 15.1622 21.5704
5.33977 16.3828 39.6469
2.01907 6.4435 24.2675
3.57506 17.1061 48.1882
4.17591 8.07097 17.5918
3.72108 11.9726 45.0779
7.81453 23.148 42.1953
2.74001 9.41884 25.2725
1.47557 3.8234 22.6902
5.7204 24.1162 90.0512
10.23 17.572 34.1173
3.18338 6.95431 20.8015
3.05967 10.2053 27.3325
3.12998 9.36048 22.732
3.62013 16.9026 47.3483
4.32469 12.7645 31.0089
3.648 11.8926 44.7048
2.92246 2.84409 14.9902
2.9146 13.0943 51.4401
6.144 16.1822 29.4258
2.35151 2.50618 14.9234
6.50542 27.18 71.0782
5.4154 7.49997 45.2467
8.87621 23.5924 48.6495
8.60336 24.4658 45.8604
2.74861 13.6516 55.0958
5.12292 6.74365 11.1678
2.09644 6.68421 37.0199
8.71158 15.5166 20.8095
1.74583 13.4056 53.5909
7.4358 10.9834 29.39
4.80678 14.624 24.1572
2.32774 11.4919 72.2238
11.2233 20.4405 30.004
2.31816 8.7172 29.0502
3.7124 12.5263 39.9428
3.82808 8.15804 28.7627
4.4532 13.9814 36.7201
3.3569 5.59343 9.33698
0.832329 2.95992 18.2199
3.46005 11.3257 29.4683
5.52008 20.5932 65.2941
6.39224 13.4796 29.4825
3.40478 6.30669 33.7107
6.11613 16.3681 31.6067
4.36651 12.9617 44.0452
6.11147 12.6385 24.556
4.28756 13.2863 30.4715
2.12864 12.7002 38.3855
2.39411 6.43218 21.967
3.12271 8.16402 33.0278
6.91667 21.1112 53.9709
5.13323 13.1767 26.8904
1.95393 8.13629 45.9081
6.76435 19.5933 55.1225
4.16212 8.9808 17.2208
2.44811 8.46182 34.5605
4.40484 13.655 45.2252
4.68143 12.9858 35.8562
5.25156 12.9328 30.0148
4.30484 16.1298 38.5102
3.30363 10.4435 34.9198
2.79562 5.25577 13.9061
2.85471 13.1652 41.0464
4.67576 8.99171 26.0549
4.15747 18.0255 28.652
2.31613 14.3523 56.3415
2.9466 9.75292 57.8554
8.09114 22.175 40.2779
1.92156 6.73241 39.1426
6.28987 19.0569 69.3237
7.0088 10.9349 17.3475
2.18525 11.0062 47.7284
5.2415 21.9766 60.1245
7.7693 21.1322 56.3249
5.08073 7.32445 35.7123
4.80259 14.6373 45.5524
6.17227 20.7669 38.8033
3.63393 13.607 61.2827
6.74595 11.3431 37.1582
3.82624 12.5465 25.4169
2.54906 4.72067 29.1666
4.73165 8.41806 15.7329
2.46455 12.2376 28.024
2.32949 9.07889 37.5612
3.9821 8.60306 41.0842
7.94556 23.759 58.2226
4.33659 10.692 42.0764
4.56902 9.38169 14.8869
2.06106 5.76753 24.5164
1.9797 3.87601 18.2031
3.96668 12.991 26.1014
1.81054 5.58361 15.3766
1.53212 9.70311 50.0955
5.52361 9.268 21.9377
2.55708 6.25525 23.7028
4.70033 6.91492 22.4412
5.9536 32.4092 88.9921
5.36339 7.57643 25.3817
4.20441 9.27216 26.5661
3.58303 11.3809 28.9532
4.37278 19.3224 52.1458
2.38293 4.59345 24.6819
3.81075 13.57 45.3426
3.9055 6.64805 16.7791
1.94187 4.91975 27.3524
3.63947 14.0929 44.093
5.56048 12.4793 22.0514
1.0889 4.98998 21.7154
2.90644 10.0122 36.2089
4.50989 15.9878 38.5977
4.49444 16.404 58.4332
5.3061 9.70931 24.5442
2.30754 5.1195 33.7777
7.60762 35.438 107.786
6.2113 6.08124 18.8835
3.52804 11.5606 32.9507
4.0493 15.5429 55.1511
5.765 20.4087 61.2289
4.91443 6.16488 17.802
3.45904 11.2879 21.0161
1.60511 13.0326 58.0385
4.70416 9.02271 22.9188
1.77436 10.1379 79.3283
9.49181 19.3463 28.384
2.65149 12.5426 53.8202
7.08334 26.7685 61.2461
2.7699 4.92764 34.7513
4.7423 12.6961 25.5535
2.06781 5.3905 11.9495
2.23298 9.08922 22.4947
1.34936 6.27784 31.9562
3.14445 5.17563 17.8319
3.62399 12.4649 50.2795
7.55226 19.7744 37.3945
3.34089 16.0093 52.6689
3.62364 13.3803 52.5348
4.5975 11.3501 27.0816
3.8194 7.0683 9.9951
2.23915 15.874 41.0155
2.46305 10.8189 60.3702
6.61152 19.9907 57.5445
6.02852 13.3558 42.8657
5.15879 16.2039 38.9499
2.37741 9.04619 41.1061
5.10929 11.3571 21.3415
1.79973 11.9683 37.9498
2.97981 8.99871 39.5524
2.68923 7.71287 20.1442
2.63217 8.54263 32.6617
3.92378 15.4844 62.051
5.03378 9.82803 26.2207
2.63504 9.50922 32.7534
2.624 5.98884 18.2787
3.31654 14.679 48.0798
2.86381 4.52039 10.8571
1.32502 10.6983 35.8211
2.80679 4.18068 29.3445
5.84119 20.5532 47.6271
3.87907 8.87118 23.3156
2.66631 12.0668 33.8613
3.72799 11.5323 41.7066
5.84189 29.3934 107.195
8.9557 17.5954 42.1954
3.26181 7.93953 38.5708
3.30395 5.14762 29.5019
3.99412 19.8864 55.0575
3.96734 11.1459 49.8799
4.87359 9.53966 28.3147
2.50959 7.42857 51.914
6.46711 25.017 54.9339
5.01653 16.8698 43.9928
3.51624 3.15229 11.9442
2.85844 16.4003 60.2466
6.35853 16.3233 51.681
3.8831 14.4159 34.1736
1.80857 4.56 34.3218
3.5787 9.58239 17.1265
1.29419 5.93628 40.4662
4.1626 10.1735 25.0236
2.84481 10.1787 37.9357
3.78491 18.8268 55.6116
4.04961 8.34356 19.9164
1.94992 4.0141 22.1301
3.0658 15.8959 56.3493
5.35594 14.7311 60.9126
4.87593 7.20411 10.9985
1.26508 6.91939 30.6656
3.08091 9.93007 34.3223
3.42817 11.6118 29.0117
2.92292 11.1715 29.8944
2.48914 4.6847 20.9265
2.47676 5.47397 11.1196
1.32347 12.7068 56.0231
3.90018 4.72877 21.2086
3.45606 11.2599 38.0358
4.18008 11.2131 21.0055
1.83153 13.4734 59.8954
5.82701 13.7242 22.3308
1.26495 3.65557 22.2518
2.71081 9.34447 28.7352
2.45828 7.27744 21.0078
1.52744 15.6149 65.4159
5.87949 10.3534 44.6074
4.38874 14.4774 59.7662
7.56656 33.4003 112.213
8.07711 16.464 40.2173
3.69109 15.954 44.8157
3.20773 9.67756 41.5546
3.69778 6.46474 36.5878
3.5437 7.59324 54.4169
9.34698 17.6417 18.2731
1.08641 4.43587 27.6325
4.88612 15.3376 45.8238
4.05474 14.4626 38.0707
4.32442 13.862 56.7395
4.94289 17.5723 32.6865
2.50841 8.088 31.8851
2.69131 6.82435 26.026
2.85771 9.92193 27.6809
3.0717 12.2392 25.1828
2.19278 14.5553 45.0292
2.11409 3.2829 15.5422
2.81042 18.0281 48.481
2.33312 5.98237 34.4437
2.53959 4.16091 26.273
2.7452 12.3885 41.1673
2.90634 4.80447 22.3466
3.43167 17.1265 35.6427
1.78692 8.30873 32.1391
2.11131 8.75563 44.8808
3.68368 9.29271 27.8267
2.08497 9.47238 50.123
6.15921 19.1422 40.7797
3.21384 10.1209 44.9757
4.43153 11.9874 29.3669
2.38455 5.11663 15.4538
1.16987 9.00898 52.9907
5.44113 15.0129 37.6003
2.84192 14.6214 48.8561
2.54504 1.55735 25.1456
2.876 5.91146 20.5021
2.09905 6.69937 31.3583
3.9033 13.0906 37.3616
3.27433 9.14289 17.9502
1.50065 6.09316 33.9475
2.13037 4.44388 15.6198
2.24177 6.40605 37.3296
3.1186 4.53905 22.5642
3.31593 14.253 18.4393
1.81138 17.2973 58.9837
2.70503 7.71578 49.3858
3.93254 12.245 34.1342
2.47964 5.10758 27.2416
2.1949 8.23403 13.3539
1.34609 10.4562 34.5177
2.30076 12.2869 32.3293
2.64405 7.69086 21.7919
0.963434 2.31094 25.075
2.44531 7.9172 35.9673
3.97551 17.4592 33.1612
1.96339 3.53451 45.0782
5.12902 17.8526 44.6837
2.46652 4.14664 26.5531
2.56791 9.67456 16.6926
1.28973 7.53288 41.0691
3.84766 11.3512 24.8074
1.2975 5.15542 37.0538
3.63848 14.2993 27.6253
1.15005 4.11936 17.1261
1.4107 8.36639 31.4647
2.06719 4.0666 18.8507
2.18656 11.7784 32.9883
2.22048 9.60725 39.6346
2.29714 10.3347 82.2705
5.77099 13.8751 27.7385
1.93234 3.4546 34.3007
3.97302 10.6095 40.6849
2.79919 5.30345 9.88324
1.5494 4.178 25.2479
3.63055 10.9096 43.2845
3.64476 9.7059 38.2728
3.32245 14.6386 39.3528
2.05589 6.62835 39.6169
3.35192 9.38298 20.9274
3.12289 18.2825 61.657
3.4795 6.15782 54.4923
5.27108 17.7412 27.2838
1.89018 10.3656 44.0405
4.0927 9.82113 36.6502
3.6521 10.3966 28.1773
2.06807 5.50588 24.1682
3.16298 11.2983 28.9269
2.18573 4.77863 22.4801
2.12254 10.1568 30.0775
3.53374 8.93414 43.3948
3.24951 10.1472 28.8407
2.06588 12.793 39.9347
2.88682 2.97316 11.0482
1.39741 3.39825 21.814
2.14009 4.3945 17.2114
2.02754 6.19805 20.2619
2.24287 7.89053 21.6383
0.997013 5.60215 19.9858
1.50986 10.003 59.9564
3.60104 4.28272 26.1804
2.70345 8.97725 19.0214
2.40456 12.0462 48.3699
2.98484 5.30433 17.5045
1.53806 5.58108 30.2446
3.91656 12.562 11.8344
1.18987 12.3732 49.1522
2.90169 6.77276 40.7851
3.59177 15.0658 40.0966
2.25831 4.11021 20.4438
2.21092 6.49038 39.5809
3.13338 8.78496 14.7778
0.781436 6.10529 32.0274
2.65909 5.93562 30.5888
3.63129 15.303 37.9565
2.75408 4.79183 24.2563
1.541 5.62602 27.8023
2.28731 3.33722 11.8963
1.6624 5.87542 23.1746
1.70683 7.11775 17.3122
1.18507 5.01015 30.0011
2.48808 11.9763 38.1955
2.52077 8.50317 52.6979
4.25414 4.09105 29.9298
3.93202 18.888 70.1683
4.36724 13.4643 39.5359
2.60129 6.24915 29.0081
2.37493 9.74125 15.3416
1.73366 11.7175 33.4208
2.73642 7.61301 21.2908
1.5287 7.66177 76.6315
7.06741 22.1888 47.8357
4.68154 27.9548 73.0633
4.22957 12.8603 71.1509
4.75641 10.6108 56.3281
3.53265 5.35279 18.1446
1.62941 6.47511 37.1904
3.43124 11.2277 36.2735
3.12639 11.1787 39.1317
2.68372 2.75257 7.19118
0.688204 5.56164 37.7762
2.08443 11.1298 29.6156
2.09835 10.0788 25.3932
1.87856 4.59963 22.0983
1.39963 5.72672 37.1276
2.22512 6.85277 23.8671
2.48924 13.1476 23.9741
1.30273 12.7298 91.9223
6.4179 5.53645 30.7257
2.96558 10.0188 28.7564
1.95799 7.95182 40.7781
3.37689 14.929 28.1205
2.12067 8.06524 33.8988
1.55658 3.46139 13.7821
0.961924 6.58729 25.9876
1.76649 3.01377 37.5643
2.82473 18.4393 78.3641
5.75035 16.1447 28.0448
1.38712 6.70506 29.6552
1.61603 5.77837 34.935
3.16428 11.8372 26.4248
1.6532 14.6767 71.3039
4.62297 4.93562 16.0233
2.39711 7.59071 14.8488
1.49411 7.58156 22.783
2.16936 13.5319 55.3563
3.29514 4.43618 38.5472
2.93087 10.5271 36.6061
2.2793 15.0429 38.9756
3.13083 2.74668 26.0833
2.18118 4.98408 9.85885
1.62973 12.1531 35.1869
2.03694 5.70206 25.7562
2.60373 12.0311 73.2412
5.17899 17.7246 56.0964
3.41816 12.2044 51.7208
3.75698 15.1133 52.7466
3.74028 5.92841 13.3835
1.09981 3.83086 18.8418
1.36974 5.82074 26.0767
2.44703 11.3709 25.7227
2.03133 2.58781 15.0097
1.56327 6.46836 38.6072
2.77663 10.9438 37.523
2.1274 14.1177 38.9744
1.73173 9.1348 69.5753
4.38886 13.8501 31.4105
3.14549 8.9487 33.5951
2.66841 9.47973 29.4046
2.86378 10.2439 34.0494
1.9251 3.38223 13.878
0.63485 4.41195 30.2297
2.30703 7.70586 28.3751
1.16499 7.24222 38.1372
2.17848 6.3852 36.8402
3.22126 10.5674 40.6514
3.00725 15.7417 55.4588
3.8908 11.5075 20.5717
1.50746 4.32822 18.5568
1.68356 14.4858 59.234
4.15321 12.3833 49.4104
3.00402 11.2562 47.4754
2.57929 3.90338 13.2276
1.21942 5.71221 56.7463
3.9447 11.5061 18.1711
1.5487 8.40576 21.92
1.48829 8.49858 90.7585
5.87058 19.0036 33.7852
2.34252 6.43444 37.2753
2.2935 4.19886 9.9275
1.26751 9.10339 39.6969
2.49505 6.40817 27.3389
2.8845 9.38887 26.7173
1.82974 5.9863 29.2541
1.98422 7.35111 13.3546
1.50801 3.42234 9.06383
0.707984 6.12715 13.1073
0.668012 3.55046 15.7814
0.940989 2.65289 20.2966
1.90682 5.78173 35.431
2.20276 14.2759 36.0255
2.26917 7.44237 35.4369
2.81578 11.5562 42.5016
3.45832 10.7286 28.8183
2.29566 6.65898 16.7752
1.40731 6.0832 27.7727
2.17992 10.3249 40.0108
2.99604 6.93374 47.2387
2.62773 11.3363 28.0312
2.02057 7.93145 38.147
1.8155 3.52272 16.3543
1.59779 7.23371 24.8451
1.89541 9.46051 28.3663
1.67818 13.9435 44.2129
2.14479 4.31353 36.8978
3.09363 9.59058 30.3079
2.1713 7.96788 48.5948
2.01135 6.36654 30.4215
1.74054 10.0125 46.6416
3.5008 8.00577 26.908
2.28785 5.24327 16.8062
1.68578 8.65571 35.1345
2.4348 8.948 27.2886
1.68148 5.33886 26.4995
1.67534 5.93528 39.8381
2.95634 9.98802 14.1309
0.892428 5.1046 31.7849
1.89453 11.8007 47.7932
3.5525 12.4997 33.6436
2.46673 11.8427 16.5034
1.04906 10.2984 35.5949
2.29869 15.9163 67.6326
3.61992 9.70747 64.3276
3.59265 17.2527 79.0028
4.8133 13.3869 53.23
5.17988 6.81821 18.5858
1.28674 6.96873 48.5131
3.07555 12.0883 43.3828
3.15491 11.1051 20.6091
1.94188 12.9659 56.6474
3.6746 15.5941 68.9711
4.74072 9.70346 16.7297
1.39007 4.55522 19.2125
1.58795 6.4877 39.0791
2.84892 10.3063 38.5568
2.39072 7.12849 15.3041
0.882232 8.2066 29.7143
2.58217 3.94721 24.7186
1.84528 5.68151 16.1635
1.15123 12.8933 46.2644
2.70354 6.64604 21.0367
1.61091 8.33649 44.2375
2.58733 11.723 55.7648
4.11949 3.41837 21.3603
1.46182 13.6497 66.447
4.87509 6.73147 27.6188
2.17407 8.17437 27.4251
1.75475 15.5581 40.1977
2.73488 9.13163 40.2032
2.95931 6.30208 29.9071
2.12954 8.85037 13.9596
0.677556 6.81159 44.4398
3.15039 13.69 32.7878
1.77395 6.2499 27.9387
1.62429 8.45592 46.6374
3.50326 8.81942 43.6304
2.2537 6.00169 27.6914
1.77548 12.8322 34.4497
2.5406 5.47996 24.2882
2.24121 4.66727 52.0811
3.69363 12.6975 22.437
1.27709 11.0941 28.3186
1.94073 3.42908 30.4671
2.57828 8.80068 35.785
2.38557 6.13938 15.127
1.16499 1.94568 37.0647
2.68778 15.0548 45.6878
2.9159 5.50333 25.0244
2.56891 9.22615 58.6274
4.424 14.802 29.5257
1.93956 8.71984 46.2577
3.488 7.77393 23.4789
1.52069 7.55343 24.367
1.43221 5.99744 17.1686
1.59849 7.94129 30.2609
2.65705 8.48392 34.9583
2.29267 8.53745 35.2925
2.34934 6.723 59.789
4.49178 9.37708 21.7814
1.44569 18.439 54.4573
3.10826 8.2447 40.4185
2.77179 4.80665 7.40025
1.01365 3.95472 22.2408
1.47892 9.33821 34.293
2.67123 8.34161 22.5455
1.4719 6.71603 23.974
2.20877 1.88786 34.0507
2.30516 7.96747 17.8784
1.11029 4.80129 21.0741
1.64606 14.6761 43.796
3.35611 11.961 56.7256
3.60175 8.16032 10.3803
1.28528 10.2306 71.9328
4.35945 7.94761 25.0209
1.23856 3.62787 24.8852
1.88761 11.1345 43.0005
2.12358 6.66575 42.0211
2.86645 13.5725 65.2262
4.08631 5.71587 65.1851
4.56371 17.9576 18.2829
1.25733 10.8962 16.0183
1.15989 8.8724 22.7646
1.39695 7.66868 29.6697
1.65331 2.53269 27.1809
1.88608 7.61342 40.4967
2.31862 12.9101 77.711
6.45299 12.957 26.4979
1.60428 4.62094 37.0511
2.00112 8.29593 33.8769
2.07139 7.64836 18.9934
1.58415 11.3121 32.9244
2.73463 7.07369 67.573
5.70769 16.5079 40.8334
2.87378 18.6845 80.5442
6.56389 8.86193 27.4772
2.34575 8.09777 22.047
1.879 6.01033 21.3737
1.54274 9.4972 20.345
0.878096 7.49272 24.0699
1.62112 0 0