# pn-170911/RbIIR-53-RbIIF-1280-1959.psd
# Power spectrum* (dif=0,1,2) (really just |FT|^2)
# NOTE: only the first half! (symmetric)
# weeks: 1280-1959
# 2054 clock-days, 490 excluded
# PSD: 1441
1327.96 0.25699 0.0356314
38317.8 0.713111 0.0613809
193681 5.1769 0.0675227
25766.9 0.906923 0.0694123
98066.9 8.36256 0.0667575
8341.99 0.755164 0.0641844
9479.15 1.81319 0.0632968
4260.12 0.778018 0.0628299
5258.82 1.58766 0.0648543
2839.69 0.802517 0.0645446
2711.61 1.16376 0.0655196
1946.4 0.896418 0.0627579
2124.92 1.20081 0.0629945
1483.77 0.943825 0.0653712
1375.82 1.11345 0.0651329
1271.8 1.08813 0.063536
1204.88 1.3414 0.0653225
983.901 1.17347 0.061624
1085.62 1.40928 0.0631851
967.498 1.44576 0.0656023
950.421 1.55627 0.0658462
869.971 1.62224 0.0649539
866.141 1.83563 0.0696936
886.295 1.95433 0.0692083
830.001 2.06289 0.0699945
795.968 2.19643 0.0718133
777.72 2.30462 0.073328
776.946 2.44314 0.0735328
780.756 2.68769 0.0728999
764.839 2.85211 0.0758212
773.033 3.12294 0.0814999
770.633 3.26179 0.07545
806.707 3.64874 0.0871676
753.703 3.69899 0.084054
709.273 3.68464 0.0880413
771.526 4.20036 0.0884375
755.463 4.44686 0.095635
744.09 4.63598 0.0998787
729.059 4.7278 0.0988253
722.743 4.97611 0.101163
731.853 5.24701 0.110389
705.311 5.49238 0.106469
708.874 5.68534 0.110962
722.864 6.14481 0.112949
722.764 6.39889 0.121463
672.078 6.24103 0.119654
688.464 6.69862 0.136554
706.44 7.09316 0.143448
668.111 6.99211 0.142151
678.923 7.48931 0.150127
646.948 7.42631 0.149511
678.911 7.94364 0.169297
672.66 8.35517 0.174838
685.077 8.83864 0.181485
656.561 8.8814 0.186819
668.58 9.38596 0.201792
637.585 9.17217 0.203738
634.528 9.56193 0.211397
606.129 9.41173 0.210846
591.582 9.47577 0.220749
619.189 10.1525 0.240461
600.995 10.3375 0.24232
613.761 10.7177 0.26072
552.068 10.206 0.257605
576.911 10.9657 0.276502
561.199 11.1278 0.291397
537.426 10.8796 0.28146
527.79 11.0879 0.305015
547.264 11.6794 0.317994
545.688 12.0373 0.346841
528.64 11.9722 0.335775
512.869 12.0403 0.344698
517.667 12.3323 0.369072
492.992 12.0582 0.373006
482.507 12.258 0.396799
482.081 12.4924 0.386319
471.115 12.5478 0.403865
468.27 12.998 0.419471
494.599 13.8172 0.465721
457.928 13.2865 0.46047
433.756 12.8822 0.455732
425.645 13.1097 0.471491
429.618 13.4144 0.498974
437.565 14.0013 0.515168
411.223 13.3948 0.50082
413.06 13.9294 0.549029
403.077 13.7425 0.546461
407.062 14.4221 0.560428
374.073 13.4332 0.54275
382.403 14.0783 0.592186
382.385 14.4927 0.606634
376.875 14.6159 0.626286
360.604 14.2233 0.633705
350.156 14.0676 0.632262
352.629 14.4117 0.662268
349.225 14.6381 0.679892
392.815 16.8499 0.797607
331.382 14.3796 0.698331
332.683 14.7963 0.739659
320.71 14.57 0.735374
324.422 15.0198 0.760996
325.819 15.3898 0.808052
330.661 15.9306 0.842831
315.215 15.3713 0.823779
302.963 14.9946 0.816034
299.379 15.4411 0.875191
291.056 15.0767 0.863249
278.434 14.5702 0.851011
291.88 15.6557 0.923998
299.011 16.5606 0.978674
283.834 15.9089 0.9687
273.617 15.5534 0.963861
266.29 15.5144 0.969893
264.185 15.7081 1.01454
265.255 16.0588 1.05871
254.178 15.498 1.02453
260.965 16.4559 1.08299
248.177 15.7136 1.07135
259.268 16.8064 1.16879
243.489 15.9857 1.1235
240.963 16.1648 1.15807
234.733 15.9713 1.14321
237.38 16.4932 1.22821
240.095 16.8047 1.24301
231.389 16.4032 1.23043
236.472 17.205 1.3375
231.456 17.069 1.33595
223.879 16.6968 1.30587
220.851 16.7301 1.34397
206.464 15.9771 1.30655
213.347 16.893 1.40684
217.826 17.3081 1.45286
214.21 17.2359 1.46084
209.279 17.1539 1.4947
208.652 17.3625 1.51289
204.478 17.106 1.53483
198.581 17.0222 1.53156
198.632 17.1472 1.5519
187.726 16.5206 1.53807
182.12 16.4174 1.5564
189.671 17.3455 1.64691
190.306 17.4666 1.70008
180.324 16.7366 1.63673
175.34 16.648 1.65876
189.156 18.1688 1.82311
187.922 18.1096 1.85262
175.365 17.3028 1.80755
184.311 18.307 1.90288
176.871 18.2772 1.956
182.202 18.4617 1.97687
166.062 17.2822 1.86813
169.154 17.6482 1.95134
170.73 18.039 2.00574
167.873 18.1331 2.05743
166.153 18.2053 2.05237
163.322 17.8996 2.05169
157.903 17.7401 2.07832
159.763 18.368 2.17323
162.231 18.7637 2.23385
148.867 17.4513 2.13479
153.141 18.0038 2.1876
153.209 18.3819 2.3009
143.353 17.1537 2.15402
150.745 18.5857 2.36694
151.267 18.7829 2.42277
145.909 18.0404 2.333
145.691 18.5505 2.45659
151.676 19.4739 2.54419
141.293 18.2987 2.4748
135.531 17.85 2.42107
139.659 18.584 2.58162
141.173 18.8479 2.60212
132.66 18.1663 2.57451
130.054 17.7632 2.52014
138.689 19.4803 2.81838
141.011 19.712 2.86544
127.552 18.3165 2.6993
128.533 18.4464 2.72267
131.594 19.4302 2.93642
133.653 19.6816 2.98046
127.127 18.9716 2.89523
125.91 18.9218 2.95203
131.174 20.008 3.13378
133.534 20.3149 3.22113
127.412 19.6369 3.12161
131.443 20.4339 3.32724
124.644 19.7186 3.23226
125.269 19.8277 3.28726
118.268 19.396 3.27954
121.042 19.5606 3.31346
117.398 19.2591 3.27889
112.261 18.7905 3.25867
135.016 22.8379 3.92919
115.634 19.6274 3.44116
113.475 19.6613 3.48969
117.108 20.587 3.69471
115.855 20.2714 3.64509
111.376 19.7468 3.60406
112.147 20.28 3.72928
109.695 20.0603 3.76279
110.002 20.4322 3.88127
107.938 20.0838 3.79995
107.428 20.3336 3.96195
106.241 20.0582 3.88147
110.873 21.1688 4.15476
108.519 20.9457 4.15571
106.959 20.6814 4.09327
105.879 20.7368 4.16723
104.061 20.831 4.24051
104.727 21.153 4.38827
105.729 21.1248 4.35412
104.36 21.2396 4.39527
99.0099 20.5507 4.36242
99.7014 20.9293 4.48687
98.5816 20.642 4.4093
98.3177 21.0758 4.55878
104.32 22.4395 4.85428
99.782 21.7085 4.78793
95.7675 21.0972 4.74347
102.811 22.6639 5.04811
97.254 21.6755 4.94386
93.8918 21.2687 4.95871
103.007 23.0464 5.26857
92.1173 20.8695 4.86627
93.5505 21.5143 5.05535
89.0981 20.5465 4.9163
97.5752 22.813 5.43808
92.7744 21.9259 5.26278
97.8472 23.0791 5.5526
91.7272 21.9756 5.43488
92.2551 22.3686 5.50219
92.5318 22.4422 5.58016
86.8532 21.4882 5.431
91.6102 22.9268 5.85478
89.295 22.4874 5.71879
88.1831 22.6246 5.88345
88.6214 22.3508 5.73901
85.7709 22.1194 5.80307
86.4707 22.3906 5.94303
86.5184 22.475 5.97008
86.418 22.8277 6.16988
86.0261 22.8683 6.17034
83.3912 22.0903 6.01199
83.0864 22.457 6.21778
82.5343 22.6021 6.31478
81.5184 22.5065 6.29032
82.5335 22.688 6.38405
86.3749 24.0418 6.83104
82.9186 23.2978 6.63811
83.3824 23.7294 6.85674
82.7674 23.7743 6.92139
81.3834 23.4331 6.87127
80.6241 23.6179 6.97099
77.8165 22.8772 6.86138
81.6165 23.9689 7.14228
77.5755 22.9766 7.06333
78.5699 23.4352 7.10724
77.2828 23.379 7.20045
79.3937 23.9601 7.4065
76.8783 23.7021 7.43542
76.6067 23.5966 7.43434
77.0279 23.4852 7.40787
75.1153 23.1994 7.41353
78.8386 24.9266 7.94573
77.2957 24.6591 7.86761
77.791 25.0253 8.1518
71.7224 23.1789 7.71886
75.4942 24.1753 7.93825
73.7007 24.2327 8.07074
73.8373 24.4311 8.14238
75.7867 25.0443 8.44267
74.3503 24.6982 8.32727
71.8536 24.3166 8.34615
72.7088 24.6236 8.48073
72.6449 24.8021 8.56747
70.4814 24.1105 8.447
73.3224 25.3346 8.92908
70.4232 24.5829 8.77752
75.6123 26.0457 9.17378
65.3785 23.0327 8.34748
71.0721 25.4137 9.25187
71.0012 25.5618 9.41285
71.2935 25.4609 9.33889
68.9415 24.7804 9.12176
69.8717 25.6223 9.51126
65.8833 24.3185 9.24634
67.9764 25.0423 9.50319
66.8647 25.0235 9.60106
82.2452 30.6194 11.4846
64.5867 24.3364 9.39123
68.0704 25.1722 9.72677
66.1125 25.19 9.76175
65.8272 25.4301 10.0569
65.7362 25.5618 10.0826
64.1884 25.0382 10.0933
64.5522 25.2207 10.0408
62.5817 24.6478 9.96579
64.9817 25.663 10.3565
65.4404 26.4114 10.8497
63.4811 25.5003 10.5135
63.2172 25.6245 10.5969
61.4395 25.307 10.6143
62.8014 25.967 10.889
62.0558 25.5807 10.7574
61.1558 25.4237 10.8287
60.3864 25.2725 10.8089
59.663 25.1213 10.7215
62.6071 26.716 11.5862
60.7913 25.9709 11.2758
60.7667 26.411 11.5566
58.4158 25.6261 11.4502
60.6327 26.1817 11.5525
58.5924 26.1164 11.7134
58.8584 25.9516 11.6636
55.4178 24.3527 11.0976
59.0979 26.5021 11.9853
56.6419 25.4165 11.6434
56.7455 25.9975 11.9984
57.9887 26.3663 12.2234
58.6326 26.6673 12.3171
58.0218 26.6362 12.4371
55.6222 25.8423 12.2194
54.3178 25.237 12.0446
58.4439 27.3825 13.0284
55.367 26.2521 12.6439
55.1043 25.8607 12.4692
53.9215 25.6003 12.3915
53.5041 25.9039 12.615
55.7897 26.8213 13.1211
54.8428 26.5053 13.0204
55.6194 27.0446 13.2693
54.5448 26.9866 13.4732
54.3937 27.0147 13.688
53.4418 26.7649 13.5971
52.1844 25.7337 13.0264
53.877 27.2858 13.9762
52.5758 26.6587 13.7255
52.4296 26.7133 13.8758
52.6393 26.6761 13.8541
51.5934 26.3342 13.6613
50.6155 27.0812 14.6155
53.8004 27.7753 14.6998
52.3698 27.0797 14.3023
51.8276 27.1046 14.2857
49.5762 26.5644 14.4169
52.9287 28.1896 15.1757
49.8264 26.6244 14.3533
50.1085 26.8445 14.6433
50.6584 27.6217 15.1705
50.4001 27.632 15.3046
50.2649 27.6416 15.3829
50.5376 27.5759 15.4681
50.5142 27.7242 15.4652
48.9415 27.536 15.7598
51.9637 28.7841 16.0154
49.3236 28.045 16.0617
49.1573 28.1323 16.2658
48.7614 27.5432 16.0034
50.6291 28.6254 16.4292
47.174 27.0831 15.8075
47.9036 27.7176 16.3446
45.6015 26.0148 15.3194
47.6444 28.0806 16.7342
46.8304 26.9788 15.9407
47.2738 27.8627 16.6634
44.8469 26.6623 16.1919
45.1738 26.6403 15.962
45.8949 27.4287 16.659
45.7285 27.2649 16.4539
45.7451 27.9788 17.3699
44.242 26.8705 16.6816
45.9201 27.8366 17.1419
46.2029 28.6184 18.0361
45.5015 27.5808 17.1667
45.1074 28.0339 17.5932
43.9605 27.4149 17.5559
44.3865 27.7243 17.5858
45.4976 28.0741 17.6806
43.7951 27.7322 17.9075
44.1411 28.2694 18.1074
41.614 27.0115 17.904
42.7501 27.3943 17.967
43.6383 27.8608 18.1553
42.219 27.3118 18.3292
51.8172 33.4193 21.4804
42.5818 28.0148 18.7138
43.3122 28.494 18.9767
42.5477 27.7939 18.6168
42.7212 28.3038 19.0313
41.3831 27.5274 18.7579
43.0462 29.092 19.967
43.0153 28.5737 19.5581
41.4334 27.6155 18.9271
41.6501 28.3122 19.5212
39.9612 27.2501 19.029
42.3166 28.7912 19.8645
40.2731 27.7986 19.6097
42.0645 29.1761 20.5633
39.6272 27.3334 19.5662
41.5814 28.7149 20.227
41.3854 29.0203 20.6993
40.0701 28.1031 20.1111
39.7545 28.7991 21.0884
39.3532 27.661 19.9242
40.5322 29.1254 21.2986
38.9641 27.9646 20.463
39.2707 28.3759 20.9538
39.4824 28.2488 20.7065
39.7142 29.0195 21.3474
38.5313 28.1612 20.9033
38.4196 28.4151 21.1504
37.2451 28.1136 21.3578
38.477 28.5564 21.4815
37.1543 28.0263 21.6725
38.1283 28.7096 22.0465
38.8486 28.8681 21.7449
37.5085 27.9569 21.2563
38.4496 29.4445 22.4156
35.9466 27.7975 21.8548
38.3001 29.0076 22.5294
36.5236 28.0052 21.8429
36.5936 28.0605 21.9533
35.9819 28.3421 22.4817
36.6226 28.3715 22.1948
35.969 28.5738 22.9369
36.2695 28.2964 22.4909
35.4593 28.5108 23.2032
34.8154 27.9556 22.813
35.761 28.4758 23.3642
37.158 29.4057 23.7045
34.5854 27.8782 22.8223
34.2499 27.4515 22.3247
33.2825 27.0616 22.2227
33.0646 27.2696 23.0044
34.0573 27.7017 22.9246
36.0736 29.4815 24.3207
33.5061 28.0252 23.7631
34.8571 28.4919 23.8606
32.7292 27.1812 23.1575
34.3874 28.4681 24.1027
35.0823 29.7662 25.4053
33.7845 28.3026 24.3444
34.7191 29.3848 25.0914
34.5636 29.7869 25.7346
33.1178 28.199 24.7413
33.0408 27.8817 24.2837
32.4972 27.8332 24.2803
32.9211 28.1906 24.7982
33.3912 28.9086 25.5033
32.6657 28.4473 25.1574
32.2512 28.0546 25.0901
33.7614 29.4087 25.8998
32.5596 28.1803 24.9522
31.2029 27.7291 25.1831
31.3372 27.6347 24.785
30.8931 27.5932 25.1083
31.509 28.173 25.8469
32.4704 28.9091 26.0889
30.7393 27.7416 25.6823
32.1262 28.9533 26.3565
30.1772 27.1846 25.1963
31.2452 28.8964 26.8797
30.6181 28.1029 26.4001
32.1609 29.6276 27.6927
30.42 27.8933 26.0738
30.3867 28.2179 27.0561
31.3515 28.9522 27.1528
30.6832 28.9297 27.6086
29.9489 28.1804 27.1467
30.1097 28.2193 26.9525
29.9944 27.9136 26.8025
30.768 29.2506 28.1944
30.1694 28.6464 27.7551
29.8498 28.4707 27.7505
30.4233 29.0069 28.3228
30.153 28.9055 28.2232
29.4102 28.3913 28.0593
31.0577 29.6914 29.0764
30.187 29.3177 29.0969
29.296 28.7174 29.4939
34.7906 33.839 32.4247
29.5194 29.0345 29.0467
28.9026 28.9875 29.7926
30.3713 29.7889 29.573
28.7893 29.0451 29.9466
28.806 28.6435 29.1192
28.3956 28.4113 29.2293
28.1092 28.1979 29.4072
28.7579 28.7384 29.1431
27.8877 28.0149 28.9692
28.0704 28.6691 29.7171
27.1079 27.9023 29.4957
28.905 29.4926 30.7152
27.5864 28.5961 30.075
27.3655 28.1192 29.5448
27.7558 28.5351 29.9804
27.1733 28.8395 30.9491
27.9025 28.6939 30.1327
26.5663 28.311 30.6493
27.5983 28.6936 30.4628
27.3525 28.8113 30.5739
26.3829 28.2406 30.6965
25.5949 27.1757 29.5729
26.4747 28.1908 30.8134
27.1905 29.5232 32.5748
26.5319 27.8273 30.1764
26.3167 28.2559 30.7387
26.9778 29.3119 32.1377
25.5329 28.1453 31.169
26.0394 28.6798 32.45
25.5472 27.7977 31.3851
26.3471 28.5615 31.6146
25.4444 28.017 31.5374
25.8564 28.3583 32.0873
26.1064 28.1791 31.4655
26.8088 29.3402 32.2267
25.1682 28.4852 32.5394
25.0952 28.162 32.4296
25.0617 27.8703 31.6213
25.4923 28.7473 32.833
24.8407 28.7603 33.6038
25.0035 28.4977 33.3043
24.5664 27.6543 32.2167
24.9041 28.6045 33.4644
24.6786 28.0374 32.7399
24.1795 27.5963 32.3647
23.4524 27.3713 32.2425
24.1265 28.0911 33.2331
23.1774 26.9499 32.3125
24.1479 28.3209 33.9339
24.0442 27.7831 32.8401
23.4765 27.7217 33.3789
23.6254 27.5738 33.1925
22.8797 26.9208 32.5097
23.2215 27.3048 33.1143
24.2949 29.1043 35.1016
22.7481 26.8069 32.6562
22.5158 27.0306 32.9108
22.5937 27.327 33.8641
22.9425 27.8407 34.0442
22.6194 27.3818 34.038
23.5909 29.0211 36.1381
23.006 27.5703 34.3094
22.4926 27.3372 33.9333
22.4417 27.5206 34.2016
22.0437 27.3445 34.7602
23.5735 29.0192 35.9367
22.0656 27.2278 34.5208
22.1225 27.6411 35.0461
22.4318 28.2838 36.4306
22.4878 27.8305 35.1332
21.4172 26.8989 34.965
21.7823 27.1738 34.5827
22.1241 28.0849 36.6721
22.6431 28.2301 36.0558
22.5194 28.2232 35.9738
21.5014 27.662 36.0956
21.3065 27.4889 36.1489
22.5623 28.8722 37.4553
21.7941 27.8768 36.1406
20.5841 26.5478 35.44
21.8765 28.0724 36.5935
21.065 27.5136 36.5501
21.0563 27.4429 36.559
21.0932 27.5691 37.2563
21.3737 27.7667 37.0496
21.2181 27.9526 37.492
21.0839 27.6223 36.9393
21.3357 28.0179 37.9342
20.8746 27.1933 36.6555
21.3661 28.2942 38.4914
21.1472 28.3966 38.698
21.0129 26.8732 36.561
20.6572 28.4002 39.5383
21.2734 27.6578 38.0206
20.6855 27.7193 39.2598
24.6976 32.0603 41.8935
20.4445 28.1603 39.2585
20.889 27.6553 38.0177
20.3935 28.1418 38.8972
19.6361 26.9291 38.2624
20.776 28.6483 39.6494
19.7774 27.0174 37.6435
19.1693 26.5801 37.5989
19.308 26.7128 37.9324
19.9187 27.7593 39.1858
19.0156 27.0601 39.7992
19.5989 26.6333 37.534
19.5549 27.6139 39.3952
19.1658 26.9837 38.7867
19.4642 27.3789 39.7555
19.949 27.5454 38.6513
18.5409 26.7061 38.9327
18.4205 26.2568 38.7783
18.9316 26.8252 38.8089
18.5169 26.3073 38.2432
18.7711 26.8761 39.2454
18.4568 26.282 38.7068
18.6274 26.8301 39.5814
18.673 26.9681 39.6646
19.2097 28.7954 42.8844
18.5353 26.9971 40.8181
18.8401 26.7434 39.723
18.3209 26.5658 39.7832
17.8988 25.7871 38.7233
18.3491 27.4783 42.013
18.7485 26.6408 38.9476
17.5574 26.0126 38.8527
17.0115 25.3509 39.1494
17.9009 26.4531 40.3415
17.8121 26.4159 40.461
18.481 27.2784 41.4471
18.4643 27.7616 42.325
17.7891 26.2384 39.4809
17.02 26.09 41.3373
18.1557 26.9771 41.0046
17.1078 26.2047 40.4449
17.262 26.3636 41.2051
17.4309 26.5923 41.6349
17.5065 26.5061 40.8732
17.4971 26.6301 40.5055
16.5478 26.101 41.6427
16.3532 24.968 40.3442
17.2066 26.4309 41.1883
17.1635 26.9071 42.3223
16.8399 26.1819 41.9356
16.5939 25.5009 40.8982
16.4757 25.5479 40.455
16.2891 25.6663 41.0261
16.5471 26.3854 42.8117
16.7979 26.5455 43.4318
17.1258 26.1699 41.3435
16.1559 26.0928 42.8444
17.3212 27.404 43.888
15.4157 24.3117 40.6424
16.5893 25.6701 40.859
16.2458 26.6331 43.504
16.0462 25.7049 42.8891
16.3547 25.4702 41.2334
16.3322 26.0564 41.7239
15.2016 25.1492 42.2667
15.8071 25.511 41.8979
15.2592 24.9745 42.1945
15.7833 25.8941 43.3476
15.333 24.545 41.1638
15.3998 25.1362 41.9248
15.4057 25.1278 41.7704
15.3891 25.0226 41.4286
15.1561 25.4473 42.9457
15.5628 25.958 43.8412
14.986 24.7147 41.7434
15.4841 25.9932 43.8017
14.9038 25.19 43.4808
15.0619 25.0664 42.5759
15.0833 25.5813 44.3855
15.2277 25.4615 44.2319
15.63 25.9033 43.7203
14.8507 25.1377 44.0006
15.0278 25.4305 44.5347
14.727 24.4731 42.3926
15.0367 25.2205 43.4065
14.4329 24.9 43.7847
14.667 25.2362 45.1083
14.9756 24.9165 43.6571
14.781 24.4002 41.4165
14.2291 25.0487 44.2665
14.5555 25.2742 44.4139
14.0416 24.4349 43.6138
14.1537 24.3472 43.4398
14.7927 26.1377 46.1669
14.1449 24.7655 45.1044
14.5305 25.6775 49.0547
17.9678 30.3719 49.8636
14.1188 24.796 44.2344
13.9204 24.5635 44.573
13.8494 24.5173 44.4068
13.8565 24.198 44.2507
13.8793 24.5093 44.4125
14.1011 25.2909 46.2443
13.6868 24.0829 44.5919
14.2483 24.5329 44.7514
13.6198 23.8186 43.0023
13.5634 24.6716 45.501
13.9588 24.6197 44.3033
13.4967 23.9845 44.9541
14.1249 25.2987 45.7871
13.7907 25.1516 46.4563
13.3799 24.1228 45.2357
13.5638 24.4448 45.1785
13.513 24.2095 44.9943
13.5054 24.6004 45.9841
13.251 23.8938 44.9526
13.3677 24.0364 43.5853
12.7583 23.9349 45.3235
12.7922 23.2745 44.136
13.0096 24.1938 46.0942
13.2233 24.0154 44.515
12.9091 24.4567 46.9649
13.0838 24.0267 45.6276
12.8208 23.5941 44.8977
12.9339 24.3853 46.8776
13.1453 24.2495 45.5377
12.5685 23.8809 46.7094
13.2119 24.5917 46.4667
12.4304 23.2605 45.2393
12.4757 23.5829 45.9818
12.6404 23.8338 45.846
12.2572 23.3744 46.3415
12.6636 23.9346 47.0308
13.1106 24.6447 46.8779
12.0865 23.0419 45.9121
12.4617 23.9525 47.5438
12.4056 23.186 46.0176
12.2914 23.0354 45.2989
11.96 22.6584 45.5117
12.6145 23.9208 46.2188
12.1732 23.2607 45.8165
11.7824 22.8051 46.1189
12.4659 24.708 50.3323
12.9144 24.673 50.0558
13.6517 26.0329 49.3113
11.765 22.8352 46.0604
12.1498 23.8525 47.904
12.0891 23.3352 46.397
12.1081 24.0357 48.2479
12.1381 23.7038 47.5223
11.7071 23.7114 48.6861
11.8473 23.1767 48.489
11.9718 23.1947 47.429
12.3027 23.4412 46.5619
11.7988 23.4544 47.9486
11.9735 23.6155 47.3544
11.215 22.2881 45.7724
11.2717 22.6095 46.8734
11.4776 22.3586 45.8326
11.5246 23.3005 47.4071
11.0998 22.2823 46.6091
11.2187 22.5266 46.5742
11.3035 22.4711 45.8188
11.0206 22.4892 46.1083
10.8096 22.4027 47.6185
11.0174 22.0379 46.1206
10.9378 22.4618 46.8831
11.0652 22.6155 47.8622
11.1266 22.7215 48.204
11.258 22.7363 47.0381
10.8801 22.3854 48.464
11.5384 23.768 49.591
10.9328 22.4999 47.9719
10.8327 22.2483 47.6395
11.3489 22.8998 47.1063
10.3751 21.4509 45.9518
10.4257 22.0555 46.9517
10.5024 22.0657 47.86
10.4147 21.4815 46.5064
10.8073 22.6779 48.7044
10.5827 22.4024 48.6078
10.3886 21.5032 47.007
10.4646 22.0813 47.7492
10.3051 21.614 47.6666
10.5224 21.7972 47.0705
10.5753 22.6635 49.3646
10.3157 21.4949 47.3832
10.3957 22.2666 48.3669
10.4533 22.2045 48.9114
10.3387 22.0627 48.3343
9.89287 20.69 46.2311
10.2049 22.1334 51.9977
12.2653 25.6159 52.4047
10.1923 22.1287 49.4843
10.2233 21.1773 46.7615
10.2922 22.0437 47.6198
9.84288 21.2961 47.1546
9.84136 21.7471 48.6124
10.1443 21.5002 47.1994
10.1234 22.4767 51.153
10.1313 21.8684 48.7683
9.73834 21.0473 47.8896
9.91458 21.6013 47.7352
9.836 21.7703 49.7971
9.85152 21.0989 47.6902
9.57236 21.1291 48.142
9.73867 21.0884 46.9202
9.58674 21.6963 50.1118
9.98259 21.6057 48.5207
9.76863 21.314 48.5077
9.71382 21.2356 47.2631
9.24419 20.8673 48.9402
9.70392 20.7521 46.838
9.64888 21.9258 50.157
9.64755 21.4748 48.8105
9.3214 20.7652 47.6886
9.04937 21.2272 51.2069
9.56147 20.5758 47.7743
9.08729 19.9693 46.7435
9.14793 20.4612 47.6138
9.06206 20.8532 50.3308
9.55546 20.679 47.5189
9.35348 21.3502 50.2468
9.6589 21.6759 49.8434
9.32761 21.0351 49.443
9.22448 20.7742 48.6169
9.29331 21.3897 49.2147
9.11681 21.4896 52.2335
9.25848 20.5561 48.093
9.03725 20.477 48.3386
8.83762 20.2433 48.1713
8.88907 20.3289 48.5576
9.07726 20.3882 47.5584
8.6434 20.1214 48.2944
8.77199 20.4886 50.1767
9.13278 20.3805 47.8136
8.91934 20.8193 49.0986
8.79757 20.0309 47.9789
8.59814 19.8073 48.0043
8.54299 19.8673 47.5289
8.44429 19.9815 50.035
9.12907 20.9554 49.4266
8.55098 20.1946 49.0952
8.79123 20.3989 49.5607
8.84484 20.6078 49.7505
8.88474 20.6922 48.9916
8.45984 19.9494 49.1954
8.78209 21.1099 50.5916
8.43443 19.8132 48.0967
8.24097 20.056 50.4266
8.54477 20.2472 50.4864
8.80393 21.0683 52.5961
9.0393 20.8375 49.9421
8.43429 20.13 50.4392
8.35326 19.4236 48.0187
8.26236 19.9857 49.9127
8.8694 21.3387 52.5075
8.32857 19.7517 49.3447
8.11078 19.4317 49.048
8.40635 19.8888 48.1696
8.14494 19.807 49.1056
8.07815 19.7194 49.5536
8.23623 20.151 50.3482
8.09211 19.9039 51.172
8.39553 20.4619 51.741
8.40931 19.8449 49.846
8.06274 19.6815 50.2972
8.24478 19.7081 50.2857
8.09745 18.9485 46.4709
7.91732 20.3542 51.225
7.96969 19.2657 48.5028
7.69186 19.1344 49.601
7.9395 18.9487 47.6096
7.8746 19.8363 50.1001
7.85787 19.4213 48.7485
7.45455 18.8931 49.7626
7.90266 19.3501 49.4821
7.86181 20.2833 53.2292
8.07509 19.6063 50.8904
7.98651 19.5719 50.7876
7.96872 19.5237 48.7378
7.56474 18.985 49.4579
7.87443 19.5419 49.9878
7.73718 19.9042 51.8885
7.93902 19.7889 51.4891
7.67623 19.2135 50.4844
7.82532 19.6922 52.0691
7.96137 20.6445 59.0327
9.87781 24.0672 56.7752
7.96684 19.8452 51.9732
7.8265 19.8663 52.0181
7.78101 19.7051 52.1184
7.71598 19.2266 50.6323
7.5657 19.1413 51.0808
7.86069 19.9185 50.5844
7.3879 18.941 49.8496
7.34447 18.903 50.53
7.50764 19.0018 50.0989
7.32723 18.6579 50.3371
7.30171 18.454 49.3401
7.36559 19.1565 51.2804
7.29952 18.822 49.7243
7.18679 18.3554 49.0922
7.26326 18.884 50.2426
7.02788 18.3738 49.9582
7.41164 18.9707 49.4485
6.83944 17.6898 47.916
6.83041 17.6836 48.5428
7.04145 18.4206 49.9466
7.24434 18.8972 49.611
7.00054 18.5484 51.9077
7.34151 18.9335 50.2065
7.12293 18.4419 48.1129
6.77968 18.0797 49.5113
6.79211 18.1953 51.0978
7.12122 18.1657 48.7177
7.04422 18.8275 51.1042
6.96783 18.1239 48.9616
6.71829 17.3871 48.0498
6.8687 18.3167 49.4744
6.70686 17.5608 48.7713
6.82394 18.3853 50.2756
6.71763 17.8019 49.7893
6.8257 18.11 49.5262
6.75423 18.0698 50.2159
6.84186 18.5183 50.9064
6.84541 17.9649 49.6966
6.55634 17.4861 48.4696
6.43156 17.2339 48.8936
6.69048 17.5713 47.5297
6.32719 17.4513 49.3612
6.58059 17.7561 50.2678
6.56629 16.8862 47.764
6.5576 17.6653 49.1535
6.48158 17.836 50.6954
6.72936 17.5871 47.9711
6.37932 17.5627 49.9087
6.65547 17.9225 49.5125
6.48339 17.5727 49.7094
6.59408 17.9871 50.1548
6.35482 16.9998 49.4037
6.74561 18.214 49.7351
6.30521 17.7253 50.9263
6.54466 17.5689 48.824
6.35028 17.8905 50.5143
6.30681 17.1647 50.6874
6.62416 17.9561 49.0543
6.10515 17.002 49.3564
6.29231 17.3048 49.1824
6.0902 17.1459 49.7111
6.25452 17.1165 50.2895
6.41406 17.6488 49.7275
6.24201 17.1792 48.2923
5.86817 16.3763 48.45
6.18821 16.8481 48.0365
5.90687 16.5545 50.2054
6.38764 16.4832 46.7539
6.14363 17.1616 48.8246
6.2248 17.3148 50.0754
6.17821 17.4817 50.9795
6.1759 16.8587 49.2325
6.24396 17.9215 51.6285
6.12625 16.8146 49.8914
6.08224 16.6614 47.6122
5.86881 16.574 49.4377
6.10377 16.8134 48.0908
5.7637 16.5173 49.3475
6.26175 17.8505 50.8261
5.98099 17.389 52.1775
6.14542 17.1709 50.8003
6.14821 17.3925 50.2753
6.00272 17.1087 50.955
6.12655 17.1051 50.3929
5.97266 17.1191 50.2495
5.86314 16.7941 49.8604
5.85346 16.6659 49.5485
5.86639 16.7383 51.1664
6.27634 17.8751 51.794
6.03849 17.0453 49.9035
5.84236 16.4442 47.7558
5.64186 16.7893 50.9102
5.93187 17.0999 51.1047
5.91806 17.1236 51.9083
5.84762 16.9636 58.8132
7.54949 20.3227 51.8606
5.8107 17.3296 52.1901
5.97373 17.5696 53.7215
6.14928 17.2105 50.3238
5.68524 15.9961 48.2026
5.59894 16.4979 50.5555
5.83926 16.3857 48.3995
5.6655 16.6521 49.4245
5.6332 16.4311 50.3401
5.77617 16.6669 49.1855
5.49454 15.7068 48.6554
5.62957 16.0492 49.3013
5.75785 16.6149 50.3819
5.59536 16.2494 48.8978
5.58192 16.0489 49.3012
5.56499 15.7652 48.5829
5.66965 16.6908 50.7562
5.4477 15.3853 47.8631
5.49687 16.0788 49.8305
5.76011 16.6964 49.3593
5.44313 16.297 50.0521
5.56504 16.6616 52.227
5.75904 16.6765 51.3833
5.69972 16.3054 49.0899
5.40732 16.2547 49.975
5.50633 16.0075 49.3272
5.45582 15.842 48.7202
5.27356 15.5156 48.2814
5.31659 16.0504 49.4664
5.3377 15.9251 50
5.41972 15.9627 50.8307
5.67013 16.1034 49.3718
5.45387 16.1095 49.9257
5.35828 16.0365 48.3391
5.20148 15.7335 48.7253
5.10844 15.8465 52.0046
5.55339 15.6093 47.4818
5.09274 15.6297 49.0885
5.29986 16.2072 49.2968
5.16927 15.7089 50.0661
5.20408 15.4358 49.487
5.19245 14.7355 46.9717
5.12999 15.6267 48.8963
5.13254 15.2187 48.2218
5.16122 15.9471 49.4313
5.1917 15.735 49.6159
5.13124 15.4946 49.5939
5.23597 15.6928 50.0074
5.32 16.1125 49.5064
5.01323 15.1958 50.1231
5.29717 15.6164 48.919
5.23035 16.3609 50.1527
4.97298 15.1966 49.5487
5.11072 15.4718 49.6927
5.16121 15.3475 48.0495
4.8445 14.7579 47.5606
4.91818 15.1602 48.6674
4.99976 15.4771 49.041
4.98386 15.1361 48.6237
4.93265 15.2788 49.0501
5.01912 15.4363 50.1175
5.01863 15.1887 50.4503
5.21354 16.1006 51.4127
5.10189 15.3162 47.7306
4.88324 15.1259 50.3771
5.0307 15.4575 48.4658
4.80775 14.8407 48.6201
4.95229 15.4665 48.282
4.74327 14.9189 48.903
4.79948 14.7942 48.5896
4.88976 15.694 50.6419
4.80992 14.9044 51.1764
5.08409 15.231 49.0369
4.86331 15.0611 49.3675
4.97773 15.3799 49.5678
4.78747 14.6384 47.1494
4.67754 14.47 48.8554
5.04366 15.9089 50.2513
4.84051 14.5816 46.4831
4.59948 14.6725 48.7314
4.73449 14.9469 49.1617
4.83189 15.5996 51.2924
4.83466 14.3445 47.8138
4.81363 15.222 49.9107
4.86422 15.3403 50.3382
4.83504 14.8882 48.625
4.70754 14.706 49.0415
4.83305 15.437 50.9346
4.76874 14.4682 49.1446
4.88062 15.3912 48.5309
4.66056 14.926 49.7345
4.73097 14.5784 48.657
4.64896 15.0198 50.8003
4.79728 15.2282 50.6235
4.70735 14.8841 49.6492
4.72803 15.5878 61.2425
6.06615 17.3604 48.8344
4.43415 14.1147 45.2689
4.30957 14.1488 47.862
4.53042 14.9144 49.7946
4.54075 14.4779 49.1223
4.64145 14.4716 47.9217
4.50091 14.5139 48.7273
4.51437 14.7332 52.0339
4.98954 15.2842 48.8363
4.48729 14.2583 46.9557
4.33208 13.9853 46.8095
4.40192 14.5359 48.1088
4.39193 14.171 49.4235
4.54086 14.4785 49.0372
4.46286 14.6112 51.2835
4.72113 14.6212 48.0738
4.43361 14.2006 47.7842
4.50226 14.7495 49.3671
4.50288 14.3146 48.9553
4.45166 14.0275 47.1988
4.39247 14.7004 50.3813
4.6729 15.0838 50.9001
4.59103 14.3183 48.76
4.4817 14.4526 48.5976
4.47414 14.8082 51.1359
4.56969 14.2207 47.6881
4.37772 14.4246 48.232
4.39189 14.2404 48.4111
4.34699 14.0196 47.9415
4.32921 13.9882 48.2578
4.30197 13.9598 49.3464
4.47173 14.3651 50.0923
4.52267 14.4439 47.8855
4.2944 14.4713 49.6473
4.35873 13.9631 48.7296
4.33545 14.4173 49.0524
4.30235 13.8132 49.6578
4.42835 14.2437 47.2515
4.13679 13.8878 49.3377
4.29443 13.6786 48.9283
4.42859 14.2574 49.2491
4.36584 14.1015 48.3773
4.42629 14.7771 49.3453
4.20606 14.0036 48.7447
4.32085 14.0223 48.3697
4.20544 13.4778 45.948
4.06133 13.8371 48.9973
4.21024 13.8675 49.233
4.35603 13.7764 48.2559
4.23277 13.6566 47.654
4.27485 13.9565 47.781
4.24387 14.2763 48.2184
4.1509 14.1191 48.7675
4.15244 13.9245 49.5559
4.3076 13.7207 46.6214
4.14852 13.7279 48.2065
4.12613 13.7466 47.4629
4.13884 14.0579 48.6181
3.99144 13.5594 48.8835
4.26902 13.4338 46.5056
4.01877 13.4826 47.591
4.1748 13.541 47.7368
4.03416 13.8828 50.3336
4.33099 13.9502 48.8906
4.1491 13.8855 48.834
4.1624 13.5513 47.9958
4.08129 13.6351 48.8296
4.2038 13.7392 47.6819
4.06871 13.7633 47.7721
4.01407 13.468 47.4273
3.96677 13.7073 48.8353
4.00082 13.3201 47.4297
3.97959 13.4336 48.5088
4.12421 14.2038 49.8623
4.20521 13.8738 48.6723
4.06713 13.7925 50.3124
4.16626 13.6599 47.8
3.98634 13.6352 46.9505
3.92633 13.5271 48.8774
4.01264 13.5368 50.0084
4.15482 13.1965 46.3326
3.92684 13.9564 49.4021
4.00093 13.2374 48.7128
4.11255 13.6548 46.9111
3.85469 12.9095 46.263
3.84614 13.3422 48.4566
3.98665 13.6002 48.0399
3.90442 13.5048 48.4049
3.99647 13.1042 48.0033
3.96305 13.3339 48.7305
4.06208 13.3517 47.8635
4.06422 14.0113 48.879
3.95947 13.3873 48.4801
3.93647 13.2272 48.8477
4.12754 13.9982 50.4661
4.08011 15.0524 62.3493
5.19446 16.3231 52.4628
4.1946 14.1845 50.6467
4.20784 13.8566 50.6059
4.07161 13.8175 49.002
4.06899 13.4529 48.0466
3.82838 13.2951 48.9057
4.0282 13.4851 49.1761
4.06349 13.9994 49.9648
4.04417 13.5199 48.2315
3.88519 13.5297 49.8366
4.03943 13.62 49.6478
3.98388 13.7554 48.0734
3.83553 12.9223 47.3121
3.72986 12.7527 48.645
3.95666 13.5733 47.7091
3.81692 13.5993 49.008
3.84355 12.6249 46.8737
3.73091 13.0886 48.3272
3.82942 13.1298 48.0465
3.86433 13.555 49.1935
3.84319 13.4822 48.1737
3.71989 12.6665 46.4996
3.67299 12.8799 48.1145
3.79737 13.3329 48.3897
3.71938 12.6691 46.1764
3.63177 13.0724 47.4188
3.68058 12.8993 47.0709
3.65847 12.8463 48.9858
3.81266 13.4713 47.8324
3.70904 12.885 47.0216
3.72693 13.1638 48.3004
3.62481 12.3868 46.5417
3.6289 12.9755 47.9931
3.68705 12.6599 46.0725
3.54457 12.4684 47.2669
3.72361 13.0055 48.7267
3.74045 12.4805 46.0145
3.57574 13.0513 48.1053
3.70144 12.6953 47.2991
3.68734 12.6532 46.0812
3.53039 12.3995 47.0694
3.64752 12.6465 46.8605
3.60383 12.3983 48.5127
3.79054 13.0666 47.6252
3.69253 12.9426 45.8271
3.49391 12.4279 46.4689
3.58615 12.5733 47.1884
3.5607 12.8328 49.6362
3.8422 13.1926 47.6592
3.63448 12.8795 46.4277
3.50599 11.9657 47.3658
3.67999 13.0464 47.4846
3.62967 12.1017 45.2188
3.46268 12.3373 45.537
3.48929 12.6295 48.0249
3.69065 12.9055 47.8279
3.60483 12.6633 47.447
3.62817 12.4746 45.6957
3.43023 12.2335 46.9101
3.54297 12.6571 47.9425
3.62729 12.5937 45.2994
3.42602 12.4666 47.671
3.53145 12.2154 45.8675
3.45676 11.8025 45.435
3.51589 12.7647 47.1751
3.60089 12.5889 46.3738
3.47412 12.4223 48.3579
3.62965 12.6102 46.4504
3.44601 12.3611 46.7249
3.50525 12.3016 45.3998
3.36494 11.6835 46.1283
3.49859 12.6461 46.0168
3.44384 12.5271 45.5261
3.4395 12.8493 48.0824
3.46861 12.092 47.1829
3.53306 12.4453 47.2499
3.53478 12.4608 45.9234
3.40027 11.869 45.2589
3.43725 12.3607 46.9459
3.42655 12.6703 47.4036
3.48992 12.4687 46.4886
3.38911 12.2409 47.1873
3.47918 12.284 47.5463
3.53234 12.45 47.9253
3.53199 12.4656 47.1425
3.49291 12.5188 47.7136
3.50059 12.417 46.1281
3.3999 12.4025 47.0781
3.41913 11.8874 45.7853
3.36614 12.1582 47.1022
3.46245 12.3212 44.7934
3.25107 11.8911 47.1077
3.47141 11.9124 46.1502
3.46449 12.2746 44.7013
3.27632 12.2342 45.9453
3.41204 13.0207 60.142
4.42439 14.522 46.7537
3.41547 12.2634 46.688
3.41989 12.549 46.614
3.39636 12.2379 47.0323
3.41589 11.8462 46.1934
3.41864 12.3632 48.707
3.51491 12.6172 47.6793
3.47008 12.4147 45.7511
3.33143 11.6847 46.9994
3.4534 11.8926 45.1622
3.37141 11.9396 44.3406
3.23112 11.8111 45.8668
3.3304 11.9493 46.4505
3.40176 12.3781 47.3287
3.41051 12.0264 47.4288
3.47583 12.6023 48.7569
3.52419 11.8261 45.8286
3.33662 12.2134 46.3062
3.3855 12.0631 46.1703
3.33479 12.3859 47.1499
3.32552 11.7701 46.9159
3.39768 12.1787 46.3208
3.37001 12.6299 46.9269
3.29379 11.7106 46.8961
3.38764 12.3693 46.2014
3.2565 11.5416 46.3306
3.33135 11.7166 44.1097
3.17311 11.8175 46.1841
3.28871 11.6076 45.0748
3.24539 11.5193 44.931
3.25159 12.2628 46.7854
3.25524 11.8096 46.7354
3.3313 11.8523 45.5322
3.27585 11.93 45.479
3.22316 11.9075 44.0039
3.17561 11.8107 45.4757
3.14457 11.5974 45.4374
3.29441 11.4883 46.2324
3.33437 12.0399 45.5118
3.24161 12.1334 47.4572
3.39972 12.0393 45.4987
3.23596 11.7135 46.6079
3.31124 11.5426 44.5018
3.17619 11.6197 44.9868
3.25624 12.037 46.1066
3.22196 11.6105 44.1539
3.15222 11.4006 44.7003
3.18459 11.4902 44.6837
3.22979 11.8214 45.7653
3.27103 11.656 44.4579
3.14214 11.6146 47.0972
3.27506 11.5657 45.9239
3.22608 11.804 47.1764
3.34171 11.9772 44.9012
3.21756 11.687 45.4641
3.26879 11.7929 45.5926
3.21454 11.3574 45.4989
3.22 11.812 46.2884
3.18255 11.4631 45.5246
3.20793 11.6947 45.757
3.19535 11.789 44.7173
3.10269 11.3534 43.6957
3.07683 11.4796 45.3187
3.16577 11.7715 47.722
3.30836 11.8216 45.8241
3.18334 11.6635 45.6468
3.16894 11.8901 45.9847
3.20623 11.055 44.1314
3.09503 12.2169 47.4961
3.30498 11.4897 44.6507
3.12129 11.718 45.7056
3.14343 11.459 45.9322
3.19274 11.6069 44.7256
3.08251 11.6767 46.533
3.20113 11.4772 44.6412
3.16131 11.3757 44.344
3.09987 11.048 45.149
3.16945 11.7261 46.4238
3.24374 11.8318 45.5827
3.18586 11.409 43.9582
3.03855 11.2227 46.3865
3.21491 11.8984 45.6107
3.14587 11.6461 45.3442
3.16027 11.5402 46.0617
3.22672 11.911 46.2359
3.20007 11.6619 45.336
3.14962 11.1058 43.9475
3.06852 11.982 44.9491
3.05547 11.0932 44.9284
3.00917 11.5797 47.0736
3.27032 11.4797 46.2877
3.1448 11.3327 44.7689
3.20422 11.7212 45.201
3.12405 11.9375 45.8159
3.16376 11.6574 45.0507
3.07775 12.4091 60.1376
4.10207 13.4566 45.5916
3.13404 11.7354 44.1639
3.07919 11.5812 45.5346
3.09389 11.3615 44.7897
3.13013 11.4131 42.8063
2.91212 11.0554 46.3628
3.24684 11.625 43.8408
2.98893 11.386 46.1205
3.12991 11.9134 45.4961
3.16459 11.2186 44.6334
3.08618 11.8032 46.7718
3.24896 11.6755 45.4359
3.10979 11.4501 46.4603
3.23944 11.6279 45.1309
3.08713 11.4065 45.0314
3.16262 11.6761 46.6145
3.19167 11.3838 45.0154
3.13436 11.3016 46.7583
3.19129 11.2733 44.1166
3.07157 11.8433 46.7967
3.22483 11.8296 45.7672
3.11135 11.4556 46.7112
3.17206 11.9511 48.0479
3.29017 11.8459 45.1264
3.06221 11.35 45.0108
3.04883 11.4105 46.7975
3.15108 11.8142 46.018
3.10604 11.2102 45.5745
3.14315 11.5131 44.8576
3.05891 11.4624 43.4132
2.94873 11.0813 45.0111
3.05474 11.3268 47.0707
3.18811 11.8756 44.8516
3.03291 10.8289 42.2872
2.88865 10.8327 44.8405
3.05227 11.5016 44.7705
3.03838 10.9492 42.9447
2.95671 11.0596 45.2448
3.08997 11.5062 45.8597
3.11999 11.0489 43.1711
2.91219 11.2991 44.7672
3.00354 11.3355 45.0072
3.03453 11.4254 46.7582
3.10376 12.0112 45.9156
3.06432 11.3532 45.37
3.04902 11.7515 45.346
3.07054 11.0957 44.8384
3.07273 11.5123 46.7417
3.19391 11.316 45.0543
3.06623 11.6834 46.5139
3.15357 12.0177 45.6056
3.05323 11.161 44.3315
2.97873 11.557 46.2424
3.14707 11.1872 45.3861
3.07118 11.5818 45.7033
3.07259 11.1981 44.6738
3.04773 11.3327 45.5578
3.10944 11.4582 45.8689
3.07226 11.5734 45.9322
3.13418 11.433 43.9999
2.95053 11.2166 45.8894
3.07653 11.1529 43.6552
2.94683 10.8485 45.0346
3.04507 11.6931 45.2522
3.03847 11.2688 44.7885
3.01272 11.3062 45.56
3.06023 11.2413 44.9949
3.06903 11.3768 46.6139
3.19029 12.2292 47.296
3.24542 11.4379 45.859
3.07749 11.6649 45.0646
3.04616 11.4135 47.2768
3.18793 11.4558 44.6299
3.05887 11.5024 46.329
3.12664 11.0784 45.6183
3.07739 12.0201 46.8028
3.15102 11.1589 46.8391
3.17845 11.5418 46.3924
3.18271 11.9326 45.9285
3.08751 11.6914 46.1161
3.12263 11.3491 46.2636
3.17352 12.0227 47.1927
3.16497 11.8285 46.6908
3.11669 11.6251 46.5896
3.12389 11.6466 45.8363
3.10378 11.684 46.6449
3.13666 11.7065 47.0811
3.14374 11.827 45.3623
3.031 11.6874 47.4864
3.22659 11.5255 46.5027
3.13742 11.9748 47.7093
3.22247 11.673 47.1678
3.19535 12.2903 48.891
3.26974 12.3915 49.3414
3.30268 12.1838 48.3405
3.24536 13.8132 65.1044
4.2999 0 0