# pn-170911/RbIIR-55-NIST-1280-1959.psd
# Power spectrum* (dif=0,1,2) (really just |FT|^2)
# NOTE: only the first half! (symmetric)
# weeks: 1280-1959
# 4 clock-days, 2 excluded
# PSD: 1441
65.9584 0.0625694 0.0295483
13997 0.0923611 0.0777764
200516 4.30638 0.0613299
15847.2 0.80841 0.0719552
66111.2 4.85688 0.0573319
2631.95 0.19844 0.0470892
4975.83 0.808994 0.0812276
1194.63 0.5526 0.104869
2406.99 0.735193 0.0767477
1227.72 0.53837 0.0651422
511.807 0.297102 0.0732585
618.593 0.558421 0.0515365
728.091 0.364351 0.0544209
906.202 1.10533 0.081014
659.673 0.424503 0.0917351
391.272 0.521127 0.0838855
225.13 0.470212 0.0858017
238.299 0.318354 0.0653569
243.039 0.737482 0.0452431
228.776 0.665483 0.0518591
483.402 0.778265 0.0837358
150.417 0.25003 0.0881194
433.581 1.21368 0.0893592
313.644 0.383039 0.0770465
317.319 0.822562 0.0930147
319.183 0.96313 0.0371025
345.777 0.860304 0.0526174
416.381 1.95106 0.0529974
84.8678 0.628116 0.0963176
321.131 1.38223 0.0784364
376.102 1.6781 0.067365
84.4785 0.725392 0.0996896
454.814 1.72065 0.0723745
617.65 2.61296 0.101087
243.067 1.15747 0.0705519
327.853 1.85525 0.0871454
343.828 1.69081 0.0732019
45.2391 0.12189 0.0847763
141.253 1.16706 0.104323
257.656 2.34208 0.105379
205.096 2.23501 0.0234656
331.864 2.69402 0.0694312
205.409 1.97469 0.0785239
158.556 1.78978 0.0802052
325.805 3.08463 0.0902104
162.71 2.23821 0.0778358
230.008 2.32214 0.0423484
284.147 3.3166 0.033796
202.276 2.00868 0.0323692
337.002 2.90727 0.108998
191.481 2.53752 0.142159
350.613 4.07388 0.0677244
339.75 3.80983 0.188501
145.96 2.90135 0.0959336
370.443 4.6466 0.136398
300.543 3.69437 0.150969
491.541 7.17337 0.18317
151.319 2.13342 0.128364
81.4537 1.67519 0.108825
112.236 1.41092 0.0712843
257.344 5.07007 0.112782
179.864 3.54167 0.265632
494.027 8.92993 0.189579
135.605 2.76716 0.0959406
404.931 7.77391 0.18728
479.649 9.07077 0.111994
205.538 4.2048 0.217013
176.755 3.83738 0.20692
113.957 2.39121 0.131393
393.962 10.5535 0.340057
187.206 4.58003 0.147988
423.24 8.9858 0.307011
87.1587 2.54303 0.0844563
291.245 6.96351 0.152034
255.39 6.84339 0.163983
98.2592 2.39497 0.178908
176.279 5.33046 0.196589
115.848 2.36782 0.105997
219.235 6.62489 0.111805
129.096 3.85688 0.261245
127.398 4.25712 0.150811
119.578 3.99611 0.164458
120.094 3.0584 0.125763
194.654 5.9912 0.121294
96.8138 3.94146 0.131989
62.0816 1.96642 0.180668
127.206 4.70967 0.197409
132.421 4.24329 0.0996382
163.077 6.97516 0.273337
179.069 6.79591 0.341565
44.4517 2.19397 0.111072
200.205 6.30569 0.389557
252.841 10.3868 0.317086
128.593 5.45457 0.22659
406.569 15.3936 0.771934
196.335 9.32723 0.55421
363.695 18.531 0.708722
229.66 10.1032 0.650278
124.326 5.09664 0.28609
298.925 13.9435 1.00908
135.255 6.30486 0.258327
103.893 5.19778 0.484974
217.826 11.2167 0.419285
186.557 9.18649 0.499239
54.2237 2.15812 0.152358
167.168 9.00534 0.672257
223.863 10.2632 0.525911
86.594 5.12446 0.1461
63.8749 3.81642 0.372695
93.4483 5.61369 0.272891
197.721 11.33 0.617063
50.3346 2.7465 0.34489
113.172 7.08991 0.272939
155.683 8.39238 0.466697
325.136 18.5333 1.13008
147.344 9.86424 0.733569
36.2455 2.3567 0.39555
196.643 12.775 0.87754
143.24 11.32 0.791312
310.497 20.5214 1.32907
142.436 9.98606 0.62157
124.233 8.48835 0.591221
96.2525 7.89456 0.618908
175.186 12.7455 1.24019
74.7173 4.56321 0.573052
106.183 6.29746 0.747895
112.679 7.39761 1.04439
120.486 10.4432 0.707224
326.516 24.6058 2.14939
141.993 13.2121 1.26206
235.124 18.3029 1.39596
47.3591 5.52543 0.514008
87.0757 7.8115 0.351521
158.202 16.4375 1.31432
126.783 11.4663 1.03961
150.332 13.7968 1.1827
75.4116 7.13393 0.583915
144.166 13.4062 1.4085
150.895 12.2587 1.14054
155.079 14.4878 1.41677
216.504 15.7378 1.38675
223.543 22.3002 1.89256
221.164 25.8606 2.37363
45.7279 4.01335 0.641298
89.3282 9.26822 0.775736
121.985 10.6579 1.07041
172.553 19.9564 1.44311
97.056 10.0185 1.5133
300.889 31.3234 3.59197
103.764 8.86075 1.08388
9.50777 1.49058 0.114288
112.203 10.0552 1.18289
109.974 12.7435 1.72982
93.6685 9.52189 1.35504
149.34 17.6821 1.73361
34.1758 3.02659 0.571323
155.062 17.8667 1.78944
81.0366 9.69398 1.36564
83.9461 11.1254 1.37676
184.638 21.4781 2.61148
78.6397 11.847 1.52265
106.718 12.249 1.74952
76.4104 8.87655 1.0983
63.2761 8.93164 0.975423
36.4984 3.60981 0.660999
127.819 17.0965 2.5442
105.639 11.4777 1.79683
106.816 13.072 2.06752
80.6576 9.62091 1.47216
87.0186 12.1532 1.86231
70.2033 11.3939 1.21418
83.7283 13.3975 1.4978
83.1555 8.67922 1.16618
68.5346 10.7924 1.42283
152.672 20.7224 2.66381
72.6311 10.5188 1.35022
72.8983 10.7084 1.594
247.681 41.4 6.04015
77.8335 10.2589 1.80528
64.4738 10.3802 1.73586
51.2665 7.06533 1.34072
122.331 19.2173 3.30054
69.6252 10.6912 1.61867
32.5192 5.8492 1.00773
174.458 28.0604 3.85615
191.828 29.7967 4.99902
71.8246 11.6353 2.01325
109.45 18.492 3.60276
95.8857 15.6219 2.6395
56.7685 10.4517 2.05057
118.111 19.2489 3.09923
111.935 20.2004 2.91783
77.8352 12.4328 2.13869
117.117 24.2329 4.45281
56.6044 10.1973 1.68439
115.787 16.5315 2.8799
133.03 22.3667 3.17588
83.8562 19.5428 3.24287
61.7 9.06059 1.79385
77.8145 15.6068 2.54087
93.7036 16.2991 2.77797
82.6742 16.0379 3.07441
112.361 21.1747 3.61088
156.01 31.1949 5.36836
75.709 13.3015 2.35745
56.6898 12.2375 2.91366
165.591 29.3718 5.00443
79.5198 14.9366 3.12583
155.458 36.5862 8.03958
93.9739 19.2082 4.44596
163.561 27.7656 5.54392
79.1488 20.2152 5.30864
56.3284 12.7783 2.29395
18.4244 2.74771 0.718479
201.68 37.7032 6.42495
23.8366 3.94383 0.774656
34.4842 7.70518 2.39019
161.206 30.7852 5.79667
118.962 29.3205 8.24158
62.538 11.0119 1.54749
104.956 23.4086 5.34469
127.23 33.6091 7.41919
142.253 34.2125 8.31401
126.581 25.7195 6.3416
25.4834 5.89453 1.39431
16.5055 3.01013 0.529076
70.8511 15.334 3.37429
101.264 23.8067 5.70178
29.5829 7.43087 2.48047
107.167 26.4474 5.69482
68.1593 19.5171 5.66102
90.5421 23.5793 4.99693
110.341 27.4768 7.06869
105.526 21.9779 4.53087
63.1685 18.5917 4.7845
40.387 9.76509 2.6532
75.3597 19.8776 5.16485
61.933 16.8065 4.01453
106.102 26.5039 7.38051
65.2264 13.7454 4.30731
66.5847 20.2308 5.51486
49.6131 11.1116 3.17515
108.141 27.4511 7.34987
66.7017 19.0098 4.88287
159.5 42.3888 10.9591
103.905 28.5079 9.19325
128.893 34.0866 7.9235
35.9718 13.8823 4.89161
41.8434 9.71595 2.36425
55.505 14.069 3.53552
43.0673 13.477 4.5287
91.917 25.491 6.64546
108.855 35.9323 10.7446
65.8194 21.0395 8.07
61.5174 15.9919 4.63793
65.6217 18.9439 5.64829
41.328 10.4477 2.749
86.3809 26.5623 7.87989
73.5735 21.6287 7.57296
64.914 19.0558 4.9907
24.3078 8.61144 3.16936
97.0208 27.3065 8.83787
55.6576 18.9655 6.99997
25.8481 6.34713 2.29575
39.8472 14.0025 4.87389
62.8059 22.2611 7.65779
40.4907 15.0601 5.67099
77.1485 20.7122 7.20002
32.5982 11.4058 4.54485
41.5626 11.6316 4.59655
88.4021 24.9445 7.29532
30.4186 12.4494 5.31761
102.447 33.2089 12.0934
89.9709 28.755 9.63578
59.3807 20.2245 7.41919
49.8967 14.5461 4.29321
70.4256 25.2657 9.16724
42.4309 11.9006 2.98681
43.1507 14.6546 5.59974
33.8796 11.515 5.05605
42.7728 16.5906 6.06187
85.2542 28.2377 9.64181
50.035 18.9777 7.86786
52.9049 22.0679 8.33508
51.5268 14.6565 4.11556
53.9838 16.0841 4.58199
92.512 34.6178 12.6907
83.2731 31.6345 11.4213
22.5195 7.42826 2.7927
19.3283 6.89273 1.97639
73.8135 25.4046 10.4059
54.7936 21.6801 8.89896
30.1555 14.8608 8.28321
32.8964 10.1018 3.64235
35.6624 14.576 4.81944
19.5091 8.61277 4.557
69.4238 26.0161 11.284
89.2477 35.0834 14.9461
21.6464 9.74326 5.42057
113.443 42.0227 16.117
46.8108 19.7177 9.77507
21.2397 12.676 7.34478
11.5313 6.29781 5.42412
120.827 45.3102 15.0076
78.9109 38.3276 16.246
103.881 37.3376 14.0441
29.0797 20.0929 10.1217
30.884 12.6257 6.24785
33.4646 13.417 4.97299
54.1333 23.5952 10.9708
44.1588 17.7434 7.5576
24.3796 9.50094 4.66713
55.633 29.8688 12.4847
31.8309 13.5573 7.61534
99.4025 38.5396 15.624
98.4644 45.2633 19.2001
77.8485 37.542 18.1753
61.9819 34.1573 18.9206
93.0929 35.8992 15.0564
28.373 13.4668 6.84001
60.0234 26.669 10.5595
36.01 15.9931 7.89001
30.4193 19.6903 11.4042
44.3981 24.5738 11.9164
9.18602 5.6709 3.74762
58.1742 30.7801 15.7079
67.3602 37.2876 21.087
30.0804 10.33 2.51838
36.3446 23.7334 11.1615
17.6629 12.1562 7.56128
75.3172 33.1214 14.4494
75.9268 41.7688 24.2303
70.8179 26.8915 10.1777
22.0354 14.2574 9.01667
36.9918 20.6449 12.5105
66.4288 23.1037 8.90238
27.5791 16.244 7.89894
57.4121 33.7905 19.2004
48.2365 21.3406 9.44424
51.671 27.4335 13.3515
50.0695 30.9088 18.5496
61.3217 30.0753 16.9058
46.2444 27.7362 16.0639
23.5665 10.2807 5.64831
22.5037 12.4113 7.82892
67.9809 33.1881 16.5763
20.0748 8.69528 4.50291
33.9327 21.7828 12.1805
49.6557 24.3125 12.2594
36.9853 23.5713 11.196
15.9687 10.6335 6.53224
47.8666 36.116 23.2881
34.3571 17.4209 8.8895
36.2128 21.5685 12.2638
44.0772 26.6401 15.3882
29.4261 13.7781 7.19823
16.81 6.08977 3.34831
30.5327 18.112 10.4561
46.3923 33.7684 19.9975
41.0914 24.525 15.7182
29.7071 12.1613 6.4843
36.5875 17.5633 8.24673
37.1383 31.2075 21.935
52.3166 35.2372 22.1442
58.0892 24.1984 11.3869
57.7646 36.7742 24.8856
37.7995 15.5446 6.84493
22.4857 14.2831 9.88901
26.2978 14.6611 8.99272
40.9846 28.9785 18.0693
38.4454 22.2105 15.8531
35.5712 27.2251 19.4858
70.234 43.8885 23.3277
47.9472 34.3475 21.5172
52.1666 31.6029 23.2683
19.5609 12.3998 10.1178
28.8469 15.0965 8.59113
42.5368 21.8467 11.5252
22.7788 14.578 9.70523
21.9592 9.38637 3.53712
27.719 23.0057 18.542
24.1153 11.1005 6.18991
66.6358 38.8546 22.7271
21.8986 14.8456 8.6848
16.3979 13.3709 11.549
28.4651 17.3325 9.90585
29.8417 22.3982 18.1682
53.8599 34.8647 23.8755
28.2318 15.2083 9.37857
60.9671 38.6236 23.5223
46.2751 30.1561 23.0365
22.2036 13.6211 8.51365
42.4509 32.7289 22.5042
42.2938 23.8765 13.7391
34.1688 20.8379 11.8554
28.9919 26.7982 22.2054
23.173 13.1092 10.8372
37.4263 29.291 23.56
54.2745 37.0581 28.678
28.1493 12.4978 8.10028
60.5383 41.0244 24.6989
28.5698 24.578 21.0497
18.3345 12.3144 9.01209
36.2441 21.2765 14.7416
65.5544 39.8427 22.3021
39.1127 31.8072 27.2305
68.6195 52.5106 34.2118
37.8607 38.5553 33.5193
70.577 51.2972 35.8977
35.2689 28.2446 18.6549
26.995 23.9691 19.619
33.7794 29.5775 26.2077
24.7974 18.0115 11.3536
10.9064 12.4526 12.2235
16.0295 9.12481 8.22529
29.6656 22.7403 15.7083
24.8841 17.9414 11.461
17.1916 17.4881 17.0647
15.0141 9.70159 5.10455
26.1826 23.4941 22.4737
54.1276 48.5867 39.5893
53.4384 36.891 30.0594
55.7686 36.2588 21.1118
29.6631 37.957 42.7006
65.2894 41.6966 27.3146
54.7266 32.8015 19.4925
29.2367 31.0307 27.7558
46.9675 30.1614 19.5356
33.7287 36.1351 32.4748
71.8214 49.6497 29.5962
10.3241 18.9072 23.6025
28.338 23.1518 19.7218
44.3968 37.668 29.0266
22.5302 16.0201 15.1758
17.491 13.2643 13.1348
42.7177 29.8924 21.2933
17.4236 12.4659 8.72851
13.5105 16.7582 14.5772
12.1951 8.66454 7.90419
22.822 22.068 24.1423
33.8967 20.1831 13.5951
31.9315 33.7218 31.7866
32.8316 32.5459 33.2001
35.9941 31.0469 21.8448
30.2082 29.5529 29.2546
34.2707 24.683 22.5926
14.9421 9.9278 5.62961
16.3739 16.3184 16.5831
29.1137 21.4058 16.8825
34.5743 30.1548 20.3105
13.0195 12.59 12.6404
10.5979 10.0064 10.9128
36.5382 35.1186 28.9345
14.6248 10.7802 11.7334
35.1841 28.2103 21.6627
18.9389 26.3138 27.1723
18.8092 12.9661 8.1382
12.5105 12.5527 13.3578
49.7296 50.5001 43.1007
16.9506 16.22 15.3305
19.4829 20.9698 17.6761
7.97902 13.6965 21.9994
35.8916 40.0045 40.7692
13.0634 8.87899 9.57811
20.4953 16.1854 12.7765
19.1975 18.397 18.2535
25.606 24.651 22.8143
21.1192 18.7967 14.6657
19.2653 19.1637 20.9321
26.9233 29.2338 25.0888
10.0772 6.44397 5.51189
12.8474 11.0286 11.447
14.3723 15.0774 14.0342
28.6663 17.7186 12.8727
28.4415 31.2229 30.6052
6.43154 7.56097 11.1634
11.6455 10.9172 15.0694
21.4784 18.0569 12.8221
20.4366 26.7405 33.3229
31.1716 27.9716 25.4256
26.5284 21.2246 15.5395
4.20806 7.85422 13.7073
27.9205 34.9794 41.5337
44.3853 35.4705 28.1389
21.2986 19.7588 21.6375
39.8151 44.6602 43.1501
30.91 29.4281 33.0638
42.8321 45.612 39.7942
18.2103 23.038 32.1862
25.8163 23.517 18.0933
30.0759 40.1185 40.0974
31.2447 24.793 25.5242
33.6989 45.3037 49.83
23.6268 13.4788 8.15147
24.3548 29.7277 32.1198
7.36537 6.23234 10.2901
25.8037 37.6554 48.5686
36.7923 25.6331 16.2741
9.67582 11.9848 9.59064
14.0545 21.1925 29.6278
16.2669 18.6028 26.3733
34.5159 36.4165 37.6348
14.9286 8.4819 3.25809
10.7043 18.1485 25.5647
28.2102 28.8322 20.4665
6.20448 13.8782 20.4524
28.7664 34.2597 36.0985
11.0828 7.89785 8.61994
11.3538 16.9857 25.9967
18.1817 12.6288 8.67305
24.0194 28.9111 27.9895
14.0774 16.5878 22.3519
25.676 30.0212 27.8712
11.0252 22.5804 33.1494
11.6784 10.0139 9.60092
14.2998 22.034 26.2053
21.6218 24.6719 28.7375
16.8022 12.4272 12.2499
10.132 12.0706 11.4255
7.39512 9.88086 15.3556
11.1882 11.538 17.7109
23.5373 31.8216 40.6564
18.4451 17.9772 24.5622
30.506 34.4694 35.7735
17.7815 13.7831 9.4417
16.2622 22.4205 28.0637
8.59184 7.65475 8.00851
6.6911 11.6685 17.1756
27.0428 27.574 32.1493
11.062 10.6431 10.8464
8.54211 7.55259 6.25962
15.311 22.2979 27.3519
18.1859 21.4067 24.9794
30.5604 33.8208 36.8655
8.43554 18.0456 33.1563
14.2096 7.28575 14.2439
16.8694 15.6743 19.049
20.1703 27.0465 30.927
27.2002 29.3122 32.3299
22.2791 29.331 34.0333
14.9818 19.1797 31.3761
15.0039 15.5345 18.5694
11.3615 12.5432 17.2008
9.88936 18.1127 31.0183
35.8526 37.7945 35.9625
7.71938 10.3216 15.9261
10.0075 13.0215 19.0263
22.4919 29.3132 36.2029
35.5122 37.159 34.6195
13.8832 25.1597 39.8805
11.141 8.48732 9.70423
20.875 27.4641 25.9391
7.83993 12.4301 18.0651
20.2912 24.6321 34.435
28.5891 27.2162 22.3376
31.9101 55.5263 78.051
29.8449 42.7595 57.0125
43.7293 54.987 63.0407
20.2223 28.4767 43.4802
26.2901 33.9089 47.9025
22.2966 33.5288 56.8943
33.8786 32.8403 40.667
20.4621 9.89927 5.24405
24.1713 24.8659 22.3465
14.2308 21.2167 33.9478
24.1947 27.7093 30.7628
9.66608 17.48 39.0967
23.5793 26.2642 30.7901
25.3653 30.0912 29.5948
5.22696 9.52866 14.8656
8.70804 8.94987 9.97734
19.7818 24.673 31.5155
11.7237 18.5973 27.68
13.2011 11.9886 17.3793
19.6307 29.5104 35.5568
15.3586 16.6934 19.5499
26.308 45.9767 66.0562
17.8696 28.5993 47.6504
17.7963 18.5567 25.952
14.1372 19.4405 33.5348
24.2208 33.7316 46.4105
21.445 27.7149 31.6707
11.5918 14.5951 11.0539
4.50475 7.41929 9.34298
18.6264 26.7894 37.7629
19.2176 29.8655 38.9956
14.5222 23.0989 35.0087
12.581 23.9859 41.4649
22.2133 34.6998 38.068
8.56468 15.0733 29.7331
7.89738 9.94704 12.5772
7.27422 10.0667 17.509
5.69897 8.19861 15.3712
20.6666 33.079 41.628
13.3267 21.4455 34.3201
8.20568 9.13037 11.4468
14.6578 26.888 45.801
24.5436 30.52 32.3421
16.479 37.6279 67.7469
17.3395 17.2038 27.6133
18.1734 23.4243 32.2958
10.9306 11.9199 20.4299
12.8371 13.1833 9.17201
11.6704 25.3483 44.556
13.6847 16.7855 18.0622
11.0607 17.8649 28.4482
12.6427 28.2534 56.0247
24.7625 31.7194 38.7926
18.3592 28.1387 48.4617
16.9074 22.6845 33.4985
14.4107 16.2099 24.9549
7.49736 9.20726 12.9549
4.34012 4.36989 12.1693
21.9718 23.5022 26.2704
7.18612 11.5547 20.4303
14.1353 22.2393 26.3508
10.2306 27.2874 52.9577
15.774 23.0227 37.9138
16.4251 25.7593 30.31
7.60349 15.359 35.4937
15.0206 16.0035 17.378
5.5043 3.16477 5.89134
13.9976 22.3988 30.2733
12.8103 17.7017 18.6256
9.13118 20.8434 38.5335
10.0093 13.1168 25.6714
14.0799 24.2681 44.4448
12.0499 13.5573 14.2194
6.9713 15.304 32.9293
12.9293 14.9084 20.9082
13.2047 23.0439 40.9103
20.0897 29.1087 44.7694
32.4741 57.2992 87.4626
7.57158 18.7586 65.647
31.5571 30.0573 30.1593
30.2474 55.835 64.4333
13.8236 32.9298 67.7146
8.19851 13.898 38.3999
21.2905 22.691 17.7067
4.25197 8.24941 10.4544
6.49124 17.4973 38.0439
11.0055 11.1199 14.161
15.4196 27.3725 36.7581
11.3094 29.4196 72.5146
14.7139 13.7394 21.0287
16.3894 25.3467 40.3204
19.7504 33.4575 45.0741
6.58942 18.8233 56.0694
27.4424 24.7751 23.8623
16.9646 30.0815 60.4587
14.8761 16.3765 11.5998
8.81196 19.5289 26.2067
6.02744 14.4778 34.3504
15.2291 35.6968 75.3521
23.3286 37.4676 53.4535
10.1258 13.2616 25.9242
9.72087 9.74281 12.7434
11.3852 17.9069 31.478
24.4147 40.4421 52.694
5.98109 16.6731 38.3437
8.40779 9.48586 22.2228
16.4444 20.8128 23.1729
9.30825 21.6834 35.9394
6.37795 14.9481 32.3356
10.033 18.8115 23.3198
4.34465 10.3543 29.499
25.348 44.43 69.9155
7.11387 11.3153 28.1979
7.96906 8.38857 8.30514
7.08648 26.1912 62.0064
19.1842 28.0241 52.6819
13.6536 13.9144 12.4959
14.164 25.3778 40.6541
2.14103 4.73849 12.7001
8.35441 18.9595 34.1859
12.8975 29.2891 69.8866
23.8447 28.9203 40.2487
9.86463 20.1163 33.577
8.70719 13.0834 23.5802
13.9489 27.9185 53.9388
14.2885 24.3211 38.7055
8.24787 9.42213 9.06459
6.29828 18.5076 38.6536
7.50087 8.86524 22.205
7.66547 8.56907 15.2079
4.72591 16.0875 44.3507
15.7375 22.2113 27.9389
9.99823 32.7178 67.5705
17.467 22.4311 33.2674
4.44942 11.0225 31.8881
10.8466 15.4937 25.1478
4.34318 5.10821 11.0201
7.4882 9.51133 20.465
8.4202 16.4952 26.2591
6.48172 11.0403 28.2418
10.101 20.2767 36.9053
10.3445 8.02508 4.17287
7.89637 27.2588 59.1551
9.86759 19.4906 44.2188
11.6342 25.8222 50.1655
10.8023 16.5143 23.508
10.9256 18.7803 42.6444
10.1161 17.7936 30.0748
12.4738 27.1203 42.0629
3.97368 11.4046 50.6019
20.5134 31.4946 43.9268
13.7207 33.4475 78.3597
19.1856 31.3591 59.8176
20.1624 27.6586 30.1637
4.90139 16.2512 52.4771
11.0408 14.8806 46.04
24.6056 38.0243 43.2461
3.91764 13.2826 37.0143
10.3339 20.75 57.3427
19.303 22.1804 37.9582
32.7772 68.2278 107.708
15.5644 30.1589 53.9801
8.45802 21.8971 58.6638
13.4888 28.6482 55.9189
6.92769 5.4128 12.6867
3.16086 8.34762 33.8568
11.4788 14.5109 25.4457
14.2155 30.4271 60.4799
16.4762 22.5896 31.2025
5.71442 18.3253 41.213
9.15548 9.61655 16.3341
10.7476 17.302 25.8402
9.59936 30.8486 55.8829
6.01825 17.1529 42.3965
6.34655 13.6774 35.4271
5.1018 7.16363 11.4983
5.71001 10.3321 18.7836
4.62445 18.8545 35.1029
6.60897 17.8037 54.122
14.9961 20.5177 25.0692
7.60359 18.0334 29.3166
3.88429 11.4783 29.5331
9.32414 19.4715 28.9368
5.9239 14.7343 28.135
4.488 6.66278 17.1873
7.70713 13.8194 23.5934
14.3427 30.8311 54.5467
5.00069 25.0932 92.8041
19.2445 16.4377 23.4589
14.9852 35.483 52.9395
6.91617 24.0082 55.205
5.57194 26.0667 83.1599
13.1634 7.88762 7.17394
9.45425 24.158 58.666
15.4202 23.4435 38.5186
11.3673 31.3871 80.4758
13.7787 21.2369 48.9164
12.2878 27.317 43.7492
6.93872 19.1371 67.4188
12.1507 16.7535 41.2806
21.0246 37.222 46.4924
3.50623 7.71859 11.0133
4.31047 18.5206 56.7229
9.51601 20.1256 46.0047
12.4073 21.1168 46.9144
6.00538 8.74257 17.5477
11.1045 25.1819 53.2654
17.8958 40.0253 83.8037
14.1326 21.6582 46.8629
12.2617 19.0469 21.302
3.33197 14.1587 42.1119
9.82608 19.3142 32.7251
6.59716 26.2429 88.389
18.4549 28.7849 40.991
6.78703 14.9104 41.4633
14.6751 26.0617 44.1733
12.608 39.0373 103.709
13.555 21.4041 32.4254
11.7677 28.6624 61.834
4.77009 11.5594 43.2017
10.8766 18.5705 27.429
5.94084 7.82491 13.0397
4.91999 13.5333 46.1933
12.3522 22.4568 39.2083
8.00475 10.8262 17.7641
8.92461 25.8056 59.9233
12.4819 20.2546 50.7729
16.2175 38.0089 63.1505
9.12048 28.832 82.4019
13.6419 16.2453 23.7703
10.0852 26.7442 49.261
3.00472 9.10216 40.3763
14.1994 27.8187 39.5966
4.76961 16.2175 37.3469
5.01874 10.4565 27.2507
2.78019 14.0477 57.1929
13.1888 18.6984 32.155
3.23859 10.0951 40.0903
14.2338 39.8691 76.9282
5.5481 11.9284 32.5147
3.96046 5.17374 18.6705
2.89964 9.59163 37.7523
8.75014 15.7853 21.9595
3.39096 13.8238 32.9911
4.56939 5.58972 9.41594
6.14065 19.9463 56.282
9.28888 7.36809 16.073
9.35684 29.2431 54.5436
3.23331 16.2016 84.0979
23.7516 54.9676 116.655
16.9401 39.0202 78.506
9.13969 15.7587 24.8331
3.33584 5.9185 31.1888
11.8132 31.4688 71.9286
16.4967 36.6327 85.9895
11.3507 13.7973 18.3396
4.68372 16.9164 56.4586
9.72724 13.9625 22.463
4.75088 14.8645 34.0841
8.36439 20.1503 37.7185
5.17638 13.68 30.9179
5.4308 12.9865 53.9932
19.0054 61.3152 166.222
23.218 30.9405 44.5963
5.23437 9.28063 35.3065
12.079 20.2454 19.8039
4.11272 18.5678 53.5151
6.62562 19.0013 33.7996
2.94026 8.47812 25.5197
2.92201 8.50944 35.608
11.5645 25.2087 55.4079
3.50843 6.84133 45.3449
16.8714 25.9099 27.1838
1.63769 7.77354 22.9643
3.92021 8.19866 18.7619
4.25906 11.577 28.6424
4.10598 16.309 57.8311
5.72663 4.10409 9.28421
2.4559 3.41122 18.9917
10.5964 30.5838 56.6178
3.95488 17.9373 101.049
21.3058 35.4471 41.5073
3.05251 11.6589 31.1988
3.79306 2.95243 19.9315
13.5059 36.1705 48.3135
2.84958 16.9195 61.0218
5.89282 7.65317 13.5125
7.18441 23.9533 55.0553
4.93402 15.1801 50.1919
9.0566 22.0925 66.9112
10.7767 21.3171 22.6327
2.78195 18.1453 72.1667
12.4291 26.5499 51.2755
5.2723 8.27509 17.8107
3.82045 14.1301 43.9325
5.35662 13.5368 43.2369
5.93383 7.71021 22.7017
12.6383 43.8473 96.0986
5.64618 8.59474 19.1153
5.2254 14.7725 30.9839
0.947315 10.3024 60.2944
9.78625 21.0583 43.2856
7.18355 19.7474 42.0664
4.80365 11.3775 33.7209
3.92774 4.99444 14.0639
5.71436 10.9428 25.4002
4.36124 16.5957 51.5372
7.11104 12.6745 33.0526
3.62657 10.3878 31.8914
6.3475 16.4428 47.5843
8.73728 23.7671 78.5448
14.3377 25.0741 42.8635
6.20716 17.4082 47.3615
7.77443 23.0016 63.2328
6.70261 12.3871 30.8075
5.37766 8.71358 18.1446
4.22401 12.4667 50.6334
12.5829 20.937 31.4707
3.25759 5.27139 14.6377
3.49061 14.7447 39.0122
4.86531 7.48282 15.0035
3.39986 13.5604 28.3141
2.30402 5.32847 25.1001
7.55524 23.772 45.6718
3.21237 14.5212 48.6514
5.70253 12.5505 56.1276
6.01564 6.37314 11.7794
5.85659 19.7726 41.508
3.04441 4.99533 30.082
5.38962 16.9399 40.1241
9.57801 23.0718 51.908
3.31411 13.0641 49.8055
6.87866 18.2495 58.4504
9.2598 19.9728 46.6389
8.20851 25.0164 53.5892
3.29514 4.85325 34.6561
7.89513 21.2465 36.6699
4.30187 15.9667 53.0704
5.99443 17.2345 43.6268
7.47057 18.4168 46.217
5.25418 11.985 23.127
2.78982 8.50703 29.6389
3.57319 10.4882 48.9689
7.49678 18.7421 43.7426
5.5859 12.5831 19.5119
2.5259 13.2691 30.3491
3.36233 11.9129 32.7173
4.68119 12.4695 43.4495
5.58807 13.3273 47.8657
6.85598 10.2354 11.1028
2.1897 11.0007 50.0661
4.61306 7.07492 30.4082
5.94057 11.2385 9.24786
1.12265 8.56502 28.7243
6.096 12.5006 34.232
5.03321 12.8217 25.7782
5.7626 19.9356 57.0774
5.90605 14.033 39.7728
4.47116 21.9707 76.5387
10.0112 26.7242 90.3447
9.23304 14.8787 24.025
3.67078 9.64252 25.8766
3.00136 6.74757 30.9905
4.97867 13.423 45.9449
9.22809 31.5624 70.7355
4.92456 15.8911 82.6481
12.4351 17.3763 21.6196
4.57828 12.7 31.1385
4.07111 8.26516 20.572
4.18515 15.5637 36.1408
4.04668 15.8879 57.4691
4.59296 8.40208 13.8828
3.60155 10.3593 41.5053
5.87828 15.9579 25.2958
2.29826 21.4141 72.1708
5.04155 17.0816 63.2062
4.49978 10.5138 24.8574
3.03205 13.1216 69.5005
7.68528 15.1 41.3998
5.73531 12.1298 20.2196
3.93158 16.7141 59.9442
8.6604 25.0275 46.6813
2.69311 5.94905 31.9062
5.70611 22.9582 66.1414
9.60513 21.1268 49.632
5.87912 20.2993 62.0759
7.42312 25.0443 68.6107
6.7183 16.7485 48.22
5.53509 11.4204 29.9957
2.82324 9.72396 47.7613
6.50415 12.3519 31.3441
4.25124 5.24423 12.1943
1.59933 6.7662 29.0073
4.07122 13.6581 42.31
7.45213 22.8335 54.2621
3.22209 3.92225 21.799
3.55594 10.3276 22.0956
2.02473 11.0452 38.0301
4.03203 10.9691 25.6234
1.70781 8.93037 23.8827
4.06167 9.1976 29.7076
2.86119 8.0522 33.0326
3.38178 6.00044 28.5246
6.03705 12.3197 21.2947
1.62081 5.93419 53.7742
8.42506 27.9796 52.199
3.74928 14.3238 40.8682
3.88518 5.86305 21.5906
2.94733 7.74551 21.6326
2.96915 9.76631 32.8999
4.10338 12.0655 29.1313
4.59977 11.5771 35.8801
2.2646 5.29207 20.1569
4.50728 7.71262 21.9897
6.27533 22.1368 75.0645
6.15516 8.44484 11.985
2.01735 6.97143 39.7234
6.91808 10.3306 21.3244
7.71588 51.6373 149.886
9.74601 23.4653 93.8462
8.57138 17.9529 39.5313
4.5043 15.9249 37.1813
3.04405 11.4054 52.2855
5.18474 14.6156 27.1018
1.86743 7.19974 22.3269
2.23706 8.26481 34.8671
5.40957 11.5638 30.5352
2.96623 12.6329 40.7265
3.5388 5.5375 10.9132
3.59257 15.2507 41.6461
3.00915 20.131 73.8684
5.44777 8.93312 38.2594
4.31271 3.45409 8.48714
2.86036 10.2746 33.0079
4.92356 9.79326 16.722
2.69994 13.8269 59.5714
5.54692 7.31758 13.5588
3.87783 19.7203 73.4966
7.15096 17.1955 55.5991
4.48607 8.45852 17.1194
1.82638 3.85404 7.95337
2.04638 8.87928 42.2022
5.3215 13.7196 41.5946
4.95318 15.9221 26.1371
2.48163 24.5087 105.841
8.12669 18.6236 63.4575
7.50659 23.7183 53.8282
3.22825 13.8068 47.1071
2.96403 3.79774 11.9452
0.981902 1.54927 23.0029
5.5008 26.9838 77.7946
5.43431 13.4353 24.1818
1.20211 3.86724 58.1043
9.17673 17.9246 35.8576
6.54405 19.8815 23.8905
2.47926 16.6237 35.235
3.971 32.8869 117.006
7.42338 14.1393 60.0997
6.21881 18.1954 37.4807
3.10142 11.0133 37.9228
2.12861 16.6413 72.1678
5.85249 12.0062 47.9546
5.17018 13.2259 47.4836
4.363 5.95688 8.5174
1.09841 5.992 24.0736
2.741 5.66699 27.8157
3.13944 7.33687 10.2636
1.17127 4.74379 31.4834
3.42236 7.8263 28.9342
3.78528 19.106 52.1554
3.78029 5.53956 7.06102
1.88879 9.12905 31.4561
3.22675 17.2149 39.8999
1.68408 6.99587 47.0048
5.23443 10.6326 24.3843
1.1482 5.81775 36.6968
3.73436 13.3335 62.8648
8.23753 33.033 107.78
6.5697 13.1486 28.3227
2.56032 8.27356 29.7325
4.35258 9.8877 35.9223
4.44206 27.0346 88.2163
7.37415 10.7801 43.4901
4.17769 15.9324 55.9376
7.79011 28.7538 118.694
10.271 22.6933 22.7525
1.03459 8.23908 30.0045
2.91106 4.54646 40.9333
6.75724 13.7458 23.778
2.32866 5.91472 13.354
3.80835 23.0998 60.2072
2.20362 3.45462 16.5063
3.36155 12.0271 33.2923
4.08271 30.3634 108.197
8.02796 21.1707 69.6743
2.84268 4.96651 14.4291
1.54643 9.45291 51.7642
5.52339 9.05992 21.8398
2.14054 3.67545 14.574
2.94402 8.04686 19.2281
2.70196 11.4614 62.704
7.36444 15.6572 27.4992
2.32052 6.3231 18.482
2.07276 12.0498 28.7333
2.80455 19.1512 51.0746
3.39588 7.79467 29.8912
4.57992 21.6921 46.2028
2.93021 6.48053 24.9236
1.52895 11.1591 57.8341
5.78309 16.9491 46.851
3.95193 15.6873 66.4729
6.43905 24.9287 46.0554
4.07054 17.4658 69.7686
6.53181 12.0609 60.2319
8.19404 30.7746 81.174
3.45316 4.76795 24.5068
2.87322 3.14883 19.3396
5.67209 24.4451 86.8493
7.76363 12.1383 18.8688
1.67757 8.3616 19.8596
0.900799 4.73366 52.4616
6.80007 40.1867 121.829
8.00938 9.2075 50.7742
7.03527 26.1782 53.3017
2.48308 4.94256 21.906
2.09889 10.0207 31.1786
2.41444 8.78088 28.4446
1.82975 11.2072 62.2424
6.41023 9.90011 35.3512
4.01244 13.814 38.724
2.64296 7.19125 39.755
3.3146 9.40827 30.8192
4.18473 15.4561 46.126
4.5418 12.5957 34.9416
2.48059 5.05838 54.3452
8.45842 20.6587 43.4114
2.65869 10.7353 30.1532
1.55045 4.18243 24.551
2.61764 14.8313 71.1056
7.73054 16.4238 32.5286
2.18477 12.3615 44.3621
3.40196 7.76023 39.6369
2.05951 6.96369 16.7235
2.56486 8.3639 39.6806
6.22288 26.275 73.9154
3.41912 9.78609 58.1236
4.49875 18.4698 70.8483
4.24346 10.7511 44.0447
3.93247 10.5273 32.5185
3.28152 22.1956 81.8874
6.11122 5.58958 8.32991
1.46911 6.19611 47.7561
4.91857 10.3996 35.596
6.19482 22.735 41.3861
2.45227 14.0719 85.0276
9.26994 16.1529 43.8743
4.14682 17.7321 94.1978
6.71807 22.9173 39.31
4.37923 15.9969 71.3283
7.96065 20.8323 54.3639
4.23718 8.06012 40.652
4.24145 18.5498 54.8349
5.20615 14.6998 35.8116
3.27597 10.31 31.2819
4.2066 11.5177 43.2453
2.3333 10.7528 33.087
2.82323 4.19937 16.716
1.41157 3.81628 17.8639
2.6109 23.9862 118.494
9.36375 16.7481 39.5084
3.5085 7.75002 27.1383
3.0527 13.9957 51.7709
4.33798 15.8606 45.5667
1.75764 5.24121 28.5192
2.94122 19.9318 54.2119
2.22865 4.66048 18.9161
1.97168 5.51831 9.21922
1.53185 6.34557 27.5661
2.97256 16.18 48.4773
2.65074 9.09279 62.8606
5.71075 8.61757 16.138
2.7594 10.698 27.8557
1.31687 6.22973 29.3919
2.53829 10.2003 43.3727
3.19386 8.44734 19.4198
1.14895 9.20638 42.7067
3.88134 20.8764 73.522
3.49621 5.95193 36.1014
3.34671 3.71832 50.0904
5.2256 12.7308 21.0354
1.80618 8.05524 44.0373
3.71495 8.2607 22.2389
2.28058 4.99036 19.4765
2.5356 22.196 78.9432
6.37466 12.9327 38.2581
3.31636 11.9918 35.771
4.05249 23.8808 91.5689
4.50565 9.75779 63.2117
7.13205 22.4302 33.3596
1.30701 3.71281 18.5224
2.47293 7.4111 20.5498
1.35399 5.79764 33.0267
3.10549 18.9063 77.8456
6.14477 8.42035 30.4826
3.30732 12.1 22.907
1.1012 5.62484 37.1351
3.42996 15.0437 40.3868
1.86556 4.52208 30.1995
3.75989 14.2596 39.454
3.13113 8.07324 20.6055
1.97466 10.4385 60.6693
3.92017 7.48655 16.3434
1.31789 9.35463 52.201
5.0971 10.5973 23.5064
1.92579 10.8401 56.341
5.05855 16.4716 55.2991
4.88034 15.1459 30.7953
2.15871 9.94065 50.3096
4.16368 14.2298 39.0655
3.6849 10.2776 37.3468
1.89762 3.88043 10.3291
1.4122 6.45803 37.2312
3.49258 15.7757 105.278
10.6779 22.9498 38.0204
2.07292 7.47876 26.4525
2.36927 12.8747 41.0728
3.33018 15.0379 61.9699
5.45937 22.1902 53.7325
3.80683 5.73712 34.6862
3.57465 5.64012 25.9768
2.57342 8.81955 27.2198
3.26146 22.4363 83.3427
5.18418 9.82486 41.3689
2.35199 12.5084 73.2568
6.12814 13.8662 20.6711
1.51981 5.32493 32.2195
2.68161 13.5132 34.4395
1.57246 3.10004 24.6221
2.73336 13.3857 27.3612
2.22329 6.92913 32.2483
2.75276 20.8894 59.5985
3.93104 4.77164 20.153
1.71254 3.07768 32.8517
3.65605 10.5548 20.0061
2.47694 11.5783 71.7338
5.86304 18.4227 68.3937
4.8845 16.9632 64.9065
4.14923 7.00057 24.7356
3.55048 5.59697 69.0151
8.50636 21.5065 66.558
6.2125 35.2744 85.1749
3.4524 5.20183 64.4654
6.6455 25.3267 59.9654
3.58215 22.0966 56.9946
3.40433 7.27102 37.2313
3.24102 10.3117 33.9199
2.98253 21.576 50.3708
2.33757 2.05887 18.4159
1.56536 5.12482 28.805
3.22788 9.2312 42.48
3.67205 8.26126 22.6867
1.80773 7.56266 25.2373
1.72663 6.95334 41.7467
2.92762 6.72539 5.89868
0.583494 3.73047 27.3246
1.70089 7.21904 31.6964
2.30252 7.29176 13.2006
0.866946 11.5667 90.3024
6.59941 17.0115 16.5802
0.933778 4.84105 27.8512
1.992 10.1477 57.2558
3.11634 10.3299 33.352
3.01833 6.74795 30.6425
3.03518 18.2237 64.1749
4.91575 9.91227 30.5779
2.88798 18.2931 64.3585
3.82713 3.68918 11.2595
0.839796 10.5646 61.0182
4.64721 14.5279 41.6083
2.574 5.1201 26.3849
1.85509 8.6138 22.1709
1.45767 2.84571 17.9411
2.33029 11.5025 42.5784
2.80315 18.4849 107.241
7.05166 12.2504 23.5567
2.47893 13.686 29.6339
1.51869 15.0477 80.5205
6.25544 7.68439 20.3837
2.13051 11.5617 50.5841
3.82476 10.1094 34.8356
3.29741 5.15788 24.8477
2.52428 9.18803 12.818
1.7855 16.8664 90.0253
5.75162 17.3208 81.1465
6.0197 6.65694 27.2213
3.51734 10.3238 22.268
2.09982 10.178 14.4731
0.75548 4.14344 73.6743
7.14108 32.5766 42.7574
1.54684 8.66784 50.7516
3.27949 7.40682 24.7378
3.1248 15.8286 60.4864
2.71236 4.61766 24.087
3.05252 10.4701 42.4513
2.85117 16.3651 40.1297
2.15742 8.95476 17.7386
1.41609 8.11965 63.4184
4.87307 13.8861 54.0858
4.01896 7.80132 23.9475
1.75281 14.1275 40.2398
3.3292 6.37068 46.7991
3.64746 9.407 29.0977
3.18693 9.70825 40.9503
2.90569 3.55667 31.595
3.21866 15.58 65.901
4.92604 9.85964 21.9345
1.79844 9.57582 52.9828
4.96421 13.1687 21.9888
2.43549 9.46108 67.9838
5.20133 15.7876 47.4838
4.0756 17.5635 46.5462
3.34189 8.75664 59.5324
4.86639 11.7552 21.3244
1.41668 5.14138 46.0025
2.82164 13.8531 19.7174
1.78906 13.7857 82.8335
7.91457 17.1188 35.638
1.29842 4.28986 33.3463
2.31305 7.02152 32.9994
2.43759 17.0298 31.6188
1.55926 6.19954 44.176
3.01148 3.67624 13.9834
0.904897 4.59311 56.5832
5.50004 8.50426 31.9688
2.60566 8.21727 42.9941
2.35088 2.18609 62.3957
5.23613 16.4921 12.1613
1.5048 12.5522 30.3378
1.60627 5.37229 14.4213
1.27852 8.46861 46.4095
2.84821 9.01869 6.84588
0.804122 4.80397 6.16203
0.333721 8.54837 56.6273
4.11713 16.8432 47.9805
2.53994 3.02471 11.827
1.67802 10.4931 46.1448
2.14114 8.21894 38.6592
3.28254 8.27926 42.5498
3.64699 7.97081 31.9434
1.82622 9.60807 61.1303
3.94788 8.12685 14.3804
1.13202 7.43931 56.2615
5.77828 22.0615 54.8771
2.58697 3.35532 59.49
5.67991 19.0177 47.5848
3.17009 22.5428 59.8643
3.76342 11.2534 43.414
3.38667 8.38473 54.0086
4.58569 10.9697 10.1989
1.32114 7.66441 32.5524
2.49243 15.9752 62.053
4.88195 6.5896 38.1096
4.00213 18.5997 70.7836
3.38179 9.06802 25.5345
2.11963 5.15511 15.7007
1.11924 6.29845 19.3416
1.92717 11.5136 69.5585
5.17904 13.0463 42.9431
2.92227 7.98498 11.9167
0.926189 1.98335 18.6799
1.60978 8.25197 32.6141
2.61599 5.17535 30.5708
1.69971 12.0872 110.404
7.25878 19.0665 47.3571
3.49325 10.954 28.3644
2.1891 8.83888 32.8897
2.15474 8.16642 28.5299
2.35203 24.1151 87.0524
4.86496 17.969 27.4713
1.61335 6.89478 39.1395
2.33145 6.55003 18.6861
1.64783 9.78187 47.1095
2.2711 5.03472 43.8124
3.38728 9.00056 38.4514
2.22843 8.00012 32.9361
3.40644 7.92765 27.4786
1.72924 6.712 40.6026
2.31947 15.9883 27.8046
1.08805 18.8317 74.4823
3.91387 8.31117 39.2544
2.46589 10.6117 44.5342
2.41266 9.92089 26.998
2.60146 9.01178 55.8293
4.08417 15.9342 43.3533
2.71135 5.95612 53.2659
3.89278 11.6134 17.4227
1.08058 4.80058 37.1469
2.34359 5.41301 3.50757
0.502465 2.04509 15.1967
0.846382 3.49503 21.3184
1.37491 8.09557 42.6351
2.29248 9.96414 18.5632
1.21942 18.4436 96.7463
6.79927 9.11344 58.1991
3.83339 9.69033 74.6848
5.6074 24.5437 39.0043
3.18813 11.7341 33.4946
1.96779 2.71148 16.5504
1.2913 15.2021 59.8335
3.45367 10.688 28.3637
1.43788 10.8519 62.4585
4.53708 13.0159 30.9058
1.32433 5.19918 31.661
1.33923 6.65053 24.8173
1.75959 9.74018 33.0716
1.83746 9.29125 28.9917
1.31133 13.6933 69.4041
4.70332 9.63607 15.7047
1.69054 6.95736 42.5929
3.39692 5.73505 24.9361
1.42016 8.44791 27.2975
2.30182 6.41506 28.9768
1.5402 8.88539 31.6311
2.62797 5.49559 32.226
2.36228 8.43626 27.82
2.44142 4.96685 20.1859
2.0842 12.4803 56.3433
3.29651 9.93713 43.4246
3.11688 9.25011 24.6921
1.63193 15.9976 56.5029
4.74466 4.93004 29.0222
2.73878 5.79419 39.0297
3.87159 13.132 36.3677
1.92817 3.74655 14.4773
1.5331 12.6974 33.4762
1.61502 3.56788 22.4478
1.43329 5.53866 28.9038
1.76832 9.041 27.2745
1.77707 6.34616 42.998
2.40705 11.0803 12.3391
1.258 3.76092 45.5933
3.2904 13.3069 81.0095
5.51733 18.1537 20.4038
2.00659 3.25623 20.8909
1.45447 12.2392 35.2424
1.93534 3.97438 28.922
2.36515 10.1186 36.4831
3.21436 6.44962 31.8871
1.63347 9.99631 24.9714
1.60671 5.84863 15.0387
1.28429 14.8865 116.101
7.80209 10.3785 8.76632
0.564918 11.3748 100.6
6.01851 9.03554 32.8026
2.41116 16.6452 39.9839
2.78882 3.5347 8.86861
1.09142 13.3829 68.8574
4.23283 14.1667 61.7205
4.54376 8.36541 41.5806
2.82015 14.1559 36.0134
2.6046 14.0983 35.0612
1.83684 10.1263 41.2526
2.96385 3.00488 35.9399
2.45758 16.4969 31.439
2.09992 10.5212 63.642
4.35929 8.77784 51.3427
3.42857 18.1816 53.2103
3.30766 13.0474 20.5646
1.93143 6.89741 53.5127
4.85108 14.0536 50.6135
1.75529 4.47671 52.8465
2.74573 17.8471 48.1298
4.32419 7.05548 42.8655
3.44511 21.5343 73.7702
4.38644 11.6418 49.2705
2.66393 15.8809 33.4005
2.88677 7.01775 39.3539
3.18319 11.6048 29.43
2.16764 3.86842 41.9905
3.23073 5.30316 33.8784
2.07695 12.5617 24.9208
1.11636 6.66492 89.8376
5.47981 15.6114 30.049
2.17405 8.72578 19.7312
1.43738 16.3312 50.7687
3.19197 0 0