# pn-170911/RbIIR-61-RbIIR-1280-1959.psd
# Power spectrum* (dif=0,1,2) (really just |FT|^2)
# NOTE: only the first half! (symmetric)
# weeks: 1280-1959
# 244 clock-days, 40 excluded
# PSD: 1441
437.595 0.0990142 0.05203
27731.6 0.629222 0.125607
120365 2.42494 0.129321
31249.2 1.18817 0.13348
31245.1 2.32013 0.130331
11232.5 1.23755 0.131746
10082.9 1.52345 0.138849
5649.1 1.04591 0.133937
4410.03 1.24106 0.126858
3780.41 1.2754 0.133818
3124.54 1.28095 0.132724
2499.37 1.25555 0.137228
1972.38 1.22064 0.133316
2055.16 1.37165 0.128549
1661.62 1.32348 0.128828
1391.5 1.30238 0.135618
1284.63 1.45302 0.129085
1187.75 1.50692 0.139898
994.162 1.3982 0.13338
1014.82 1.55202 0.12739
890.734 1.48054 0.131346
799.319 1.44848 0.132372
773.019 1.65192 0.146299
691.107 1.51184 0.137089
736.864 1.81682 0.138579
710.937 1.9565 0.126677
605.119 1.66728 0.123892
565.496 1.72986 0.143157
559.801 1.85642 0.141209
531.266 2.04485 0.144172
538.102 2.17393 0.135751
493.294 2.09387 0.131348
485.804 2.01809 0.128637
456.037 2.23592 0.124387
508.296 2.61942 0.144201
413.677 2.22738 0.146304
436.103 2.38368 0.140823
458.664 2.75194 0.159748
393.085 2.4602 0.147156
425.546 2.76045 0.147437
381.355 2.66419 0.144922
407.346 3.15846 0.159649
366.908 2.66491 0.140575
360.208 3.07036 0.153303
361.199 3.27283 0.162651
365.972 3.27552 0.161665
394.821 3.76014 0.162131
350.467 3.4561 0.164865
332.181 3.54612 0.163781
342.185 3.63502 0.170538
377.973 4.23225 0.175147
329.885 3.90903 0.173282
349.097 4.2069 0.186516
343.449 4.26903 0.187956
329.496 4.31714 0.180152
334.247 4.54708 0.188458
346.85 4.85661 0.189603
304.042 4.51329 0.199148
328.166 4.95308 0.198396
307.847 4.81681 0.196258
291.413 4.78345 0.205634
332.498 5.54774 0.2167
286.669 5.10223 0.224044
284.755 5.22688 0.228198
244.047 4.86643 0.230352
310.446 5.63116 0.25626
287.65 5.73016 0.261635
307.017 6.24833 0.272108
295.715 6.34011 0.262543
317.096 7.01681 0.283133
269.827 6.19823 0.262588
279.343 6.66585 0.275607
298.883 6.92419 0.269534
236.884 5.87027 0.263133
286.252 7.27433 0.325263
274.205 7.22692 0.325419
271.601 7.31189 0.319289
281.781 7.83009 0.323021
240.238 6.65419 0.318309
264.563 7.6769 0.32989
278.288 8.41784 0.387481
264.508 7.95641 0.387148
270.81 8.261 0.367653
241.363 7.68862 0.377996
229.196 7.49381 0.374642
248.971 8.20582 0.423272
271.181 9.20409 0.449484
261.378 9.15472 0.44151
248.075 8.8678 0.423116
238.915 8.74637 0.460092
256.162 9.37213 0.472531
225.495 8.98544 0.459015
251.348 10.0812 0.532233
231.177 9.22044 0.46329
226.699 9.40872 0.531483
211.976 9.03281 0.518482
261.748 11.0168 0.598502
243.525 10.6224 0.574579
250.922 11.193 0.636773
227.426 10.4368 0.598333
227.358 10.3772 0.6225
232.708 11.1006 0.615075
247.407 12.1493 0.730868
225.531 10.9173 0.64841
217.769 10.9634 0.694934
232.456 11.5325 0.730033
233.499 12.084 0.801581
225.328 12.1876 0.72744
210.846 11.6548 0.776035
212.099 11.717 0.82467
250.432 13.8051 0.925738
198.807 11.4576 0.749058
250.059 14.5963 0.971193
197.935 12.1169 0.86457
226.787 13.49 0.969143
215.04 12.9183 0.943082
210.23 13.3437 0.9798
212.94 13.2594 1.00532
220.082 14.5352 1.06716
205.073 13.7088 1.03779
195.596 13.0466 0.965848
225.439 15.4674 1.19749
228.143 16.0002 1.22765
212.529 14.9814 1.17942
201.611 14.321 1.10562
185.821 13.7874 1.10201
210.186 15.6255 1.29719
217.937 16.2405 1.3152
201.557 15.7019 1.30787
206.816 16.1089 1.33719
189.431 14.8964 1.31784
196.952 16.0551 1.41545
201.004 16.6711 1.45768
209.53 17.2618 1.55526
175.156 14.8367 1.44487
202.449 17.5797 1.63281
211.452 18.3002 1.61594
177.415 15.6996 1.51074
186.639 17.0867 1.63843
174.284 15.7401 1.59419
193.106 17.2445 1.66695
186.383 16.7607 1.63156
187.553 17.6127 1.82436
196.739 18.846 1.96686
194.554 18.2049 1.78232
175.391 17.2296 1.76022
184.296 17.9696 1.89426
187.306 19.0633 2.09218
177.404 18.2112 2.00606
198.045 20.6628 2.20308
198.153 20.7984 2.30636
175.846 19.4048 2.2408
176.803 18.6579 2.07847
188.47 20.9236 2.33637
158.105 17.2178 1.92897
162.956 18.2761 2.17035
172.934 19.5403 2.33749
171.555 19.6097 2.22596
170.031 19.5764 2.41424
186.834 22.3848 2.76602
172.64 19.9449 2.46753
172.667 20.5422 2.6096
186.826 22.7145 2.8177
188.52 23.4769 3.08435
169.909 21.1287 2.84898
165.582 21.265 2.85278
151.81 19.0337 2.56175
166.679 21.5042 2.89258
170.913 22.1942 2.9998
164.563 21.8856 3.04708
169.017 22.3968 3.13069
165.443 22.3298 3.18184
165.027 22.7459 3.31705
163.98 22.4169 3.20703
173.697 24.5283 3.6349
156.71 22.475 3.28011
156.403 22.8372 3.44859
168.675 24.7957 3.7102
179.497 27.2299 4.17614
171.488 25.3367 3.78962
149.604 22.4075 3.41377
143.136 22.0657 3.43918
149.408 22.7314 3.54949
141.892 21.9767 3.5898
166.806 26.1161 4.18673
160.136 25.19 4.09434
149.053 23.9035 3.92933
146.912 23.9051 3.96589
148.419 24.5663 4.1166
162.652 27.1209 4.67818
154.912 25.5032 4.32485
145.566 24.9319 4.3475
153.656 26.5952 4.53806
154.969 26.8541 4.57988
142.904 25.3824 4.5966
137.079 23.9974 4.38205
141.428 25.1787 4.5883
153.658 27.5868 5.17861
148.897 27.1342 5.04989
142.624 26.0451 4.92371
161.545 30.499 5.84929
161.863 29.7495 5.59606
146.176 28.3926 5.57189
133.031 25.8987 5.15669
151.312 29.7292 5.80683
163.155 31.0998 6.11175
131.674 26.0078 5.11647
122.336 24.7712 5.0949
118.603 24.0479 4.97979
142.409 28.262 5.7054
133.064 27.6856 5.82274
127.184 25.8079 5.25661
130.827 26.7928 5.86301
130.869 28.5217 6.20511
130.174 27.393 6.12827
135.494 28.6051 6.30602
140.744 30.1226 6.581
126.781 27.8118 6.16727
141.477 30.4463 6.61466
124.54 27.7841 6.22536
146.469 33.4988 7.62309
119.241 27.0676 6.46801
117.905 26.9711 6.37508
134.365 30.8551 7.11825
134.703 31.2778 7.60984
135.737 31.8391 7.62505
133.317 30.9211 7.34389
138.94 33.0913 7.84709
124.634 29.7233 7.35136
110.877 27.4776 6.85956
124.489 30.1725 7.26953
113.043 27.3122 6.61965
124.381 30.7282 7.64749
135.931 34.4403 8.79783
127.891 32.9561 8.50889
126.735 32.4424 8.49085
134.466 34.5111 8.95451
132.714 33.6521 8.72414
126.647 32.4451 8.64571
112.022 29.4846 8.03725
109.342 29.0383 7.7434
115.627 31.2436 8.34014
119.925 31.7177 8.63723
110.01 30.7759 8.78119
110.768 29.994 8.15749
118.662 33.2202 9.20891
119.069 33.558 9.56997
123.937 34.525 9.75959
128.698 35.9728 9.9817
114.202 32.8402 9.54721
123.559 35.8281 10.5714
115.843 34.0326 10.2459
108.151 31.6237 9.49504
122.492 35.371 10.5464
116.87 33.0655 9.48792
114.592 33.9688 10.1489
113.795 34.1694 10.5688
121.036 36.7821 11.3122
101.366 30.4082 9.39171
108.628 33.1491 9.97515
101.51 31.7459 10.057
100.736 33.1345 11.021
110.532 34.0505 10.5634
106.651 33.576 10.6754
107.091 34.0741 11.0019
114.19 36.4502 11.4938
102.473 34.9845 11.782
101.845 33.9884 11.2123
99.1264 32.77 10.9368
111.345 36.1991 11.8098
86.672 29.7587 10.2434
111.209 36.6866 12.4299
98.3759 34.2649 11.7526
88.2579 31.1688 11.1027
106.61 35.9567 12.4836
104.28 35.6009 12.0844
100.549 35.2534 12.3564
103.813 37.5318 13.5078
91.1833 31.3503 11.0572
96.5879 34.6153 13.0443
97.2298 34.546 12.2783
96.2855 35.073 12.6774
93.4463 34.53 12.7463
107.097 39.1144 14.2895
95.8529 36.2284 13.7291
98.8912 37.0489 13.5546
91.0872 33.5863 12.495
101.485 38.2307 14.7509
92.3734 35.3316 13.6055
94.0154 35.0766 13.3614
98.2259 36.5932 13.8561
91.5659 35.395 13.9726
88.357 34.6355 13.5763
90.3697 36.2453 14.5068
91.7162 36.1676 14.6214
99.7271 39.6085 15.5943
95.2738 38.4809 15.532
94.8179 37.4136 15.2321
92.1613 38.0662 15.8692
88.6957 36.8454 15.2713
86.7578 35.4923 14.9753
85.2197 34.7359 14.3717
88.7817 36.4927 15.1721
97.5404 40.7119 16.677
84.3965 36.0838 15.6312
92.9092 39.4518 16.8396
88.9817 36.8547 15.5291
88.2896 38.3121 16.6543
91.5352 39.4074 17.0611
88.9389 38.9443 17.0129
96.0453 41.2811 18.25
91.4661 39.4383 17.2602
79.9585 35.202 15.9767
88.1398 40.0113 18.0917
86.1439 40.1145 18.7754
91.7148 40.3181 17.812
75.3458 33.875 15.8132
80.4222 37.2468 17.5917
82.2319 37.0856 16.9715
81.7673 37.7938 17.6581
83.1863 38.7239 17.8486
78.7854 37.3508 18.1856
82.8956 38.1351 17.8739
71.8279 34.7683 17.2128
77.8096 36.9285 17.5721
72.4976 33.6218 15.7803
80.517 37.9618 17.895
73.2874 35.3754 17.1165
76.7994 38.0883 18.8949
78.9595 38.8626 19.3928
76.1076 37.1541 18.5197
75.6836 37.2879 18.4783
81.8811 40.7765 20.4966
83.1516 40.8087 20.1596
78.8497 40.3668 21.0707
72.8407 35.7531 18.0689
69.2647 34.8999 17.8146
73.5437 38.0589 19.5834
80.5764 42.5645 22.4206
72.5998 38.0361 20.2053
73.4453 39.3024 20.7736
76.1953 39.3334 21.022
74.0945 39.9886 21.7837
68.2472 34.4358 17.673
65.4898 34.6638 18.3938
75.8281 39.3588 20.6468
70.2736 39.0963 21.5161
71.1499 39.4626 21.984
72.8323 38.8982 21.3018
72.0554 39.1628 21.1988
68.9634 38.8429 22.2643
74.0768 39.9641 21.8952
66.8889 36.8975 20.079
69.7203 41.429 23.8248
67.5663 38.1224 21.7356
62.6552 35.5462 20.4067
72.7844 40.8512 22.6361
76.2416 44.7033 25.7835
74.1155 44.1241 26.0117
70.5872 39.9774 22.5995
61.2691 36.7427 21.8003
66.5225 38.7806 22.9655
64.8617 38.2788 23.0364
68.0861 39.3366 23.3715
68.3377 40.9015 24.1683
64.6694 38.8237 23.1952
68.9098 41.6128 24.8395
59.2039 36.7078 22.5039
63.6641 38.341 23.5198
61.0489 37.3571 23.6768
64.7523 39.1835 24.2905
68.4193 40.8916 25.0564
68.3031 41.7434 26.291
64.1536 38.4354 23.373
63.7721 41.4983 27.0812
68.6882 41.8796 25.8262
62.6835 39.7494 25.9759
63.613 38.7629 23.9206
60.642 38.0251 24.2311
58.2782 37.1374 24.1373
60.1056 38.5901 25.3596
57.3237 36.4442 23.4149
61.1895 39.1491 25.6521
70.3996 45.351 29.0266
66.0239 43.0911 28.1495
59.1352 40.2693 27.2099
60.392 41.7175 28.7367
65.5358 43.7168 29.8356
63.3302 41.942 28.0614
60.0639 40.6793 27.2263
55.4416 37.845 25.7996
53.0835 35.1766 24.0413
58.5846 40.8686 29.2305
64.1421 42.2559 29.0922
60.8518 41.8506 28.825
62.5212 41.9537 28.1062
57.489 40.6504 28.4451
54.2135 39.117 27.9555
54.9642 39.9245 29.6227
55.8192 37.7475 26.2422
55.7727 40.308 28.6008
56.5853 40.8968 29.3637
57.1999 41.8844 30.7118
57.8164 41.2651 29.6477
54.1996 40.2288 30.0621
57.2029 40.0884 29.129
55.4249 40.5244 30.7426
61.7856 43.7921 31.086
59.1309 42.0748 30.2529
56.7269 41.6849 30.4578
49.519 36.9545 27.6436
46.1713 35.346 27.1899
51.0152 38.2076 28.876
54.2061 41.202 31.4041
59.9949 45.5423 34.4143
52.6133 40.3122 30.9889
57.4838 43.0445 32.5321
52.9243 42.1596 32.8704
46.7612 36.4463 29.7936
51.1616 38.9646 30.4981
51.0127 38.7775 29.4902
48.5552 37.1979 29.4647
52.1617 40.5083 31.6834
42.047 32.2432 26.0017
45.3055 34.9815 27.9953
48.265 38.5396 30.3834
53.8451 42.4574 33.5295
43.9595 34.0215 27.027
46.477 39.3794 33.2851
47.5999 38.231 31.9655
50.2324 38.2936 30.474
51.2722 42.0168 34.1262
53.2111 42.7036 33.8389
49.095 41.755 34.7797
44.9919 35.612 29.4172
50.6709 42.8205 36.2543
58.3743 49.5035 41.9374
55.4242 44.8023 36.993
51.3714 44.0804 38.6513
54.4424 44.5352 36.4944
48.4629 42.8126 38.0429
51.8341 43.8064 36.9502
51.0386 43.3258 37.1728
47.4992 40.0564 34.2667
48.4954 41.0063 35.7086
51.536 44.8237 39.2039
49.921 41.7775 35.4651
53.4474 48.5016 43.591
46.8078 39.9076 35.0028
48.4775 43.7995 39.7248
48.4015 40.6822 34.1698
38.9938 36.6856 34.8463
48.6669 43.3091 39.111
47.6876 41.3392 36.9507
43.0042 37.1971 33.9864
46.3839 41.0693 36.6751
47.5308 41.4165 35.3494
42.2374 39.8906 37.5972
44.7533 40.9134 37.8933
42.3509 39.8097 37.6953
46.017 40.9364 36.1504
41.5705 38.3976 34.9215
41.0018 39.148 36.6166
41.8866 38.8384 35.8917
37.3454 35.9046 35.1373
40.5159 36.0779 33.1946
38.2034 36.5824 35.868
45.417 41.803 38.4722
41.4727 40.9217 40.4691
46.814 44.1925 41.7925
49.5568 47.4625 44.8981
41.2146 41.6713 41.3664
40.6995 37.6822 36.6183
44.0329 42.9807 42.0385
41.2949 39.9499 40.4762
39.9715 37.2808 35.3042
41.8858 40.9132 39.3714
42.3775 41.3808 40.8938
38.9562 37.5152 36.9998
39.3211 39.1556 39.7862
38.0926 36.549 36.7238
43.6346 43.3468 42.9988
44.8698 43.9029 43.3517
39.269 39.8139 39.62
38.1654 38.9625 40.4797
40.7606 40.9137 42.5774
43.2535 42.2291 41.0713
38.3428 40.0579 41.2086
40.6874 40.9898 42.1938
39.3626 39.595 40.4827
40.1307 43.2275 46.3562
39.3978 39.3173 39.8018
38.57 41.369 44.3606
43.721 47.1372 50.1858
42.9128 43.5093 44.3977
35.3922 36.5971 38.8135
37.144 38.5646 41.3549
41.1687 43.0507 44.4122
33.9871 36.1991 40.5451
38.5046 39.4152 40.9713
34.8119 36.8036 39.7074
35.9066 38.152 41.6395
38.0251 39.8324 42.8463
34.8596 36.0654 38.312
34.6307 38.8907 44.5714
41.3368 45.6255 50.0071
38.3618 40.7757 42.893
34.636 39.3858 45.2506
38.0472 40.5441 43.946
34.6625 38.0774 43.4458
40.5331 43.4205 46.8492
34.5868 37.6643 41.6788
33.7091 36.6145 40.0726
35.3517 41.4689 46.5335
32.6134 36.7489 42.7966
33.1693 38.6416 45.6609
36.265 40.2257 45.125
34.3926 39.1779 45.3774
33.924 39.4925 47.1161
34.9883 37.5009 42.5526
38.2209 42.2375 45.8116
34.9705 41.3729 47.523
30.0808 34.869 42.829
33.9116 39.2088 45.1256
32.4907 35.9197 40.9396
36.7837 42.9219 49.0096
35.0121 40.3758 47.8554
34.1972 40.6287 47.6943
32.7913 38.6869 46.4759
34.8727 41.1245 48.8684
35.1727 41.4924 50.0943
33.9793 39.1686 46.7811
32.0594 36.8851 42.7347
31.3484 37.6138 42.7481
29.5637 39.9977 53.1519
32.3762 37.6341 46.9616
35.0612 42.6855 52.2294
32.7868 37.7335 45.3555
34.2211 43.3112 54.9615
35.6757 43.9818 54.7813
32.7663 38.8107 47.4562
31.6205 37.6587 45.7617
30.8443 36.7364 46.8052
34.4714 39.9309 45.2679
27.9262 38.1323 51.2501
31.5319 36.9874 45.3822
32.2252 40.4831 50.0027
27.4066 34.5127 44.1778
28.9371 36.4505 47.091
28.6696 34.6592 44.7544
31.0507 40.2531 52.833
34.2904 41.3804 50.2512
30.0894 39.3067 52.0057
31.5191 37.869 46.7173
28.284 35.2372 42.8402
27.347 36.494 49.3708
30.8299 42.3982 57.8956
36.6748 48.5106 65.1751
36.3 44.3126 55.9224
30.9497 38.4796 48.7778
29.3506 38.1363 49.8863
29.5038 38.3863 49.9742
31.9422 43.2922 56.9576
28.1957 36.8764 50.3594
31.3766 43.0427 59.8322
29.8165 36.1357 47.4838
34.0932 45.5195 58.6157
29.4485 39.2446 52.7475
27.9907 37.257 51.5956
31.8233 41.9524 54.9929
29.4064 39.1799 52.9561
31.0709 41.3104 54.7293
26.8611 35.5602 48.1338
30.4285 43.0434 59.1432
30.1146 40.8128 55.4101
25.474 35.0507 50.8681
31.571 43.0273 57.0672
25.4011 36.5552 54.7213
30.2228 39.4645 52.1628
27.8148 39.3149 55.84
28.1891 39.5479 55.9703
25.9555 34.4482 47.1011
25.1329 36.5072 52.8179
25.9955 33.9269 46.1592
24.4779 34.271 48.7573
24.9533 35.5936 52.902
28.9975 39.457 52.6304
28.2052 42.4004 62.0486
26.4666 37.4026 54.1287
28.6637 38.6673 52.8654
28.2186 42.3296 60.8714
24.9985 35.111 51.4399
25.5925 37.3112 53.9718
26.2167 37.4479 53.6792
25.401 36.18 52.739
26.2507 39.8295 59.4613
23.0802 32.6719 49.828
25.85 37.0568 55.0701
25.4356 36.8778 55.0898
25.2894 35.2183 51.1768
25.1429 36.0753 52.3081
23.2238 34.7632 52.9966
25.2062 36.3188 54.0979
28.0147 43.9723 66.4976
24.9812 33.8518 49.847
25.1534 37.013 54.9804
27.4273 40.7129 58.887
23.383 34.2237 51.0646
24.5917 37.6292 55.6126
22.3896 34.5312 53.7082
24.1591 35.5516 53.4508
21.9388 34.9792 56.9476
24.9155 37.6543 58.2729
25.138 37.0026 56.2081
23.6307 37.056 58.8093
23.0739 34.4292 53.6044
24.1464 36.6389 55.6947
24.9179 38.7032 60.6637
23.3418 34.8975 54.0869
21.5752 33.3805 54.6061
25.1461 37.7421 59.1963
25.945 38.6298 56.6056
21.9459 34.0528 54.2051
23.8703 36.0126 55.3471
27.1033 45.1446 69.1322
19.4973 29.5379 47.5275
19.1856 31.6515 53.8166
23.4903 36.9112 58.6908
23.9477 38.5753 61.015
22.008 34.1237 54.7041
21.9678 35.3357 58.608
22.394 34.7951 57.2637
23.7636 37.4099 57.471
21.2776 34.1878 56.7199
21.7454 33.4012 52.0937
20.7789 33.7349 54.2524
19.8545 34.3613 60.2954
21.4421 31.8315 51.4185
20.8937 34.8056 55.7523
20.1084 34.3929 60.2421
22.5282 36.0844 61.0879
22.276 35.6926 60.3709
23.3641 36.0372 55.0978
20.9079 35.7832 59.1831
22.2662 36.8908 60.2773
22.0006 35.6704 57.266
20.6093 36.132 62.5701
21.1439 35.12 59.9986
24.1819 39.642 64.0643
20.388 32.9607 56.7495
20.6219 35.4109 59.6897
19.4273 32.0166 55.0273
21.3241 34.6489 56.604
19.2073 33.3329 59.0405
21.0274 35.7567 60.6913
20.4091 35.4205 63.2684
20.9972 34.1982 57.5892
21.2346 38.0149 68.1731
22.1765 34.6516 54.5696
17.998 32.6889 59.5667
22.5356 41.4906 74.0291
21.7662 36.9194 67.0384
22.6042 36.461 62.647
23.6858 40.6858 67.4162
20.6517 37.3041 69.435
23.5509 39.6995 65.8476
20.6141 36.7571 63.7672
19.5558 35.1832 66.0013
21.4402 37.3709 64.8689
19.9377 33.4886 57.5864
18.583 33.7962 63.9693
20.9898 36.2123 64.9387
21.319 35.7702 61.0628
21.3533 38.212 64.1765
19.121 35.3756 63.7344
19.3118 35.7122 66.1654
19.8768 35.8519 68.5502
20.7822 36.6042 66.1688
20.6506 36.0262 64.519
20.0162 34.0388 57.7695
17.947 34.6608 63.9762
16.5363 28.7677 52.6693
18.4327 35.366 67.3822
19.6241 35.1581 66.34
20.4499 38.0592 69.0158
18.7816 31.1204 55.3947
17.3067 31.8216 57.937
16.5863 31.4371 61.0325
17.9346 31.1804 59.5113
19.5938 34.8817 60.65
17.6088 33.5814 63.9554
17.3452 31.1213 58.7572
18.4736 33.5543 61.7231
17.4346 31.4747 57.4499
17.2629 31.7815 57.448
16.9622 33.5902 62.7544
17.274 34.1206 65.4941
15.9755 29.7071 61.1049
17.9832 31.4786 58.355
19.6145 38.7009 72.2907
18.3909 36.1391 71.992
18.4589 32.9729 62.6643
16.2166 28.6392 55.7013
18.7307 38.0094 75.0972
19.6915 35.3623 61.4194
16.3751 34.0197 69.9846
18.645 36.6996 72.1312
17.3892 30.8975 60.7413
17.8111 33.6728 65.4086
17.5715 33.5486 63.904
17.1851 34.093 67.0233
16.6669 32.2598 63.4121
16.9956 34.5946 73.9371
18.1261 31.3679 60.8278
17.3647 32.8989 66.7403
17.3766 30.6826 57.3424
17.668 35.5725 70.3788
17.8453 34.328 65.3698
16.7545 31.7356 60.9791
16.7132 32.8807 62.4455
15.8314 31.3697 60.9909
14.4916 28.5484 60.5952
16.6486 33.3109 66.816
16.599 30.7581 57.6219
15.627 32.946 67.5143
16.5286 33.2481 67.2254
15.7482 31.309 65.8917
17.312 34.1855 66.0513
15.6106 31.2252 63.7744
14.951 30.3241 65.3159
16.7127 33.7397 69.1853
15.2008 30.5964 64.2226
15.4509 29.5206 59.2555
16.2981 34.7958 72.2663
17.3528 34.7633 69.5928
15.2487 30.6865 68.8611
17.3555 34.8755 72.8569
16.9296 33.0006 65.909
15.9316 30.9565 64.7686
16.646 34.2029 67.1074
16.162 34.1536 71.6063
15.5873 30.8029 65.8808
15.1699 29.2216 55.9443
12.8508 26.7408 61.1901
15.374 31.3429 62.3917
13.4838 28.6044 64.2261
15.4165 31.7355 64.517
15.5376 35.4893 76.7085
15.4468 32.5382 72.7365
16.9655 32.6231 62.8901
13.8019 29.6891 65.0698
15.0013 31.1196 66.3814
15.9923 35.5375 78.507
16.1486 33.2902 71.7831
14.6968 30.0321 67.4995
15.5374 29.2726 59.2337
14.1368 32.8601 76.1129
15.8788 29.0811 55.5845
14.0525 31.3474 67.4104
13.5694 28.9429 64.6115
14.4922 32.8627 74.3088
16.13 33.0604 68.8743
14.7258 29.725 61.451
13.2105 28.7936 62.6889
13.5745 30.6122 68.1367
13.9645 28.8897 61.2453
13.7227 29.8133 65.811
13.8997 32.3886 78.4807
17.4374 35.1007 73.6187
16.1863 34.1383 67.0013
11.6569 28.2006 70.4472
15.5116 32.1247 69.9987
14.2051 30.3831 66.7217
13.3066 28.2087 61.7585
13.1676 30.4101 67.6715
12.9287 28.6566 64.5787
12.8993 28.7703 66.7692
13.8165 31.0413 74.0504
16.0029 35.1407 74.8602
13.5394 29.5142 66.8912
13.1759 27.9641 60.5295
11.8946 27.5674 64.1878
13.7505 30.723 65.763
13.2039 31.4306 73.8858
14.4859 31.3422 72.4824
15.543 36.7661 81.0515
14.1202 32.4489 79.5538
14.8901 30.9512 68.4059
13.8263 30.166 70.0765
15.1276 34.061 73.2339
13.395 31.1688 70.623
12.569 28.102 66.0947
13.7645 33.9718 81.4389
15.1467 31.6367 65.4168
12.0141 28.7245 69.9247
13.3206 29.0057 66.4005
12.5249 28.1717 65.212
14.2476 34.5578 79.6714
13.0968 29.3491 71.3826
14.314 31.607 70.0644
13.3431 31.5518 74.0703
13.808 32.1383 71.0613
11.4812 28.2876 70.0897
12.1037 27.8013 70.5511
13.3747 30.515 70.3023
11.7633 26.982 66.1114
11.4657 24.7579 59.0617
11.3241 25.3267 60.4411
12.4519 30.2493 69.955
11.7197 27.9085 69.3774
13.672 31.6916 71.2816
12.3063 30.4006 73.0413
12.6062 29.0651 67.5062
11.4117 28.0202 73.6668
12.9654 29.7965 72.8474
14.096 33.6594 75.3285
11.7728 29.4341 76.689
13.0842 29.6111 74.9904
13.2522 30.1618 70.2877
11.307 24.5518 59.6299
12.7744 32.9987 80.6579
13.1429 29.8703 67.2208
11.345 28.5136 73.0241
12.7735 29.3668 70.4905
12.3388 30.8954 75.8996
11.8334 28.3127 71.7836
12.5754 30.2131 76.6971
13.0867 28.2489 62.6969
10.1549 27.0001 72.3225
12.7661 30.533 75.0509
13.0233 31.1141 74.3652
12.4825 31.2433 76.7824
11.9742 28.5918 72.872
11.7345 30.3093 82.1616
13.0285 29.0319 66.229
10.5296 27.8569 75.2627
13.0001 29.9211 69.0471
10.4726 25.8056 64.2534
10.6173 26.8584 71.3358
12.0322 28.7326 74.9253
12.4012 29.0682 70.0012
11.0484 27.2765 65.1493
10.3912 26.2502 67.6918
10.781 25.8434 71.2367
12.4081 29.4738 76.6053
13.0529 29.5087 65.2885
11.3277 31.7295 77.4067
10.4649 25.7868 67.443
10.3377 25.7545 63.2288
9.75405 26.5975 74.3814
11.3095 25.7654 67.172
11.2764 28.1399 72.3144
11.4721 28.2097 72.571
11.3874 27.4156 76.4351
13.9742 35.2545 82.2308
11.893 30.873 72.1401
9.67714 24.5153 71.45
12.319 32.0571 81.6106
12.1752 31.8975 84.9316
12.9151 30.1629 67.8398
9.96423 28.5519 79.9195
11.4605 27.3711 69.582
10.7373 28.5253 74.4356
10.4994 25.5092 68.7923
11.3655 29.8488 79.0057
11.8542 29.5653 73.8209
11.8175 33.2021 85.9174
11.2958 28.086 72.3865
9.35545 23.9291 65.8026
10.4975 28.6863 78.4577
11.0757 28.4391 79.1
12.2335 31.4716 79.4653
11.0546 29.6261 81.1492
11.0239 26.388 67.896
10.2502 27.6839 77.1488
11.8338 29.2364 72.4708
10.2659 27.0726 73.8266
10.8448 29.2386 80.1314
11.6105 29.1763 76.0956
10.9189 27.9549 74.0017
11.6475 30.602 76.4062
9.2892 22.4798 62.7299
10.3059 29.757 85.201
12.2242 30.8763 74.422
9.74769 26.3875 73.7903
10.5641 27.846 76.147
10.43 27.4226 72.2129
9.32496 23.5705 71.0953
11.6755 30.4251 76.4751
10.6809 30.1925 78.7489
10.0226 26.7891 69.499
9.59586 27.6785 76.198
8.6409 23.0314 72.1798
10.989 27.878 74.2395
10.4764 28.1482 74.9472
9.38867 24.1513 68.9727
9.40836 23.2414 61.3375
9.11844 27.2607 79.8414
10.1566 24.5766 64.8649
9.53208 26.4405 72.1583
9.19281 25.2659 75.1775
10.2348 26.2838 70.5816
11.124 31.4162 79.7119
9.18565 24.2509 69.9846
9.23659 24.7127 75.7499
11.1853 30.4547 80.063
10.8781 32.107 87.536
10.7693 30.3425 90.0994
11.5231 28.9595 82.4497
11.3551 29.7365 76.8513
10.0322 29.0131 79.9121
9.40938 26.3709 74.7041
9.36756 24.1825 63.8398
8.53784 25.8444 81.8836
11.1233 28.9382 76.9258
9.79216 27.57 75.0639
9.28966 25.5324 75.828
10.2441 27.5673 73.2007
9.28194 25.4703 69.239
9.21596 28.1324 79.8645
9.24499 25.5205 73.2157
8.98929 24.856 77.1086
10.2428 27.2669 71.8703
8.21625 24.3366 75.5002
9.94545 29.1198 89.2167
10.578 26.1086 73.1166
9.74739 25.6872 66.4884
8.3265 23.3817 65.5772
8.3391 24.4717 70.5359
8.4784 23.9059 68.2137
8.2073 23.4431 69.199
9.26777 27.4497 80.4537
9.78465 25.5791 70.1836
8.68739 25.8099 76.0818
9.52144 29.1438 89.4654
10.2097 26.8405 74.8591
9.06252 26.3118 79.7721
9.74061 27.6919 80.2825
9.99009 27.9408 80.3864
9.67038 26.9289 80.4382
9.44355 24.94 72.6566
9.9278 29.9983 81.9182
8.93612 25.722 75.3855
8.6803 25.6815 79.4328
9.62609 26.2702 76.6333
9.32572 26.0421 72.7557
8.1979 23.6315 75.5668
9.60397 29.0208 87.2478
10.0912 28.5622 77.7095
8.47849 23.649 72.2293
9.35622 27.4912 76.0985
9.52251 30.6992 90.3615
9.70824 27.4541 83.2375
9.42144 26.887 77.3034
8.33443 23.5233 70.9066
8.37976 22.9983 69.8564
8.57947 24.73 68.6288
7.61694 23.0305 71.559
7.7275 21.1499 71.7027
9.5137 29.325 86.7443
9.42265 25.7877 74.929
8.95385 24.6639 72.9949
8.45619 24.5086 75.6122
8.93791 25.1217 67.5001
7.70531 24.3217 73.0668
8.47979 25.0198 67.1074
7.21656 23.6176 78.5992
8.74619 24.9165 74.605
8.20722 24.8026 72.5914
7.41602 21.8768 71.1631
8.4902 26.6369 85.8566
10.1613 30.4195 84.8942
8.17217 24.291 83.2789
9.65922 27.3039 79.7157
8.16541 22.2576 68.2241
8.3564 26.5525 79.5492
8.39775 25.7386 86.4241
9.76999 27.5052 76.8853
8.2739 26.1851 84.6917
9.50082 27.1363 77.875
8.25556 24.8445 75.9725
8.11467 24.1892 82.1456
9.68347 28.3266 72.4502
7.46681 25.26 88.7282
9.91174 29.405 93.382
10.073 28.3225 78.7739
8.14884 25.9807 90.9726
10.2682 29.0448 78.7795
8.62557 29.5589 93.5239
8.81564 23.8347 75.4364
7.94451 24.3809 82.8004
9.1306 27.3338 82.3463
8.34776 25.112 83.2584
8.96399 23.096 67.072
8.05804 26.7053 82.5984
9.15135 28.249 87.6248
9.45615 30.1406 89.3254
8.54367 24.6329 69.7909
6.89996 23.0039 81.7202
8.89337 27.1031 78.0441
7.61725 23.8243 76.5196
8.23106 26.0934 89.3673
8.98403 24.7283 69.1787
7.29294 25.0875 84.4859
8.67713 27.0048 85.1296
8.53353 26.6981 81.6427
8.59637 27.7371 83.8004
7.79372 23.1283 79.7921
8.3626 24.2744 75.4074
7.64397 24.7263 83.8035
9.0131 28.0304 82.3338
8.10404 25.7369 82.0107
8.24402 26.3271 90.4277
8.98411 25.8905 82.4305
8.80338 28.3772 89.4711
8.5063 24.7725 75.8968
7.64318 23.2201 74.0541
8.14632 26.2752 80.1201
7.56265 24.6949 85.0683
8.29254 24.6248 76.8373
7.56753 24.9952 86.1317
8.5728 25.2492 84.1818
8.81449 26.3328 83.7094
8.92421 28.7228 91.6178
8.64868 26.0954 86.6107
9.23623 30.0387 91.7555
8.22178 24.5213 76.5563
7.51205 23.823 83.1537
8.45581 25.3091 74.1678
6.93062 21.7666 78.1008
8.21046 25.6262 75.6498
7.21479 22.8854 75.5364
7.39872 22.8726 72.7366
6.93955 21.1531 71.7235
7.19478 22.6004 71.6104
7.30527 25.3565 87.3239
7.96728 23.487 73.0021
6.73119 21.4294 74.6269
7.24436 21.9129 68.5759
7.33315 24.3805 76.5757
7.51852 23.9171 71.1606
6.34 23.299 82.7173
7.23374 21.7687 73.6078
7.34804 23.7626 69.9756
6.11358 19.2559 66.832
6.82303 22.4046 70.0459
6.20894 19.8668 70.4165
6.40331 19.2323 65.6175
6.4388 22.2364 80.5146
7.70606 22.839 68.6474
5.91683 18.6614 69.4946
7.06464 21.7826 68.6951
6.57453 22.9431 72.7053
6.31995 18.4393 66.8346
6.79639 23.0757 75.1306
6.92885 21.9702 78.6274
7.63108 23.8687 72.2967
6.77764 24.0899 84.0689
7.0746 22.323 77.2442
7.40279 22.6911 66.4477
5.83208 19.2082 67.421
6.56178 21.5769 72.6423
6.63347 22.6358 73.7923
6.39608 20.4827 67.7633
6.4224 20.3386 65.2773
6.52904 25.6985 89.4526
7.3369 20.9637 68.0607
6.35116 22.8589 79.2147
7.09411 23.2703 79.4863
7.09742 22.253 78.7482
7.28226 22.7853 75.0353
6.41187 20.2372 69.8521
6.5482 20.6536 70.8355
6.59982 21.8474 70.6885
6.35935 21.9358 76.8072
6.75631 21.0696 73.0535
6.78525 20.4914 64.3272
6.03188 20.2134 71.9428
6.57564 22.5052 70.377
5.74599 19.8022 73.3564
6.57376 19.4956 67.0723
5.99433 20.789 77.7143
7.16719 21.8367 70.9601
6.38497 21.67 75.7261
6.78567 21.5427 69.1614
6.43855 21.7596 70.8355
6.47647 21.5337 71.6025
6.13961 21.8087 79.1041
6.79067 21.2561 69.3984
6.04018 21.6002 70.9473
5.70843 19.1987 67.5056
6.02326 20.5037 71.0796
6.35144 21.8386 72.0887
6.23416 22.5496 75.8371
6.28265 20.0737 76.4807
6.78706 19.6681 64.0072
5.9476 21.1962 69.5983
5.8093 20.5647 68.4457
5.66461 19.027 70.8334
6.29188 21.4534 65.8153
5.39463 19.107 73.345
6.58552 23.472 78.9175
6.3198 20.931 76.7048
6.67087 20.4663 70.8501
6.38275 21.8739 71.0101
5.97674 21.9898 78.5243
6.51858 20.5659 67.5772
5.67317 23.2987 85.7237
6.75201 21.7023 81.8163
6.88697 22.0878 73.9819
6.27338 21.9384 79.1025
6.27359 20.6964 78.2112
6.86871 23.4627 81.7883
6.51242 19.9836 66.8461
5.96279 19.1027 69.9812
6.71558 24.8024 81.8397
6.43879 20.4692 66.9031
5.5609 20.501 82.3066
6.94838 21.7194 70.0919
5.69226 20.5375 69.1905
5.74378 19.0828 74.8171
6.22422 20.3297 68.8457
5.86038 20.4005 72.5734
5.99149 20.8037 71.9076
6.00265 19.5183 70.9022
6.07016 19.4199 66.8814
5.79257 21.3919 76.5943
6.14959 20.336 73.9104
6.29719 22.1527 73.3862
5.67086 19.0033 68.4524
5.59412 19.448 76.5885
6.45262 20.1547 61.137
4.97496 18.7004 70.0044
5.98687 20.321 70.2925
6.12789 21.5153 74.75
6.13811 22.223 79.8389
6.39763 19.8809 65.3706
5.56215 22.0304 82.7648
6.61932 22.7415 73.9512
5.44187 19.3944 80.104
6.25007 21.0496 76.4933
6.15176 19.0602 60.5963
4.98138 18.3896 65.1578
4.90965 19.5153 82.5856
6.74059 20.8158 69.0066
5.68743 21.6518 79.3311
6.27079 18.8996 61.6726
5.50916 22.5966 80.3877
6.28207 21.8457 76.4927
5.74653 20.7646 83.0504
6.63311 23.0058 84.5725
6.60311 21.4853 83.9596
6.76989 22.6788 70.5092
5.38033 18.5224 67.3047
5.23639 18.6508 67.7725
5.3954 18.797 68.2179
5.76461 23.1383 76.3913
5.69948 20.8714 79.9995
5.95067 18.1417 66.7993
5.37241 18.8431 70.6136
5.54625 19.9167 73.0141
5.78442 20.6697 72.7586
5.89752 22.1623 80.6688
6.11654 20.264 74.3439
6.17753 22.5607 75.9158
5.55079 18.4581 71.1133
5.40462 19.6622 75.9065
5.99111 18.8357 66.0141
5.42372 19.6466 70.6495
5.76414 20.6293 72.7006
5.61033 19.0676 69.215
5.63982 20.5753 73.6838
5.66531 20.6514 76.52
5.90432 21.0048 80.5843
6.04143 18.5911 65.7286
5.21726 19.2207 72.0469
5.65569 19.6055 78.1984
6.09741 20.7964 71.1534
5.55456 20.4319 73.8439
5.59892 19.5543 76.3704
5.83751 20.5474 67.746
5.13708 19.0251 73.5511
5.53247 17.943 65.5639
4.92753 17.3484 63.9293
4.91658 19.316 74.823
5.77145 20.7302 72.1708
5.32025 20.7529 76.3704
5.75708 20.121 76.3587
5.66688 19.5501 73.6844
5.40776 19.1787 64.9262
4.96998 18.9564 73.3385
5.33029 18.579 75.7788
5.79985 20.885 71.8095
5.36218 19.5455 75.5457
5.65032 19.0848 68.864
5.00416 17.2552 69.9324
5.53396 20.4 76.1164
5.79746 19.9702 78.329
5.84551 17.6874 61.0963
4.93842 20.595 73.1181
5.42912 19.8321 78.5853
5.99259 21.038 70.0428
4.81364 18.3633 81.2335
6.27075 23.5331 81.4469
5.85013 18.9212 69.9189
5.50079 21.8988 76.2587
5.38358 17.6017 68.5522
4.96482 17.7461 69.6291
5.31695 19.5816 76.0351
5.5621 19.3603 69.6797
4.97593 16.9054 62.152
4.8841 18.9057 75.0377
5.60003 20.0472 69.6449
5.04978 19.1712 72.2558
5.36653 19.3863 71.4045
5.16054 18.9623 68.8381
5.05816 18.8218 73.6995
5.36776 18.922 74.1351
5.37685 20.4582 71.8744
5.10998 17.9955 67.9293
4.935 17.2487 69.3105
5.24217 19.6787 70.95
5.461 19.3223 70.0736
5.1082 20.5547 75.0863
5.54735 19.6215 73.8784
5.41714 20.3949 76.0123
5.27095 17.8664 71.5231
5.23338 19.1505 72.5121
5.44752 21.7559 81.7047
5.72931 19.8702 75.503
5.5732 19.5703 73.9005
5.44073 19.5498 71.21
5.34714 20.1984 75.2003
5.45164 17.5278 67.5079
5.06214 19.9503 77.6364
5.41146 18.8493 66.8751
4.84933 17.7587 67.3024
4.90757 17.7819 60.4871
4.3919 18.1887 72.4299
5.22928 20.9519 78.7055
5.36992 18.8549 65.633
4.79687 18.6706 74.9118
5.2961 17.9719 72.5634
5.10031 19.4641 80.3227
5.85054 20.6685 76.1776
5.43138 18.9549 69.5514
4.80491 17.7803 80.399
6.17396 21.6398 83.4736
5.99714 21.3827 76.2632
5.35077 19.6098 74.6865
5.30911 18.8448 71.6269
5.19409 19.9304 71.5992
5.12927 18.6028 82.4339
5.9128 21.8999 73.3196
5.23933 20.4541 76.8544
5.42381 20.2175 79.4507
5.5924 18.695 64.5845
4.62451 17.8578 61.3337
4.51079 18.7804 81.4733
5.59513 19.3881 83.5786
5.92431 21.8701 83.2829
5.73504 20.2775 69.1504
4.76378 18.1861 72.219
5.02991 18.4076 68.9329
4.83878 17.6073 68.9163
4.78094 17.2452 65.7942
4.69754 17.4643 72.4234
5.11777 18.1043 68.5411
4.96434 19.7064 76.7865
5.44689 18.8692 67.3647
4.78083 18.4753 72.604
5.09838 18.2544 66.9896
4.66864 17.8454 66.4572
4.63985 18.4919 67.8229
4.63947 19.1207 74.5938
5.10299 17.4015 75.8183
5.32683 19.1566 66.6318
4.67604 18.6876 77.0244
5.19044 20.8808 80.5899
5.50115 18.9029 79.5106
5.6233 20.2053 77.1243
5.40301 18.3374 66.6096
4.66718 18.4359 67.7841
4.63163 16.2313 76.1136
5.56006 21.4373 76.2577
5.22717 18.7853 78.7911
5.36973 18.163 62.2177
4.60845 18.315 66.2143
4.58252 17.3984 76.9609
5.2675 20.186 75.2102
5.22915 18.4907 69.776
4.89039 17.5585 63.5635
4.31337 17.2484 71.4383
4.79335 17.1374 68.6325
4.77312 18.0957 71.776
5.0132 18.3094 63.9014
4.49892 18.8092 78.7706
5.41009 18.0603 74.233
5.53296 20.4579 69.2219
4.67758 18.1837 75.3803
4.916 16.0549 60.7108
4.34071 17.0168 76.3827
5.25449 19.7117 64.7892
4.60204 18.2611 71.2767
4.96877 17.5594 69.8316
4.76689 17.9881 73.8899
5.02466 18.1598 71.44
4.91379 20.6076 75.4227
5.00629 18.9596 72.509
4.97743 19.9456 66.3739
4.30357 16.5297 72.1804
4.85958 18.2885 70.4372
4.62175 17.0104 71.7943
4.93304 17.2727 68.0008
4.65713 19.3432 75.5413
5.17779 18.5931 66.3436
4.56254 18.7198 69.8353
4.59381 16.3811 66.4732
4.41716 14.727 67.9299
4.67958 18.6563 73.7401
5.07452 21.0593 76.9579
5.12677 19.7574 73.6484
4.93624 16.4201 70.7673
4.89753 16.7733 65.6412
4.54177 17.2814 68.8591
4.75665 18.1388 67.965
4.43436 17.5065 69.0588
4.55762 19.2832 79.264
5.37918 19.9756 73.0804
4.81548 16.629 76.568
5.16767 18.4714 72.7264
4.99016 19.5548 69.1592
4.51261 15.8339 60.7952
4.11612 16.3787 66.6733
4.43319 17.5165 71.6236
4.87515 18.2543 72.6936
4.94527 17.8067 61.4671
4.06137 13.8349 57.4591
4.00921 19.1388 79.7013
5.26858 19.1487 65.9434
4.2957 18.6334 71.5845
4.61106 16.8394 70.1892
4.56242 17.3817 66.9803
4.43471 17.3233 73.3992
5.11284 19.6284 71.0117
4.48518 16.8468 73.2939
4.9115 17.1954 65.7256
4.41367 17.0454 70.3317
4.89041 18.5707 63.9441
4.21408 17.4474 70.5697
4.46762 17.4651 72.8636
4.7601 18.8595 71.0297
4.58018 19.291 78.9731
5.11161 17.6276 68.9958
4.60462 18.042 66.0497
4.31944 16.8757 71.719
4.92586 17.374 71.547
4.93829 18.388 66.14
4.39354 16.5396 68.6785
4.58123 15.9078 67.8378
4.69204 17.144 64.8165
4.36937 17.4962 73.2516
4.86193 18.1151 68.5663
4.45061 16.3202 65.9599
4.61957 17.0249 69.8211
4.73335 16.1351 70.5328
4.8997 17.6566 65.0234
4.34174 17.8516 69.046
4.55305 18.2776 69.4189
4.55577 18.5844 78.7885
5.05338 17.5923 69.0681
4.71261 20.6839 78.2557
5.0686 18.3574 72.1549
4.68414 16.2772 64.8743
4.34132 16.7051 61.6612
4.10911 16.0634 71.1876
4.60583 17.662 72.5902
4.92047 17.4329 70.3766
4.67875 19.0143 73.8969
4.81781 18.611 68.6126
4.37388 16.2805 64.3869
4.48357 17.5937 78.223
4.99534 18.7264 74.4549
4.97674 17.6279 65.9022
4.29875 17.5972 67.7478
4.59512 17.5315 71.0111
4.61154 17.1239 66.2318
4.42148 18.3107 78.9764
5.31093 19.726 72.6089
4.74765 17.4572 66.3862
4.44536 19.0756 73.4487
4.75271 18.3324 77.7449
5.08478 18.1802 69.5724
4.75019 19.5308 76.6194
4.98408 17.3905 69.6475
4.75411 18.5336 69.7223
4.65662 17.1324 72.5473
4.74939 17.9119 68.1583
4.32903 18.3227 74.071
4.83803 18.652 73.9542
4.95405 20.967 82.3288
5.21844 18.8278 73.2999
4.62782 16.8779 62.6464
4.20354 16.0301 70.0796
4.76415 16.9464 69.9159
4.70232 18.6548 69.3901
4.5175 16.8659 76.9479
4.98044 19.3606 73.9079
4.74374 19.2253 74.3962
4.91574 17.2699 72.7034
4.79688 18.0624 72.5825
4.75593 19.164 76.6157
5.15971 19.4167 69.9025
4.60069 16.2634 70.0354
4.69653 17.5412 64.0719
4.19623 15.2611 67.608
4.31797 17.725 66.7939
4.45666 16.7833 71.3676
4.68522 17.9158 73.9708
5.00859 17.2457 64.5321
4.22278 17.7081 71.2404
4.67413 18.5013 67.1268
4.55846 17.71 73.7922
4.78947 16.1074 66.7085
4.427 17.183 63.5938
4.30549 17.3694 69.1141
4.57631 16.1181 70.5946
4.48099 17.5831 63.9385
4.24069 16.3134 66.2654
4.33048 15.5603 66.4446
4.39682 18.3472 70.5624
4.50871 18.0257 66.5573
4.38292 19.5431 78.882
5.05432 16.1185 67.1855
4.46875 17.4559 69.6437
4.5145 16.9375 68.6917
4.58202 16.8264 72.4245
4.89775 17.8085 74.6924
4.96934 20.5236 77.91
5.01291 19.046 77.7587
5.18103 0 0