# pn-170911/RbIIR-56-USN7-1280-1959.psd
# Power spectrum* (dif=0,1,2) (really just |FT|^2)
# NOTE: only the first half! (symmetric)
# weeks: 1280-1959
# 193 clock-days, 342 excluded
# PSD: 1441
1603.31 0.110089 0.0807302
50274.1 0.344997 0.270487
364741 8.47626 0.248776
12372.6 0.513278 0.262489
109733 8.42786 0.272363
4670.62 0.47741 0.250987
9052.37 1.39976 0.253656
2579.27 0.529535 0.247779
3510.44 1.11829 0.261714
1539.14 0.454322 0.241187
1572.22 0.671558 0.29086
1024.41 0.521689 0.258102
1179.72 0.697672 0.263299
841.273 0.582226 0.25427
826.355 0.695752 0.264081
649.724 0.635932 0.250811
750.265 0.822367 0.286592
583.048 0.661703 0.256156
600.495 0.779685 0.268232
503.282 0.723531 0.272207
478.648 0.804108 0.284498
399.662 0.829735 0.256614
479.347 0.951569 0.302948
360.37 0.855828 0.255933
407.167 0.944453 0.282715
363.571 0.896871 0.267901
354.4 0.960884 0.296635
365.743 1.10193 0.27619
320.4 1.05606 0.297462
292.821 1.1073 0.285783
308.66 1.14578 0.272906
286.524 1.30511 0.25419
219.072 1.00752 0.259936
231.399 1.1326 0.294301
238.391 1.1721 0.257709
292.925 1.60706 0.273194
228.681 1.27209 0.230682
259.729 1.60453 0.288624
253.009 1.55305 0.255648
255.848 1.6574 0.299495
231.097 1.59053 0.269277
203.348 1.53918 0.297737
195.742 1.57154 0.264058
211.082 1.77962 0.30169
224.178 1.88006 0.278037
202.37 1.74265 0.294184
196.052 1.84836 0.285752
222.897 2.19997 0.337213
191.751 2.00021 0.281262
188.773 2.07292 0.289085
182.799 2.06995 0.29665
197.802 2.1343 0.2829
170.396 1.95908 0.286476
190.178 2.46946 0.302542
168.742 2.14421 0.303733
189.319 2.49302 0.295367
156.016 2.24903 0.332638
183.761 2.65097 0.307614
168.251 2.51241 0.32504
171.027 2.62745 0.320907
153.202 2.59555 0.326478
157.489 2.74548 0.296798
129.998 2.41883 0.328743
154.998 2.90194 0.310591
178.84 3.37667 0.335508
162.35 2.97663 0.350012
147.412 3.06072 0.335884
152.967 3.03909 0.314352
140.427 2.88019 0.288249
143.255 2.99263 0.332867
141.451 3.27169 0.358378
123.576 2.87787 0.346368
162.977 3.89082 0.311279
137.536 3.16413 0.371627
115.439 2.90277 0.295001
138.816 3.36626 0.349603
132.483 3.55079 0.323585
128.328 3.53476 0.370657
150.751 4.14556 0.363203
130.945 3.73057 0.358681
135.149 3.92529 0.352432
132.588 4.11813 0.348472
153.152 4.63381 0.432457
138.442 4.53903 0.371039
142.563 4.47195 0.379151
122.146 4.18751 0.412176
144.667 4.91129 0.400939
140.485 4.88128 0.409831
143.31 5.13326 0.453576
126.893 4.50274 0.451039
134.249 4.87869 0.41126
141.696 5.24164 0.44834
135.171 5.55829 0.461126
123.66 4.7559 0.375356
119.421 4.81193 0.445838
116.341 4.66417 0.44897
131.498 5.643 0.484005
122.507 5.24751 0.425788
115.431 5.21209 0.492278
124.794 5.55227 0.477477
134.571 6.03964 0.543926
136.209 6.34958 0.535417
120.306 5.60207 0.500121
130.133 6.24952 0.583209
113.735 5.71638 0.534841
115.086 5.71327 0.53659
113.239 5.90076 0.597251
114.336 5.82837 0.566499
111.664 5.89778 0.58673
118.197 6.34744 0.521106
108.904 6.32767 0.584284
102.722 5.79614 0.552822
107.922 6.22041 0.629903
109.127 6.34098 0.611243
100.093 5.90838 0.618084
115.355 6.97565 0.62186
105.889 6.15561 0.614197
116.51 7.11369 0.732088
116.832 7.49924 0.70969
110.945 7.33771 0.792355
113.952 7.52125 0.751882
117.501 7.94063 0.782187
99.9069 6.94888 0.724103
101.831 6.9059 0.710157
121.469 8.54082 0.864699
110.194 7.81753 0.784932
114.051 8.11138 0.795838
118.066 8.65563 0.844308
107.812 8.05886 0.911729
117.699 8.96835 0.937431
107.512 8.43618 0.9116
111.826 8.55559 0.902416
98.0017 7.97674 0.909997
120.546 9.64812 1.04479
97.7177 8.0414 0.875236
108.806 9.05351 0.936979
127.255 10.7665 1.15026
91.2384 7.69111 0.890566
104.38 9.14034 0.978853
95.8572 8.81328 1.03522
111.348 9.73192 1.034
95.7877 8.75363 1.05498
104.006 9.47293 1.04995
98.9524 8.90844 1.03541
95.2668 9.0737 1.1069
88.5047 8.51719 1.05395
94.3075 9.30289 1.0941
109.765 10.857 1.34695
98.9229 9.91276 1.20687
106.77 10.443 1.24863
95.2213 9.97512 1.31527
115.015 11.8433 1.43027
106.441 10.9503 1.36565
100.43 10.9243 1.42881
99.2131 10.6002 1.36276
94.4568 10.1879 1.44329
101.352 10.8649 1.42929
91.5613 10.1908 1.35171
106.568 12.0381 1.5603
87.9294 10.3139 1.25369
111.106 12.8716 1.77322
102.452 12.3142 1.61598
97.7484 11.677 1.64379
90.6889 10.999 1.54966
97.793 12.1584 1.74874
88.8799 10.8578 1.52607
92.3815 11.7165 1.69137
105.141 13.5341 1.9352
99.1731 12.1951 1.73792
90.8997 12.0586 1.66774
88.1627 11.3336 1.78979
91.1259 11.8422 1.81911
93.3317 12.9412 1.94912
87.8207 11.8945 1.8554
86.4512 11.778 1.83201
98.6942 13.2535 2.04417
95.8201 13.8143 2.15356
88.8194 12.3694 1.92467
107.582 15.5071 2.43375
82.7356 12.266 1.92833
90.6639 13.7796 2.3451
96.5194 13.9898 2.32153
96.774 14.4692 2.54807
91.4947 14.1556 2.24723
87.4853 13.5572 2.20835
103.273 16.3044 2.72947
87.6357 13.6288 2.37343
81.1643 13.0063 2.17812
95.3479 15.0868 2.56869
90.7021 14.524 2.61867
89.0367 14.136 2.3274
88.1935 14.7916 2.63614
72.5043 12.05 2.31147
87.7674 14.6592 2.68783
77.1727 13.2088 2.61898
84.1934 15.3169 2.78074
86.3291 14.8033 2.92885
87.2917 15.7319 2.93335
80.8259 14.5172 2.70682
82.4831 14.6568 2.86585
87.7015 15.9376 2.98319
87.334 16.6197 3.22314
83.1201 15.6212 3.01521
79.6088 14.6277 2.86146
83.0272 15.8 3.09839
72.4293 13.9797 2.8104
79.4484 15.73 3.18076
92.0438 17.643 3.61293
77.1557 14.8143 2.95111
67.227 12.9594 2.69348
85.3459 16.9615 3.6253
76.8989 16.0439 3.48082
78.2506 15.7839 3.36748
85.4289 17.9277 3.81146
82.0153 17.4957 3.82882
80.8252 16.6456 3.701
80.8701 16.8113 3.74148
79.6052 17.423 4.01971
72.1915 15.3445 3.64476
78.1063 17.1906 4.01453
77.0332 17.5268 3.9638
72.2805 17.0147 4.08598
83.916 18.4133 4.47431
87.9087 19.4524 4.54866
78.7053 17.5242 4.24017
81.9464 18.2501 4.34993
86.9583 19.4727 4.55449
84.9221 19.6223 4.66793
94.012 22.0838 5.50918
89.3988 21.4999 5.29674
82.6657 19.4757 4.67175
81.2343 20.0302 5.16501
84.247 20.6041 5.12744
84.3804 21.3741 5.60255
82.3011 19.9224 5.10349
82.063 20.5457 5.40541
86.4584 21.9502 5.75077
77.812 19.852 5.21496
88.8619 22.1257 5.84895
75.4681 19.8889 5.40723
77.5441 20.4362 5.30383
87.6642 23.8881 6.7273
85.1163 22.7014 6.20933
92.6328 25.0311 7.06989
84.3329 23.0042 6.48363
93.7196 26.1255 7.34406
87.0801 23.9363 6.59786
87.105 23.4005 6.61989
90.9499 26.0244 7.33639
85.8462 24.6186 7.59536
97.4579 26.5927 7.55529
84.9694 23.6111 7.04692
85.2461 24.1902 7.08114
81.4168 23.5966 7.06712
84.5231 23.8107 7.00554
83.9453 24.2617 7.39589
93.9842 26.9755 8.05378
79.6931 23.8681 7.30479
83.3932 25.0396 7.79771
99.6194 30.0181 9.21301
82.4407 24.9547 7.86953
98.5924 29.5414 9.06303
90.4374 28.115 8.96886
87.3217 27.7661 8.74334
81.0436 24.9334 8.07534
88.6078 27.6161 8.69087
68.8419 22.1072 7.02898
66.2038 21.2843 7.02655
78.1696 25.4607 8.71547
72.6053 23.4034 7.71204
71.3041 23.7696 8.2321
88.3822 28.9254 9.63625
80.786 26.8457 9.39811
80.089 27.2772 9.65983
78.135 25.4034 8.65124
71.4335 24.488 8.88976
75.7169 26.242 9.18297
64.8453 22.7154 8.24833
73.7405 25.83 9.00405
67.7892 24.0455 8.64722
77.0154 28.3598 10.5345
65.307 23.9196 8.8227
63.9218 23.2545 8.67086
63.4367 23.2493 8.61593
68.4281 25.1091 9.45549
67.6421 24.7244 9.39693
69.9556 24.8988 9.43429
65.0648 23.1196 8.81466
63.351 24.4291 9.66257
81.894 30.0493 11.029
71.4111 27.4543 10.9196
76.0946 28.1138 10.4118
71.5357 27.5529 11.0535
73.9478 28.7167 11.3409
72.9949 28.7773 11.9517
73.2438 27.468 10.6686
71.5751 28.4289 11.5857
83.5589 32.2701 12.3476
73.1027 29.496 12.0373
58.9139 24.1379 10.2622
74.0129 30.0444 12.2241
73.1418 29.7633 12.3056
68.4334 26.7213 11.0466
69.8892 30.5911 13.4846
75.9546 30.778 13.1322
81.6851 33.4703 13.9769
75.025 31.1011 13.4076
76.8407 33.1166 14.4493
72.9237 30.1833 12.9054
81.1857 34.4435 14.9858
65.8474 28.2899 12.4771
73.287 31.7489 13.7686
60.2863 26.6627 12.1055
74.0185 33.0711 14.8592
78.2007 33.3072 14.5147
83.2989 37.8251 17.2943
68.9272 29.7521 13.3902
83.8585 37.967 17.5485
85.671 37.1154 16.7879
77.8371 34.7535 16.1217
71.1317 32.6858 15.8023
81.9728 35.0999 15.3967
70.4461 32.6501 15.6851
72.6652 34.686 16.8241
85.3053 41.0624 19.6441
63.5274 30.7313 15.3679
84.947 39.8302 19.1731
69.8378 32.4881 16.0977
75.6163 36.1658 17.3715
68.1218 32.994 15.7576
67.9941 33.2405 16.5741
72.7201 35.1866 17.4977
81.3562 40.142 20.1417
76.1489 36.6142 18.4544
74.3538 36.0411 17.6316
67.7805 34.8133 18.4758
69.3235 33.648 17.0429
63.7579 31.4599 16.1242
80.3962 38.9566 19.3326
62.6312 32.8902 17.4207
67.2356 35.9596 19.0443
66.697 34.4904 18.5487
66.3611 34.8159 18.5797
74.1009 38.8306 20.4007
60.63 32.1274 17.7985
70.6593 34.1437 16.9305
59.1275 32.0693 17.6716
56.8554 30.1726 16.2934
56.4278 30.3101 16.9392
55.1326 29.4061 16.2002
62.0433 32.8815 18.1268
52.7196 27.0261 14.7814
56.9206 31.5869 17.529
55.6929 30.8746 17.4411
57.5741 31.0426 17.4663
59.4692 32.558 18.2621
56.0281 31.0322 17.9335
50.163 26.4716 14.6155
44.1565 25.6121 15.0399
53.7641 31.5135 18.653
51.2062 27.4047 15.489
53.634 31.2598 17.9354
43.9457 25.881 15.626
54.3556 32.6261 19.7001
52.9895 30.0659 17.3013
45.6249 28.1297 17.2805
51.6931 29.2481 16.894
50.3628 30.1055 18.3003
45.3185 25.8872 15.5926
57.9566 34.8288 21.2454
56.0515 33.2731 20.4393
63.2741 38.4692 23.6159
56.0592 33.7021 20.674
64.1138 38.3007 22.1889
53.7562 36.3853 24.4553
51.7075 30.7143 19.8115
61.8346 38.2914 24.0557
58.6184 35.4247 21.9634
56.2024 36.0855 23.5591
53.2057 34.1367 21.2387
52.5979 33.4885 22.8902
58.6686 36.0142 22.9784
70.172 43.8613 27.9535
50.5308 32.8686 22.0731
53.5207 35.075 23.1794
55.3189 36.4669 24.8788
53.5749 34.3255 22.661
61.0846 40.3162 26.7859
52.1229 34.5953 23.0085
54.544 36.1142 24.52
49.9933 33.2371 22.8967
60.3833 39.3711 26.3325
46.6052 32.4972 22.9835
62.819 41.9373 29.1149
64.1982 43.3346 29.5434
58.8624 39.73 27.9097
64.1599 43.5113 30.3821
57.9355 40.2954 28.6816
52.4676 35.7933 24.8125
51.2088 35.3162 25.0729
49.9284 34.7779 24.4279
53.7691 36.9694 26.0881
46.4717 33.8483 25.1991
48.6724 32.3594 22.7199
43.5614 30.9806 22.0854
37.7578 27.5341 20.627
46.1155 33.3839 25.353
42.9283 29.8354 21.9736
43.6121 30.6872 22.1095
45.402 32.7072 24.2242
45.7067 31.2737 22.8059
44.0908 32.3943 23.661
39.1688 30.1123 23.9
43.3278 30.9528 22.9847
47.1857 34.4089 25.1996
44.8171 34.303 25.8405
44.991 33.2632 25.8991
35.7187 27.0884 21.3775
43.7085 32.0063 24.2781
43.4214 32.8101 25.7334
39.8438 30.8296 23.7033
36.52 28.5829 23.2652
44.3578 33.0159 26.3204
41.474 31.0462 24.6939
42.7964 30.6782 23.6037
43.8387 35.0056 28.8162
36.4088 28.0371 23.0862
40.6478 31.1293 23.4774
40.3099 32.2898 26.3109
44.7198 36.4633 29.9117
43.3729 33.4913 26.313
40.4305 33.0184 27.2713
42.2262 33.8708 27.5941
37.2165 29.587 24.7556
38.704 32.5515 28.1112
37.7614 29.8531 24.3114
34.7236 28.7254 24.4941
38.512 29.9986 24.7888
38.7957 31.8781 27.9042
41.263 32.4485 27.0455
33.9188 28.6184 24.0963
40.3031 35.1197 30.0872
35.5585 29.7166 25.4842
34.8275 29.3077 25.5746
36.8449 31.1775 27.0548
41.8083 33.6309 28.1905
37.3686 32.3787 27.7294
37.6556 32.4411 28.9198
35.8134 30.9629 28.7426
40.7639 34.3598 30.8962
39.4803 33.475 29.3188
38.336 31.4124 27.8797
43.6619 37.651 32.446
35.7507 29.5694 27.0352
38.7428 35.2768 32.9131
40.8951 35.5887 32.0097
38.631 33.9111 31.2034
36.4325 33.6612 31.2192
37.957 33.9449 30.6178
37.0651 32.8283 29.7467
38.7065 34.0417 30.9213
35.5811 31.5477 29.4477
37.3326 34.4781 32.553
31.2328 27.4364 26.5684
40.0397 35.2826 31.464
33.2041 31.2443 29.2739
35.3571 34.0801 32.6558
35.9986 31.7497 29.5026
35.7765 32.4854 29.7973
31.9111 29.079 27.9186
36.1556 33.8754 32.5322
34.1192 33.9213 32.3686
31.0134 29.4294 29.0618
28.8442 26.3708 26.35
34.0859 32.5283 31.4962
32.2216 32.0501 31.634
34.2307 32.0492 30.9202
32.3209 30.4211 29.8969
35.6909 33.3478 32.8334
32.816 31.5245 31.9475
32.8509 31.808 32.0624
40.0552 37.5998 36.9006
33.1725 31.8635 32.098
35.4389 33.4129 33.4741
36.0161 34.3465 33.5597
33.0317 34.4856 35.1099
34.4348 34.1931 34.8297
34.0243 32.9087 32.4212
31.1096 29.7652 31.4863
34.3166 32.6748 33.7194
35.2045 35.5887 35.8452
30.1287 30.3947 32.6999
33.5165 31.9216 31.3692
29.9912 31.1674 33.6872
33.4519 33.8449 35.2334
32.9534 33.8637 36.8711
31.8462 31.5273 34.7095
30.5485 29.1924 30.2792
30.9099 32.1634 33.5806
33.2939 33.2662 36.4348
32.4221 31.7059 33.0356
31.2181 31.6475 33.5057
30.1393 32.4798 35.2557
31.9188 34.9514 39.598
36.5784 38.693 42.2617
33.4511 33.4962 36.4303
34.0939 35.3568 38.6298
34.184 34.8174 37.7701
34.7012 37.3914 38.5372
32.357 35.7821 40.5831
27.7671 28.2676 30.6909
28.5099 29.742 32.7858
29.1145 32.8552 37.3815
31.1893 32.9352 35.3643
28.2914 32.0427 35.5992
28.7087 30.8001 34.6916
28.4095 31.3738 35.2644
30.0853 32.8833 37.1121
28.226 34.2137 40.5786
27.9959 33.232 40.1014
29.364 30.962 35.9223
28.915 30.7789 36.2303
31.3311 34.9863 38.8433
27.7319 33.4012 40.9067
29.3677 30.744 33.7758
24.4413 30.1081 37.6865
28.8309 31.1599 35.9427
27.5661 29.3773 33.7595
29.8071 33.8073 39.5228
29.484 33.3949 40.0578
25.9714 27.582 32.3109
29.7723 33.0814 37.446
28.2079 32.204 37.9562
28.1725 32.8822 39.2577
27.2891 32.6286 41.9714
27.0893 30.6983 38.7982
29.2292 30.5977 35.2294
24.8991 29.379 34.063
26.6389 33.5276 42.2974
24.3554 28.4719 37.1467
30.442 34.0467 39.7409
27.9682 31.8245 38.1508
24.8825 31.2291 39.2274
25.3412 29.0188 35.657
27.5445 34.2189 44.4432
27.9902 32.4472 40.5919
27.125 32.9669 41.1791
27.248 32.9164 40.2136
22.7446 28.0088 38.4755
26.6636 31.6309 39.1185
26.74 32.1614 41.0831
25.246 30.959 38.2258
25.0486 31.3384 39.245
25.0701 31.2588 40.4303
25.1203 32.6536 44.2116
25.0407 28.3578 36.8048
23.354 29.1319 38.3064
25.5824 30.5845 38.8355
24.0141 32.07 43.9958
24.8641 28.9728 36.4881
25.3172 34.558 45.2812
24.0113 29.304 37.611
22.06 30.2986 40.9961
22.5728 29.4367 40.7679
29.0161 37.2012 45.6132
24.455 32.1949 44.0271
25.0721 32.8558 43.4374
21.9957 27.2271 36.5137
23.4048 32.7881 45.8185
23.4641 29.805 39.758
21.5508 25.4272 34.4419
25.4799 34.8745 47.8255
25.0237 31.6972 41.6892
24.093 31.557 42.927
25.1695 35.299 51.7732
26.5187 32.8619 44.6855
23.608 32.0631 44.9524
25.9623 33.1748 44.5503
23.6721 31.6254 45.1253
23.7053 29.9876 42.5279
26.345 34.7852 45.8921
24.5978 33.853 47.561
23.6924 31.3924 43.7857
23.3951 31.9483 46.7368
24.8166 32.7713 45.9461
23.01 29.3954 40.2467
21.1752 30.0953 43.9063
26.7464 37.6337 52.0531
22.8229 30.3539 44.45
24.0845 32.1995 45.6985
25.2393 36.0478 51.669
20.7602 27.3266 40.5128
22.2917 31.0108 44.9892
23.5122 30.7366 42.6362
21.7759 31.1648 44.8359
20.5133 29.0695 43.4678
21.9741 32.5177 48.9447
22.0348 31.8932 44.6558
21.4015 30.9527 47.7722
21.0847 29.1087 42.2106
19.1073 26.1716 38.0035
21.645 32.0241 47.0838
20.6582 31.1791 46.1458
19.3252 27.4092 41.0666
18.414 25.7707 38.6182
21.8074 32.4108 48.4563
21.6209 30.1445 46.1945
20.5914 28.811 43.0021
20.7289 29.5544 45.9262
21.0263 28.2683 42.4337
21.9398 31.1839 47.6064
21.4252 30.5816 46.6132
21.254 30.06 44.7122
20.6032 30.1145 44.9346
21.498 32.2967 49.8963
20.3054 29.0726 45.5092
20.1057 28.6538 43.5964
18.9497 28.4773 46.4337
20.2138 30.5839 50.108
22.3786 29.3807 42.0987
19.6828 28.6762 44.8095
19.8816 32.1159 53.2104
23.0213 32.8307 47.4602
20.8479 32.8642 52.419
21.1164 31.8996 49.311
21.3241 34.4167 53.6759
19.0314 28.1899 46.6908
19.4167 29.2109 48.7875
20.3326 30.4443 47.5712
21.2205 32.5117 52.4069
22.1501 32.8157 51.2407
19.8322 29.0548 45.7323
19.6336 32.8586 54.3182
20.6293 30.1089 47.0196
18.5843 28.8051 46.025
21.6129 35.9387 58.9826
20.7509 32.1222 52.5867
19.1702 29.8131 51.9563
21.4565 31.6088 50.252
20.2768 28.556 44.2107
17.0544 29.3849 47.8809
16.4713 27.8028 48.5122
20.0072 32.984 55.8991
18.8251 29.8314 50.4632
20.3449 31.8908 50.9004
18.4127 28.9042 48.8152
17.2258 27.4782 48.3904
18.4531 28.398 47.4661
18.5681 30.1031 46.8369
17.156 29.3059 51.292
17.3346 29.2289 50.2244
18.1762 28.9074 50.0101
17.9562 26.7046 45.2129
18.0842 28.6676 47.4042
17.9282 29.0858 48.2237
18.4587 31.3618 57.1929
20.0352 31.3455 54.2566
17.9828 30.9197 54.1101
17.3356 28.0012 53.0192
21.0113 32.9039 51.5616
17.2037 28.9187 52.1855
17.1603 29.3449 50.8764
18.5008 30.8202 51.6511
17.2185 29.3988 52.4629
16.5301 26.6099 45.4305
16.8735 29.3825 52.5717
17.0921 28.1347 51.7843
18.3031 29.4038 50.7451
17.5408 27.9575 48.78
16.4076 29.1122 53.2062
18.28 30.5894 58.4965
19.8264 31.2918 53.8784
17.5272 28.6574 51.1982
18.7838 31.9982 55.3606
16.4868 27.79 48.2875
17.4699 31.5048 56.3511
16.6644 28.4007 53.2254
18.8412 33.0614 59.0669
16.7375 27.8213 46.589
15.0219 25.8406 47.4997
14.9134 28.9275 56.0882
17.8628 28.2192 50.5483
16.2303 27.6336 50.7469
18.1397 30.4408 54.1901
17.7929 31.9779 58.2429
16.0762 27.2175 51.3164
15.7706 27.2512 50.2237
16.1408 30.1819 54.9416
13.8913 23.2937 44.5511
14.2329 24.5715 49.5117
15.7973 27.9394 51.2629
17.1834 29.3376 53.1382
15.415 26.5706 51.4905
15.6964 26.0576 45.9931
14.4549 25.9327 51.7315
17.2389 30.9643 59.377
16.9578 29.0812 55.9427
18.1568 31.6037 54.8247
15.7891 28.1194 53.3168
14.7995 27.0012 51.9061
16.1005 28.6409 54.8527
16.5921 29.389 55.9517
15.0244 26.8209 54.5097
16.4861 28.8737 54.7045
16.1045 28.6438 52.9796
15.694 30.1393 60.4714
16.7351 28.1057 54.7665
15.969 29.272 56.5435
14.9498 26.1392 51.1638
16.3605 31.0639 59.7037
15.9262 26.4404 51.2639
16.497 32.4267 61.4622
16.0303 29.4555 57.2535
15.4374 28.981 56.5073
15.7268 28.4017 55.1425
14.5683 26.606 51.4661
13.8047 27.036 56.2838
15.6519 28.5682 53.3539
14.3152 27.6032 52.2533
14.0753 28.7191 60.4675
14.9756 27.2309 54.0741
13.4443 25.4458 50.8208
14.2966 27.614 55.4629
14.7201 28.0141 55.5509
14.0744 27.6625 56.5514
15.1221 26.873 51.7803
12.7835 24.7821 48.9477
13.3861 26.0292 54.0068
13.556 26.7334 57.5309
15.5521 29.8456 56.0407
12.3394 25.3827 57.6097
15.2041 26.4088 53.9683
14.1839 27.6184 58.5513
14.6844 26.3911 52.325
14.1117 27.7258 61.4072
16.9911 30.7871 58.3961
14.363 28.174 57.4526
15.0054 28.4691 59.4089
13.4134 25.6675 52.6271
12.922 24.7865 52.8331
13.5246 26.6072 56.7168
14.7219 30.2186 63.3202
14.7287 27.8637 57.9198
14.3512 28.9113 55.2305
11.896 24.3494 53.5576
13.2368 26.7722 57.7117
14.3054 28.568 62.8791
14.3564 28.7692 63.2739
14.9967 28.1756 59.9998
14.9794 28.4203 53.5671
11.4587 24.1652 54.4479
15.3199 32.885 69.6316
13.6473 26.588 58.4071
13.5456 26.3161 55.4329
13.8685 28.7128 62.0823
14.1731 29.3056 60.5774
12.874 25.8516 56.6248
12.3246 25.8271 60.1912
14.5531 29.1844 61.7542
13.4407 25.2132 50.5798
12.623 26.9779 60.8981
13.5812 29.562 64.5749
12.7939 23.9481 51.9987
12.8105 26.117 50.7972
11.6532 26.7853 61.8821
13.6567 25.1531 52.6166
11.4684 26.079 63.8061
14.9933 28.481 59.4614
12.2009 26.2264 59.9852
14.4156 28.3846 58.8586
12.3341 25.3219 56.0183
12.3704 27.5256 61.2363
11.9202 24.2167 56.4499
12.9356 26.9438 63.1981
13.781 26.4223 54.1801
11.6489 25.4757 57.6682
12.5565 25.3093 55.7295
12.8348 27.1797 58.0721
13.0762 28.2014 61.5863
14.2761 30.2631 64.7991
11.6267 25.316 60.0988
11.3845 24.417 58.4675
11.6239 24.9629 58.6452
11.1505 22.9818 53.2817
12.5288 29.0836 64.5538
12.6895 27.1686 60.4284
11.7048 25.5948 59.3152
11.4034 23.2647 56.0193
12.7479 26.4135 57.9273
11.005 23.8981 56.368
11.9515 23.638 53.3348
10.8705 25.5508 62.489
12.9718 25.256 55.5728
11.5242 23.559 56.2987
12.691 26.5594 57.4568
11.8793 26.1691 60.7799
11.8968 27.1498 61.8866
11.2076 24.5396 56.6268
10.8775 24.1351 62.2651
12.341 25.4309 59.8927
11.4123 24.6182 53.2168
11.4109 26.0134 60.5336
9.94333 23.8881 61.8909
12.7469 26.3572 59.667
10.9843 25.7935 64.4547
12.9423 26.4185 58.6289
11.7931 26.9822 61.2007
10.8564 24.0834 56.5068
10.7082 24.2865 57.8216
10.5602 22.5377 58.1559
11.374 25.3275 59.7888
12.4265 27.7029 64.0658
12.23 26.7412 66.4949
12.454 28.4932 69.2158
12.0922 21.3702 45.4331
10.0299 23.7962 61.317
12.0751 25.7336 59.708
12.0222 29.0851 69.4937
12.0728 27.432 67.6849
12.3032 25.3347 61.38
11.422 24.5388 61.6472
11.4049 22.7517 51.7946
8.79575 20.664 54.9678
11.4801 24.2534 53.6036
9.41001 22.1537 60.9208
13.1069 27.978 62.6338
10.3805 23.9998 58.0509
10.8354 25.2627 61.2047
10.4691 24.2486 58.9388
10.5436 23.7994 59.7651
10.5315 24.0194 62.8674
11.8514 25.0929 60.0231
11.1327 25.6238 63.1213
10.6586 24.8807 60.3185
10.0296 21.8642 58.7822
10.8413 22.929 55.1799
10.1077 26.043 70.4492
11.4274 22.8218 55.4001
9.50523 20.7432 48.0591
8.11302 22.5764 65.3681
11.7787 24.7848 64.2719
12.6449 25.5739 58.1592
10.6341 26.1348 64.8427
11.0096 25.7992 64.4919
10.0817 22.524 53.9994
9.61969 22.3563 57.6761
9.59659 23.3028 60.8243
11.0468 27.0566 64.9496
9.78954 22.8657 61.9549
9.64134 22.3836 52.2527
8.38368 20.5702 55.8715
10.0748 26.1457 72.581
11.3654 22.7414 54.0672
9.00319 23.0128 60.672
10.6271 25.7849 66.0169
9.59607 21.9591 53.2501
9.17647 25.3801 65.7173
9.97173 25.3611 64.8783
10.3576 27.6564 73.5448
9.84747 21.9791 59.9493
9.94443 23.3243 59.2969
9.09536 21.5858 56.1506
9.52857 24.412 67.4353
10.8846 23.6664 57.5093
9.2991 23.1044 53.2537
8.19284 22.8671 63.6897
9.19864 23.0723 62.2625
10.1351 23.8514 64.8943
10.4036 24.0459 62.5666
10.4996 26.5249 64.6021
9.18694 21.8378 57.269
9.09324 22.6481 60.0882
9.57811 24.6854 66.53
9.12851 20.9247 55.5722
9.2059 21.5667 55.038
8.73808 21.5793 54.9567
8.14641 22.474 61.8521
9.51549 22.4945 61.0991
9.36838 23.0847 65.6132
9.24726 21.8749 59.8343
10.31 23.2581 63.5363
10.1621 25.7099 67.4402
9.75649 22.8096 64.1248
10.0628 22.6351 60.1623
9.9241 21.7138 53.2395
9.39928 23.7435 61.2369
8.92021 23.7716 62.8666
9.20061 21.2127 57.6214
9.21152 24.0428 65.1866
9.05762 20.7025 52.629
8.87859 25.3044 65.8189
8.2668 20.5801 61.8372
8.34495 20.4841 56.759
8.13122 20.739 61.9184
9.55487 21.0208 53.1884
8.76988 23.9549 68.7659
10.3215 26.3606 69.4276
9.06457 22.9359 66.8078
9.71168 21.9295 56.0772
8.3306 22.8078 57.9596
7.67822 21.5853 63.7897
8.82847 25.0531 75.4427
10.2318 23.954 67.75
9.36957 22.3511 59.8778
8.95721 20.9163 58.7471
9.37675 22.7065 57.2768
8.57587 25.1665 71.9204
9.24535 23.9394 70.255
9.23275 20.8735 58.1204
8.99752 23.0455 64.2293
8.23331 22.2213 64.5699
8.53879 19.8006 53.0082
8.2018 22.7217 64.9026
8.09845 19.0355 51.066
6.88856 21.1526 66.2486
9.58836 22.1499 57.566
7.54339 18.403 48.4588
7.14032 18.9708 53.03
7.46509 18.8248 53.7941
8.344 22.6086 58.5903
7.31284 19.6127 62.976
8.67043 20.4089 57.2309
7.57849 19.5874 56.0238
8.54949 21.8018 59.0625
7.78585 21.3122 58.2595
8.31627 22.4044 67.5014
8.28714 20.3739 62.7783
8.6491 20.5109 58.9512
8.59458 23.4241 58.2382
7.73287 22.0052 62.1324
7.58832 21.073 66.1049
8.9733 20.8027 62.4338
7.98913 23.0827 67.5638
8.91909 20.2347 60.2188
7.94331 20.4395 59.0566
8.60968 22.3247 61.6657
7.29409 19.1534 55.2259
7.6295 20.1386 57.1872
7.71941 20.8508 61.0363
7.90314 19.5435 58.9917
8.42669 21.5815 60.4552
7.60646 19.9661 55.6823
7.21096 19.6229 57.5312
7.32112 20.7178 61.7521
7.5858 20.3679 59.85
7.62518 20.3226 66.8295
8.63055 19.8937 54.9013
7.69376 21.3607 60.6192
7.45641 18.9783 56.3654
7.64146 20.2871 57.1551
7.46844 20.8026 63.2642
8.07473 21.134 57.1632
7.02124 18.3961 56.1424
7.20342 20.073 65.8051
8.88598 24.4255 70.9901
8.36384 18.7 56.2888
7.83953 23.1615 64.7493
7.65419 20.0485 61.7885
7.62204 21.7245 64.9118
7.71223 19.9927 57.1963
7.56516 21.5758 65.5528
7.90469 21.3956 67.6349
7.78104 19.0106 56.152
7.67445 20.9755 62.1923
7.5945 23.1567 63.7308
6.85405 17.8131 60.4608
7.40496 19.7852 57.1636
7.57898 19.7261 58.0441
7.17201 19.912 67.506
8.36876 21.7281 59.8325
8.00416 22.4895 67.3548
7.97952 20.4835 56.9774
6.82676 20.5901 64.8709
7.85222 19.7542 59.8797
7.22683 19.5714 57.3931
7.17704 19.1061 62.0112
7.24476 20.3983 65.4072
7.58373 18.7703 58.1112
7.2467 20.7331 60.1003
6.82758 20.4246 68.8887
7.52723 18.5886 57.4343
7.52609 19.7181 60.8944
7.17214 19.8412 59.0564
6.92186 19.9247 59.5428
6.89996 19.239 59.7286
7.18773 20.0031 65.4754
7.19863 18.0875 53.959
6.96775 18.5708 60.1314
7.15851 19.4009 55.4509
6.82622 20.1282 58.8502
6.81243 20.5132 63.7629
7.2226 19.1652 60.5878
6.66138 16.9476 56.9166
7.169 19.567 56.0637
6.48551 18.8654 62.638
7.25346 17.4537 55.8819
7.12507 19.7807 58.9521
7.19108 20.1359 61.329
7.05098 18.7274 54.034
6.37572 19.8185 62.4956
6.91745 19.7014 55.829
6.20942 19.0796 64.708
7.55551 19.5972 56.2546
6.68873 19.1 62.8626
7.06423 18.9894 59.426
6.6208 17.8946 56.649
6.81547 18.6992 58.5427
6.56371 19.8146 67.3947
7.3073 19.6056 62.5251
6.96438 19.1188 65.9461
7.83231 21.4312 61.6302
6.35817 19.4742 60.7764
6.68214 19.9864 60.452
6.447 19.6879 60.224
6.29073 19.7879 67.2177
6.7428 18.3389 61.2403
6.92021 20.6506 67.2669
6.85662 18.5253 60.5393
6.64507 17.7805 56.4912
6.37245 18.316 55.9689
5.96661 17.2082 59.756
6.94582 20.2001 56.4556
5.67671 18.8974 67.6805
7.39375 17.3874 60.5189
6.73495 18.7093 58.378
6.4963 20.0854 66.5869
7.20253 18.4649 57.9082
6.21605 18.3319 57.123
6.47415 20.5623 69.01
7.44792 19.5444 57.8659
6.08149 18.3838 62.5834
6.25725 17.6658 59.9896
6.90212 18.0813 57.9687
6.53251 19.549 58.5643
6.05377 16.7131 50.7981
5.62074 17.62 58.6042
6.743 21.4824 64.2528
6.37473 18.0751 61.2502
6.75893 21.1472 71.2014
7.05425 20.0321 68.9381
6.99446 16.9049 56.5065
6.71092 20.3516 62.9914
6.52834 20.6707 67.6843
6.59533 19.1387 63.7567
6.34182 19.0417 63.6947
6.92671 19.3531 64.6335
6.65132 17.0631 53.6539
5.96429 16.0121 58.6449
6.76044 18.5901 53.5522
5.53662 17.2201 57.4575
6.40661 17.8357 55.5682
6.26371 18.2604 56.385
6.07065 18.6817 63.0964
6.15924 17.9365 61.4046
6.75461 17.611 60.4006
6.2146 18.2239 57.1007
5.63268 15.6451 57.6404
6.39277 20.28 65.2858
6.01055 18.1693 66.7818
6.55159 17.0725 57.58
6.2013 18.7295 57.1248
5.76663 17.9008 60.5517
5.77015 16.0058 53.5139
5.86755 19.2978 63.3094
6.24658 17.6514 63.6028
6.91141 19.1253 62.1278
6.5244 17.3802 63.7571
6.56052 17.2453 52.4813
5.8061 17.042 56.1518
5.6461 18.7189 62.322
5.64056 17.4969 53.4934
5.27515 15.0026 53.9019
5.46245 16.8946 55.0073
5.41701 15.0718 55.5292
6.06238 19.1439 65.2045
5.99612 17.279 58.8463
6.43216 18.0679 53.0821
5.42779 17.6542 65.7406
6.88462 19.3707 57.8127
5.38036 16.3695 55.4999
5.73779 16.6848 59.4081
5.84956 16.9512 56.1159
5.78745 16.0859 54.6468
5.22048 17.1732 57.0024
5.57057 17.3734 56.6059
4.88918 14.0993 52.5151
5.78121 18.2064 62.0824
5.65722 15.3887 53.7322
5.72094 19.1557 63.611
6.0228 18.2091 61.9292
5.91007 20.4205 65.255
5.36215 14.9976 54.9476
5.51083 16.5297 59.7357
5.51347 16.4199 56.4447
5.70293 15.9897 57.2611
5.64601 17.0706 59.6152
6.20622 17.9662 60.3695
5.98314 18.2622 60.2098
5.55336 17.2099 62.2264
5.72392 17.3057 57.1338
5.37801 16.243 52.1851
4.89669 16.2812 61.3396
5.75122 18.7058 66.2189
5.59787 17.0425 59.0506
5.36606 16.3617 56.6553
5.14748 15.629 54.9542
5.19274 17.2674 57.8639
5.462 17.021 59.8868
5.48281 16.2254 54.1381
5.20734 15.9444 56.4005
5.06562 14.8645 54.9973
5.19916 16.798 63.8649
5.75525 16.5077 47.9111
4.7063 16.0027 63.0906
5.75036 16.8103 54.7842
4.70044 15.9684 58.2036
5.32797 16.1594 62.613
5.89998 17.7413 60.4599
5.36303 17.537 57.6861
5.53006 17.1038 57.0227
5.2617 17.0661 56.443
5.10587 14.697 53.8128
5.47823 17.5333 66.4212
6.11672 17.0291 56.6764
5.20225 16.0975 63.0691
6.64085 19.8603 65.9992
5.76348 16.3844 56.1114
5.37068 16.6521 56.6136
5.19262 16.1534 54.5355
5.26248 15.0968 61.7365
6.10253 17.9546 62.6418
5.94598 17.2843 56.6876
4.91553 15.4476 54.909
5.05775 17.1059 61.9092
5.20073 15.7188 60.8226
6.02181 18.1491 59.2376
5.62109 16.3983 55.772
5.33305 17.6361 65.4458
6.15165 16.7521 59.5856
5.58654 18.6972 59.4793
4.73633 14.8799 58.4328
5.20112 16.2578 63.8799
5.91217 16.1935 56.5216
5.3488 16.8354 54.0602
5.14986 16.6476 55.7713
4.67243 15.567 57.0739
5.39706 16.807 52.8045
4.50144 15.8138 63.1741
5.7521 18.4605 63.3403
5.35561 15.2157 56.2669
5.1207 17.8622 70.3836
5.8062 18.1467 61.1097
5.17712 15.2203 56.3648
5.05339 17.5334 63.27
5.42427 16.1273 57.4208
5.25737 16.2739 64.2426
5.36437 16.0256 55.0713
4.80185 16.2702 59.6672
5.20228 16.4773 56.4708
4.77218 15.2257 54.0468
4.60927 16.9121 66.4841
5.19932 15.8651 53.4883
4.56125 15.0416 58.845
5.35257 16.56 64.3493
5.66797 14.9211 51.9637
4.9102 16.1188 58.7027
5.16493 16.1287 55.6301
5.13096 16.8529 60.1378
5.23021 17.2288 60.7491
4.98782 13.9731 53.9161
4.81648 14.8693 53.6792
4.78818 14.966 56.7299
5.21282 15.2973 58.3233
5.30806 16.0502 60.2435
5.7038 16.451 49.162
4.04235 14.4768 57.7471
4.99423 14.7546 51.5201
4.53417 15.7053 64.2412
5.81311 16.4781 59.5847
5.42636 16.6037 58.4369
5.12022 15.5233 52.8981
4.52027 15.8159 53.8723
4.31921 13.9932 53.5898
4.6225 16.1371 62.5223
5.4027 16.1442 55.3578
4.48418 14.0984 51.7469
4.4849 15.6229 57.4199
4.88876 16.3128 62.8614
5.3074 15.6626 56.9771
4.88768 16.1151 59.3627
4.99836 15.5648 52.0545
4.54279 15.5746 57.9341
4.95228 13.5283 55.6452
4.92055 14.9392 51.1413
4.58747 15.8262 58.4467
4.75462 15.5244 52.257
4.26339 13.9489 55.7481
4.69236 14.24 49.05
4.34611 13.1099 56.8907
5.03911 14.399 55.4668
4.7745 16.9841 61.8668
5.13417 16.9523 59.0143
4.83643 15.7251 52.9915
4.38821 14.8761 54.7722
4.44145 14.4119 55.971
4.73979 14.153 57.4612
4.60112 14.0645 49.7226
4.116 15.9567 65.6897
5.04754 12.8006 53.3275
4.98604 16.6356 55.452
4.50323 14.8638 53.0781
4.52831 14.2557 56.4791
4.82148 17.2917 57.9762
4.66134 13.4256 52.6691
4.29287 14.3399 56.1418
4.75276 15.2463 57.1917
4.94602 16.607 63.895
5.4655 15.1298 49.3325
4.1904 13.1062 54.0877
4.71881 14.0835 49.2418
4.25564 14.0697 58.3171
4.88726 15.5885 57.1745
4.45646 14.1633 58.1144
5.087 16.2666 59.2202
4.60309 13.4127 56.1235
4.70383 16.7069 58.8932
4.77234 14.6409 53.0478
4.38704 14.6092 58.7801
4.69812 14.3482 48.0678
4.13839 16.2088 60.7374
4.66834 15.8654 64.6372
4.88452 15.9646 57.9958
4.84952 15.3583 55.2022
4.41706 14.2066 56.3475
4.67174 14.5463 55.2978
4.40948 15.0734 54.8229
4.42089 14.5902 56.6945
4.62384 15.4052 53.0908
4.11557 14.8346 59.2499
4.75041 15.0151 58.7969
4.55358 14.0822 56.6119
4.84837 14.5665 55.5008
4.9079 15.1828 52.7144
4.2357 15.5238 56.7816
4.41564 14.3652 56.3467
4.52327 14.6028 54.1492
4.08357 14.0321 53.664
4.06883 13.997 51.2004
3.79489 14.3713 56.5779
4.60201 13.9374 50.9305
3.98611 13.6792 52.1288
4.42412 13.9668 52.8072
4.15044 15.6292 66.4828
4.97069 14.4775 58.0027
4.34614 15.1189 55.4068
4.4449 15.087 51.3756
4.06494 15.2326 58.4118
4.40073 14.2122 51.8595
3.8621 15.1631 59.9093
4.51061 15.3036 54.1991
4.1962 15.5739 58.492
4.7886 14.1397 55.5775
4.48875 14.5584 56.1336
4.41518 13.6453 54.633
4.27344 13.731 50.6799
3.93344 14.4138 56.8812
4.55507 13.58 48.6989
4.15105 14.4102 57.3012
4.81659 14.4244 53.9432
4.32293 14.7916 56.1003
4.68682 14.9101 58.648
4.91874 17.253 59.4272
4.69662 13.6571 55.4107
4.55471 14.5832 50.751
3.98403 13.934 54.9867
4.19145 14.3995 60.729
5.06037 14.7577 51.1842
4.19095 13.5698 53.1825
4.17469 11.8815 52.2924
4.08567 12.6661 54.4395
4.16763 15.3359 55.4792
4.33829 15.1065 59.3961
4.86989 17.1336 60.8449
4.67541 14.9036 59.0468
4.90014 15.2975 61.4866
4.60438 14.3361 48.1193
3.61314 13.4587 49.2814
3.83779 13.5579 57.2554
4.51712 14.5353 54.2499
4.17811 14.9211 50.6804
4.0991 13.1497 55.7497
4.35029 13.0937 53.0259
4.14748 15.1811 57.7174
4.58423 13.3585 46.3108
3.61463 13.2658 61.891
4.76067 14.6942 52.056
4.10065 15.4533 55.3255
4.27802 14.9859 59.1736
4.45551 15.6058 59.947
4.65386 14.5992 49.978
4.14585 13.6932 58.5656
4.35537 14.4775 61.3647
5.09215 16.0225 56.1057
4.06941 14.2415 57.6367
4.58339 14.603 53.7718
4.19512 13.5355 60.0338
4.6498 15.5832 61.6604
4.83732 14.2448 56.7273
4.19653 13.8582 46.1118
3.54137 11.1793 51.017
4.11107 14.2936 54.7293
4.40076 14.2804 58.4553
4.52457 16.0865 59.4353
4.8391 14.9978 61.7606
4.8359 13.8568 51.3649
4.32965 14.4165 55.354
4.05597 13.5789 55.9973
4.47541 15.2806 62.8433
4.78436 15.9976 54.777
4.39616 14.6068 55.1017
4.17608 12.5535 56.0193
4.44156 14.5003 58.6181
4.54686 16.2217 64.1396
4.78167 14.3016 51.2527
4.0885 13.4584 53.7908
3.90234 13.8432 51.8299
4.01311 14.0274 62.9027
4.6821 14.416 50.8135
4.20412 14.8326 50.4767
3.90107 12.4105 50.8084
3.88122 15.1189 61.6225
4.65652 15.6452 55.5374
4.27809 13.5732 59.3137
4.50155 13.3254 56.3879
4.36676 13.5695 54.6135
4.45273 14.5266 53.9771
4.1904 14.6443 55.652
4.3583 14.4896 53.817
3.93291 13.5787 56.1146
4.29119 13.3497 50.4155
3.80578 13.1595 58.9633
4.3958 13.5298 49.954
3.78309 13.4638 53.5504
4.28554 14.7721 54.0089
3.9975 12.9436 52.9732
4.25325 12.8835 51.4564
4.11662 14.1039 53.3411
4.35988 13.7237 54.4905
4.31053 14.5733 59.3322
4.35174 14.8438 49.8279
3.95325 11.9982 51.4317
3.91057 13.4178 48.4497
3.63616 13.4883 54.7737
4.57162 15.024 59.7086
4.35681 14.1809 57.1431
4.56098 14.3049 58.8058
4.19624 15.5166 52.9527
4.02548 14.1708 56.1211
4.14218 12.582 47.8833
4.06126 14.6156 60.8239
4.37179 13.9048 52.0786
4.18112 12.5037 54.0952
4.1743 13.6253 50.7669
4.22337 15.2096 59.4178
4.38909 13.0496 47.7786
3.85084 12.5865 57.7429
4.3911 14.9076 59.7768
4.72577 12.561 49.7188
4.02746 14.7477 56.232
4.43987 14.0979 52.3696
3.7843 13.0454 58.3796
4.32125 14.1662 51.2183
4.0092 15.8502 52.7454
4.28922 13.2247 54.1153
4.30288 12.1107 52.4707
4.33155 13.9944 53.0184
4.11828 13.5099 50.8496
4.06313 13.071 54.1202
4.41809 12.0141 51.2291
3.85023 13.9455 48.2147
3.75479 14.1869 59.3203
4.49084 12.3326 46.6571
3.70838 13.3209 51.1212
3.77612 14.2234 52.7628
4.03998 14.2228 53.0434
4.14555 13.2522 56.9383
4.33194 14.7897 58.4996
4.47854 14.1305 56.5445
4.16312 14.7002 56.4071
4.14895 15.5852 60.7807
4.91037 14.8972 58.6994
4.30771 13.648 54.6924
4.47878 13.6924 53.5671
4.26709 13.0035 56.1879
4.45092 13.4093 56.0637
4.34979 16.0069 58.138
4.68345 13.3336 52.327
4.03056 13.1193 54.3667
4.31123 12.8913 52.7359
3.82539 15.1969 52.4825
4.08845 13.034 56.5522
4.28145 13.4017 52.2132
4.22535 12.6336 58.3648
4.5452 14.6653 54.653
4.2119 14.2006 53.0605
3.85552 14.0439 50.7072
4.0043 13.0942 55.6105
4.19964 13.641 53.8475
4.00982 13.3749 53.1225
3.98198 13.4296 48.8623
3.44477 11.2854 49.6257
3.45999 15.9166 61.355
4.74511 13.7888 59.3619
3.94875 14.0578 61.1354
4.48586 15.8848 64.372
4.81664 13.3567 52.5872
3.83542 13.3186 48.9906
3.69817 14.3846 51.879
3.8811 13.1017 59.1993
4.49664 13.0082 54.7281
3.87463 15.9057 58.3762
4.15451 14.4561 57.8469
4.41429 13.1975 56.1762
4.24546 16.6669 60.6705
4.59186 13.6654 53.0467
4.08173 12.5937 51.8872
3.99583 14.157 46.6573
3.42315 12.7699 57.7979
4.22709 13.3342 53.1103
4.07764 13.5724 55.5187
4.02595 13.8815 61.553
4.77766 14.7936 57.4955
4.1556 14.635 57.7804
4.43308 15.1353 54.4303
3.81789 13.6964 58.3336
4.39054 14.8737 55.8872
4.00514 15.868 61.1357
4.42677 15.6561 66.8762
4.77192 15.7091 56.1959
4.0309 13.7304 55.4531
4.32244 0 0