# pn-170911/RbIIR-48-KOKB-1280-1959.psd
# Power spectrum* (dif=0,1,2) (really just |FT|^2)
# NOTE: only the first half! (symmetric)
# weeks: 1280-1959
# 3 clock-days, 0 excluded
# PSD: 1441
205.229 0.0809518 0.0834536
35302.4 0.642064 0.0999797
67288.5 1.15118 0.100563
24075.4 0.53827 0.1002
36848.6 2.2116 0.100998
1229.23 0.22759 0.100347
783.754 0.17384 0.0994299
3008.17 0.292551 0.103442
2765.41 1.00582 0.105022
2408.55 1.00361 0.108718
3876.84 1.22365 0.0996931
550.589 0.21311 0.105285
446.322 0.232605 0.107043
485.069 0.941709 0.103106
261.619 0.0923485 0.101667
817.855 0.37668 0.0980778
1143.45 1.37567 0.10448
710.168 0.865966 0.0890399
1155.77 1.9213 0.123534
903.196 1.0686 0.100695
454.907 0.640743 0.0972663
772.654 1.65422 0.10541
1427.56 2.47457 0.113649
226.612 0.282129 0.095938
817.14 1.73738 0.116166
435.911 1.41615 0.11567
1204.89 3.86514 0.0737617
500.613 1.48968 0.0655657
427.96 2.21083 0.0778766
650.735 2.1743 0.11349
622.717 2.0217 0.124214
38.1444 0.37029 0.118043
589.607 2.8004 0.0614618
387.883 1.45293 0.10688
321.296 1.85756 0.0880951
673.416 4.10663 0.136191
790.835 4.33225 0.0946268
1124.46 8.909 0.163895
596.366 2.95692 0.140803
160.012 1.95616 0.0876058
786.451 5.96101 0.14734
603.966 4.1741 0.0603993
370.05 4.06314 0.145805
878.809 6.59879 0.211743
443.39 4.57607 0.206089
659.95 7.9962 0.147438
218.621 2.34104 0.17134
273.098 3.92006 0.185668
1947.17 18.901 0.275243
721.15 7.63029 0.266399
1031.42 12.8783 0.370194
382.337 6.12793 0.268384
1230.85 13.8377 0.179172
425.141 5.22049 0.233412
574.012 8.07899 0.232605
1894.29 24.4514 0.402281
2129.7 32.7107 0.667347
398.306 5.3469 0.0969152
358.116 6.57313 0.310889
774.686 14.487 0.418368
951.193 15.9086 0.544379
551.836 10.6077 0.405857
539.841 9.04983 0.189446
737.555 12.6741 0.33855
264.803 4.99908 0.0760747
932.767 18.0764 0.596599
554.782 10.1896 0.30234
603.134 12.0648 0.533449
242.645 4.72318 0.146305
429.403 8.95935 0.402279
916.142 22.4935 0.666981
842.402 21.8399 0.465506
857.69 21.5387 0.43127
184.973 5.64526 0.168695
329.332 7.65429 0.230266
707.533 21.7268 0.624234
334.814 9.80181 0.323054
304.097 7.11533 0.298541
479.869 11.819 0.446284
396.104 14.7914 0.611113
1274.91 33.6848 1.1494
223.948 6.43381 0.213827
623.651 19.3424 0.584785
40.6321 2.20106 0.112932
937.409 28.2503 1.27439
63.0522 2.30944 0.133929
246.335 9.122 0.550909
800.653 29.0521 1.51374
717.707 27.8004 0.927672
165.58 6.46294 0.352127
80.6588 3.83258 0.320491
185.092 7.22126 0.255621
303.391 14.4124 0.896741
127.818 4.24739 0.119203
546.587 24.0044 1.24693
342.028 13.9545 0.940631
299.05 13.5984 1.05034
195.332 7.6131 0.421125
173.471 7.01197 0.188243
332.261 15.8777 0.709654
121.767 5.89661 0.426999
487.515 22.7272 0.806625
376.157 19.8671 1.37376
563.88 30.6717 1.48471
530.224 23.7912 1.20332
428.034 21.482 1.34066
555.696 29.8452 1.47684
140.404 6.08747 0.34036
158.091 8.67108 0.775777
158.462 7.779 0.549854
262.998 14.4713 0.960024
381.81 21.9237 1.45457
251.122 14.5046 0.794883
72.3294 5.36233 0.516851
95.075 7.77211 0.703927
274.51 16.6342 1.46434
128.899 7.03841 0.46632
188.255 13.5444 0.983434
102.07 6.10442 0.79688
476.763 30.7258 2.18251
406.787 28.0615 2.41263
75.0527 4.57563 0.451383
479.591 35.7386 2.81873
138.547 10.0369 0.887963
410.087 28.5095 2.56956
200.735 15.3931 1.42989
50.7778 5.33802 0.928822
143.107 9.64467 0.451827
229.527 17.9253 1.82051
97.1168 7.25902 0.916109
281.091 21.9845 1.78367
397.72 28.6799 2.53269
188.196 16.3635 1.61693
209.61 15.2498 1.5388
108.536 9.29425 1.12982
283.936 23.1347 1.78762
164.003 13.6904 1.09508
136.267 10.9977 1.29797
151.072 14.2185 1.6495
455.74 41.3854 3.46546
154.477 16.8938 1.85825
414.401 38.3119 3.6521
328.687 37.6873 4.07438
246.374 22.1665 2.19541
157.845 17.5945 2.4617
79.7587 9.2237 1.70082
137.132 15.9473 1.81688
63.3738 8.37267 1.01292
253.898 22.3378 2.50229
142.433 14.0973 2.21366
62.4971 5.8093 0.453138
256.674 29.8632 3.84236
26.4081 3.29292 0.882214
118.981 13.2251 1.40991
87.8167 9.20533 1.18061
29.297 3.93734 0.839469
74.1733 8.26706 1.32658
181.753 22.6856 2.53855
66.3367 7.96984 1.17316
240.41 32.8253 4.85283
115.871 11.6824 1.58137
61.6967 6.46107 1.07158
131.248 19.0223 2.73503
81.228 7.55885 0.756765
122.678 15.6015 1.5459
94.8665 10.7531 1.10296
105.676 10.987 1.55672
127.835 17.0886 2.7564
91.5231 9.66418 1.33528
513.608 71.3928 9.3892
84.8 12.1043 1.33888
69.759 8.28494 1.72293
124.383 17.1107 2.52217
115.493 12.8884 1.12732
111.797 15.6223 1.81978
155.936 23.3602 3.96532
142.628 19.0112 3.20046
86.3573 13.2489 2.51555
190.328 27.6595 4.24807
119.574 16.7427 2.13664
138.589 17.8476 2.0987
61.7718 12.0898 1.9529
130.03 17.2854 2.15036
88.6947 12.988 2.4195
36.2119 7.77219 1.37759
59.8785 8.07993 1.53792
83.6157 13.9089 2.72639
65.2789 12.1545 2.1812
81.5374 14.2854 2.80044
158.824 23.3882 4.3382
94.207 17.987 3.73789
43.9645 5.96682 0.768797
58.245 10.6407 2.47071
131.845 22.2818 4.95927
104.839 16.0159 2.94949
26.4563 5.04805 0.96336
243.185 44.3081 8.8451
81.5614 17.9092 3.94786
73.7373 12.7811 2.68745
340.575 58.5458 9.97679
42.6288 9.51943 2.73655
75.551 11.6293 1.82854
18.5782 3.19339 0.581601
100.475 19.0682 4.46664
24.114 4.36723 1.06091
130.403 27.6089 6.52525
33.4739 6.52887 1.85406
48.8832 9.42396 1.93113
114.146 24.1475 5.45927
55.6031 16.9073 5.16222
160.302 29.2291 5.83192
37.5779 6.07687 1.1016
79.5537 17.1198 3.23029
214.915 45.1704 9.71496
79.5254 16.8778 3.17417
41.0452 12.1019 3.94326
103.298 18.0637 3.80176
73.4018 15.0644 3.62061
88.2375 19.7477 4.76242
134.759 34.5614 7.3233
60.7175 9.58622 2.15367
86.8079 16.2438 3.31442
72.3753 17.383 3.78895
31.6329 5.27626 1.47056
140.325 35.7211 8.60209
86.4474 17.3958 4.23069
35.6115 9.55494 3.03423
71.8917 16.7688 3.50193
61.5905 14.3152 4.40468
75.0383 17.7522 4.95196
81.4658 22.0866 5.03969
97.858 27.2314 9.02303
132.703 35.6079 8.37356
72.4803 23.5568 6.68312
57.2366 12.7353 4.28943
124.242 26.3074 7.18031
70.1707 16.8661 5.15269
55.5338 14.7573 4.90874
70.5472 15.2461 2.99594
74.6771 21.5772 5.37668
31.9506 11.5541 3.79275
43.7763 10.8707 3.90328
116.684 25.4444 5.48945
95.0555 28.3555 8.47977
48.2337 10.4906 3.09496
32.2576 9.19872 3.0774
28.1467 10.1724 4.96826
135.15 37.3858 10.561
17.0929 2.2259 0.302562
33.3501 8.2834 2.05733
120.716 34.8498 9.17624
54.1179 12.0566 2.94245
123.898 36.3289 10.4479
38.578 11.9505 4.49753
147.189 43.9577 12.3338
72.0587 23.1933 6.571
36.968 10.9069 4.28654
69.3568 18.9488 5.20654
228.647 69.956 20.6856
48.4216 18.1101 5.99358
53.5032 19.558 7.05213
84.1275 26.8291 9.646
91.6395 29.7008 10.7383
30.7452 8.42528 2.87801
45.8102 13.5049 2.99793
9.41119 5.71398 2.72543
185.721 61.2148 19.2935
55.7739 16.8114 6.0258
49.6862 17.1453 6.5761
77.302 23.2005 5.91885
6.65273 3.5181 1.75549
69.4659 20.8309 7.11641
37.1434 15.6912 6.0321
53.8072 23.2767 8.56886
57.091 13.7307 4.1836
45.4539 20.273 9.95544
42.952 17.3259 8.14972
78.7493 24.2152 7.77267
33.4859 10.5308 2.33219
27.952 13.8121 5.73319
12.8193 3.71948 1.33995
18.2114 7.75416 3.63605
66.1978 24.1613 10.6517
33.3697 10.9268 5.11433
45.158 15.5922 5.7516
49.3659 20.2712 9.1052
104.211 34.1567 11.5342
56.6667 20.7678 8.6164
187.772 73.8272 25.4703
24.4687 7.23584 2.24458
47.5416 18.6908 5.84637
30.1921 11.8963 4.81518
44.0271 22.1102 9.88774
93.1402 34.2976 10.9502
19.5643 9.30466 4.97294
25.9618 8.53457 4.37795
17.099 5.2868 2.97562
118.056 52.416 19.1872
24.2167 9.10078 3.67212
27.4747 8.34678 3.14443
34.4309 12.0132 4.46373
49.1872 15.8726 5.8909
149.514 67.3946 29.5239
16.7357 6.90352 5.4793
78.5621 30.9325 10.3453
45.4611 21.8212 10.0954
53.485 23.0903 9.56412
37.6748 19.7044 9.64292
41.8711 13.4755 4.32527
15.0997 6.24182 3.09071
35.0485 14.4882 7.80579
33.6982 14.0305 6.06724
35.9578 20.7386 10.7648
83.0137 31.031 12.7898
7.73246 5.66388 5.11101
26.2513 9.93937 3.89579
18.0328 11.0814 7.99915
60.2371 23.6618 8.10907
19.8257 7.84901 2.44708
65.5476 27.6285 10.0453
84.768 45.3058 21.6005
61.9975 36.9634 19.9998
56.4181 31.3451 17.1887
72.6787 32.9675 16.6756
78.4693 41.8248 20.6092
81.2227 32.7807 12.8967
57.7258 32.826 18.8852
60.0818 19.7049 5.58081
20.7794 11.0113 4.28964
16.51 11.4497 6.16936
32.7915 17.055 7.94614
33.2069 23.8632 15.9383
124.149 54.7513 23.3486
72.7177 38.2008 21.1791
61.0847 30.4887 15.8799
32.48 18.2531 12.045
28.4347 11.9072 5.14526
46.4402 26.1253 13.2633
19.8892 10.9757 8.14843
29.2714 17.3925 10.6581
70.7868 29.1568 12.1146
60.4146 34.902 16.6803
45.4006 18.7176 8.02275
30.801 13.7853 5.55751
41.7688 22.9046 12.904
75.7776 38.3503 17.231
23.351 15.6033 9.68161
27.505 11.7095 5.71682
47.9429 31.5313 18.6828
102.595 61.5034 32.7973
51.2012 22.0541 12.3974
66.6329 37.6736 23.1667
56.6225 33.6095 18.0103
36.8082 21.4802 12.5598
52.4967 27.1101 14.5234
27.3313 13.071 6.35005
17.3091 10.4567 8.53984
85.4281 49.2975 25.6317
49.8395 33.6706 21.1847
48.4908 30.0934 20.119
59.363 32.9567 18.1041
20.4938 9.98227 7.69915
54.1352 28.1607 12.3228
36.6234 30.0088 23.9145
19.1068 8.25983 6.75205
65.4843 33.0508 17.853
35.035 15.6179 6.43895
26.0778 14.0849 7.39486
113.152 82.7666 55.889
55.023 22.108 6.49867
44.2585 35.3573 22.0421
60.611 34.8831 21.3148
19.114 13.4575 8.50706
36.3046 29.1564 20.3175
40.1486 21.628 13.2172
41.9566 29.0283 18.4686
11.3964 7.35849 6.60277
62.1541 30.6088 14.7363
17.5859 13.4436 10.1892
79.5309 55.1178 38.1176
6.39808 3.55009 5.59574
70.5495 48.7361 29.4516
47.7142 28.0325 17.0702
5.4211 4.50323 5.74056
30.3437 20.3373 11.2341
5.82992 3.5602 4.08377
32.6778 20.3249 11.7325
11.2933 4.79662 1.47746
22.6025 19.9467 15.7787
13.6342 5.1112 1.42679
28.5665 22.7166 15.1552
1.29896 2.33915 3.35104
7.84122 12.2398 15.7384
37.8504 18.6235 11.6625
56.671 31.5807 19.1966
26.9535 18.4849 13.6877
43.2348 32.969 23.262
42.0593 30.0021 21.9447
64.668 44.9012 26.4675
9.01295 11.2003 13.8666
61.7799 37.3894 21.673
14.7227 10.8031 9.10231
32.4963 21.0486 15.2178
29.0462 18.9567 13.2053
14.9466 11.1107 8.19754
41.0295 29.8798 20.7836
5.32127 6.69672 9.52593
38.4894 21.1509 9.69707
32.7643 23.0832 14.2814
29.8276 25.5225 22.7065
65.3876 42.3674 22.2714
13.4577 18.427 18.2443
10.4785 6.07901 4.12818
45.2602 43.7868 35.4586
28.9206 19.71 16.3484
40.7894 35.6584 30.4576
58.3949 31.9951 16.6723
20.9054 20.5547 18.3462
27.657 32.6422 37.286
21.8009 7.74117 1.85424
4.70512 9.6008 13.9001
40.5005 25.2155 15.1549
10.8027 4.98584 3.42957
6.21908 6.1854 7.67603
17.7475 12.9992 11.297
23.9266 20.5679 17.1769
3.4071 1.714 7.09465
78.9762 55.8757 32.6373
12.6055 22.9843 32.4741
39.8083 19.6821 7.00561
15.7007 11.5378 9.38992
18.261 11.9906 6.85108
16.946 20.0823 22.7992
80.7118 61.729 45.6538
25.4429 17.4011 12.8504
27.2735 28.6393 28.8706
15.6406 7.79859 5.42525
26.645 22.9065 18.3099
17.1388 14.8245 18.3351
36.2787 25.2891 16.6479
25.9106 30.2576 32.0249
49.117 36.0703 27.0907
31.0637 24.693 16.6715
19.9463 14.7652 9.54438
27.7481 30.1595 28.761
13.8144 13.934 15.0465
21.2754 19.1191 20.2
18.4688 9.9004 5.73045
14.7579 11.9171 8.56042
29.4309 25.0503 18.5373
16.043 19.1851 18.9942
10.8162 17.1026 23.9697
40.7146 57.2432 73.1355
54.3397 55.257 64.0832
96.5612 89.2483 101.271
43.7003 78.0304 215.987
1409.02 1175.4 813.935
12.1554 20.3033 38.9511
82.3554 95.2422 102.377
35.0392 15.793 9.66357
48.3406 44.1948 30.3794
1.43812 3.6519 6.52715
18.4814 13.1339 9.00592
45.4507 54.9454 52.7994
32.9979 25.9796 16.6139
8.98947 11.1633 9.88876
26.5414 37.4196 39.3174
43.9876 38.496 31.7356
16.6253 19.3787 20.8678
15.5517 19.9963 25.7273
32.8247 24.2948 18.2033
7.48941 12.3749 18.9394
58.2121 48.9541 37.4918
17.2344 21.7344 23.7846
14.2922 16.2145 21.4622
14.4829 17.2763 25.1065
50.459 39.9022 26.5349
14.1211 17.2417 15.5741
29.6621 37.7791 41.5192
24.9834 18.8316 14.3343
27.1195 33.6127 34.605
6.52928 2.56863 3.27118
33.8363 38.998 38.4164
23.5364 22.7827 18.1609
12.289 15.127 16.4778
7.57277 12.6656 16.3539
11.3402 10.3875 10.8439
13.7657 27.3336 44.5259
35.2765 21.8639 14.449
21.8247 19.2126 12.7712
10.8841 13.8272 13.4579
31.3105 36.2116 36.2126
2.50192 4.37158 8.60989
5.53592 6.29661 11.164
27.5449 42.3529 50.9908
26.5553 18.6913 15.968
4.01162 3.16896 6.76978
24.6688 25.532 32.5963
28.0815 21.1546 15.113
15.3994 20.6017 27.0238
19.3869 21.1481 24.2438
8.87148 7.28519 10.3928
12.9004 12.3551 19.1863
28.6451 28.6636 36.8701
59.7182 53.8113 46.1524
55.8941 59.5335 43.7553
15.9173 32.2863 40.6031
6.8172 8.12266 16.6726
14.9267 13.482 11.5782
7.72231 8.07944 9.24689
9.17716 12.5021 17.1241
31.0036 37.6615 46.8321
25.9922 21.4878 21.5964
17.0816 16.0486 15.6583
15.1981 18.9726 27.7863
24.0907 29.8983 39.4048
37.225 30.7114 20.4438
12.0978 16.9382 25.4971
34.4682 37.0642 30.0941
10.8558 18.3417 25.4846
25.8211 24.9481 22.661
24.5899 37.9964 45.8094
6.54155 8.22392 15.3439
13.6528 16.1577 19.2247
12.1414 21.5691 34.6526
31.0976 31.2505 33.9207
26.3437 28.8265 41.004
35.9236 36.3003 28.4911
2.7687 8.99129 22.848
43.2303 46.2686 40.1158
17.9117 33.9282 53.4927
29.234 26.2613 22.0239
10.4095 15.0565 20.1101
9.87755 15.6239 30.3654
24.2456 23.9268 26.9124
17.8127 13.2754 9.62469
17.5575 25.0453 40.7544
64.116 77.6221 79.9159
20.5243 20.8166 17.0423
5.48973 11.0279 16.6589
10.591 13.6296 13.1348
14.893 30.1784 53.0773
55.2916 73.522 82.5867
12.5275 11.1513 15.1989
18.2801 28.5383 42.2691
14.4408 19.2453 34.2707
33.3436 33.1026 36.1719
15.1272 14.3469 19.7511
28.1598 28.6557 30.0421
12.2996 10.5761 10.1491
16.1391 22.6278 29.3879
33.5943 46.6091 62.2979
26.4293 29.987 35.9294
14.1203 16.412 18.1034
5.76399 8.12641 15.1737
15.4462 22.4958 29.3929
25.8984 33.5514 35.3317
6.51678 8.93593 18.9282
18.011 23.5422 38.8088
46.8404 56.4601 59.069
8.10743 5.67392 4.67276
5.2363 6.40989 8.93889
32.9057 55.6589 73.4786
10.6277 11.8727 19.3119
12.8135 22.2872 42.1359
22.5234 20.4451 23.0731
25.2036 28.558 25.5286
9.60819 23.5957 51.2638
39.8684 46.5751 45.6674
29.3545 54.1179 85.3211
31.4743 25.5391 19.5586
10.0776 18.1397 24.8419
8.29294 11.9345 22.817
14.5919 20.5685 32.779
19.0041 19.8202 20.6391
3.98646 8.02524 21.0306
30.6926 44.0526 53.6069
14.0146 14.993 17.2809
8.52949 11.9174 15.8947
6.01203 13.1799 30.388
35.8185 45.8458 59.7141
20.7443 28.7693 40.3907
24.9529 29.0477 37.951
17.4213 20.7599 24.8676
12.9873 17.3718 23.6354
8.417 9.05762 12.1068
8.83257 10.1487 12.3942
10.6074 14.2877 22.9065
28.8969 45.5033 60.9258
24.2875 33.6191 36.1788
6.1221 12.514 26.0988
15.7647 23.8884 34.5779
13.0856 12.8765 14.3962
13.1636 25.5779 47.0215
14.0727 15.8241 17.3939
6.73968 7.3103 9.28362
24.9616 48.1833 72.6715
8.89955 6.10392 8.15504
3.67938 6.3867 12.2141
15.2353 37.3925 71.3534
32.769 35.0964 34.8207
17.9038 39.9492 83.5557
35.1409 43.1644 49.7953
5.52653 5.19735 12.124
13.792 20.6893 26.838
12.0894 18.9066 30.9369
13.7782 19.8815 22.9888
6.97372 9.26584 11.1809
13.1532 25.5798 43.2587
14.076 24.8712 56.1557
24.8835 26.65 21.7825
12.2094 19.171 19.3526
6.615 11.6208 12.5143
9.72161 29.1348 53.5345
6.36709 8.05559 21.9751
10.1383 11.3789 13.996
9.59401 12.554 14.7548
13.827 26.5006 40.2739
7.02323 9.39521 14.805
4.12923 10.8708 23.6088
5.99495 6.9932 20.8927
29.2871 48.7419 69.3568
8.79562 4.92513 4.75406
6.41305 6.96241 7.88693
7.38671 8.86909 6.60198
19.6228 40.0363 54.8751
3.08855 8.23339 19.8416
6.09908 14.5811 27.6643
8.45692 18.3821 43.1085
16.8636 19.9085 27.8535
3.75152 4.96659 7.90714
4.18193 12.3036 27.0554
5.53735 8.60111 29.0788
24.142 24.5105 21.8351
8.0913 17.3835 34.8512
11.788 17.4581 30.2745
10.0372 6.39006 3.22978
9.98233 16.4298 21.588
10.291 34.5185 88.6599
25.1907 20.7796 14.097
14.5881 24.4166 31.6419
6.62815 15.7052 38.0945
15.8577 23.6443 24.1299
2.44958 4.54374 8.03345
6.75577 22.3572 54.8522
19.6882 27.0847 39.0444
14.5091 27.6825 43.6883
12.8433 24.1019 47.6978
11.1785 16.0472 26.3448
6.6148 11.2437 20.4104
14.3726 41.9344 110.622
32.3151 30.3713 34.8995
14.971 21.6826 25.6487
5.46355 6.87156 8.73539
4.03625 8.6401 23.8061
16.5082 33.2931 55.2404
10.6035 21.8778 48.0267
15.0618 18.2893 31.517
7.67146 10.6087 31.4207
18.6933 31.5248 50.9912
13.5019 9.11123 7.88558
15.2766 23.4491 27.7508
8.81476 26.7115 65.925
12.4069 10.2598 28.9324
28.2536 46.9143 71.4958
20.8714 28.1112 27.374
3.66193 5.4458 11.57
13.5703 25.1988 45.4669
19.3072 30.0094 33.4945
6.41845 10.4227 21.2125
10.9767 16.4466 18.9289
7.35886 18.0939 27.3272
7.11584 12.0981 25.32
12.636 18.4615 15.7673
1.94709 5.96606 16.1374
18.425 39.8269 66.2848
12.5988 21.0769 27.091
11.4119 32.5457 74.8337
14.2036 17.2977 16.7155
11.4609 30.2126 54.7485
16.4201 34.3292 57.4198
6.6009 9.93008 30.8372
16.0576 18.4699 19.9499
4.511 9.00291 16.666
15.0749 27.6531 34.0023
7.31979 18.769 32.6017
6.1531 20.9572 55.2474
11.7165 17.2479 25.5294
3.66568 10.4363 28.699
12.3119 26.4937 50.2053
8.78532 20.1784 62.4559
16.1483 17.6954 27.1032
15.0407 18.9053 13.9081
15.0385 48.3127 101.358
14.4666 19.5406 26.1198
4.86507 10.7827 23.0478
7.12053 11.2857 19.6986
8.80755 15.7656 21.6177
3.73949 16.6169 42.1552
5.05373 7.46701 16.8696
2.80127 8.81791 33.4844
15.099 22.2666 33.3692
4.50701 12.2468 35.1859
10.73 24.184 62.9353
11.9406 17.9634 47.2596
16.7713 20.0555 19.4521
8.57608 15.3662 32.4054
22.9082 48.6558 65.5534
9.28954 22.4805 47.4137
9.12332 12.6887 18.3838
5.41532 13.306 26.033
17.2495 43.2013 81.4736
12.2989 26.9483 51.4109
6.82759 19.2379 52.7597
13.3723 35.8028 113.363
28.9861 31.4338 32.0061
11.2041 19.3714 24.5552
1.59182 5.03771 25.5672
12.1445 16.9206 22.5783
5.73821 13.3331 41.8814
17.968 37.9526 77.1605
19.9497 37.469 62.0618
11.0308 11.6593 10.5821
8.23003 23.9614 53.0761
11.3045 23.7915 43.5186
2.96247 5.98351 40.9515
22.5988 35.6369 42.663
3.64613 3.25326 8.31188
10.9317 23.1503 36.9873
4.89445 8.75242 16.6395
13.3333 28.9651 43.8615
6.64922 20.4829 43.3075
1.79707 9.70407 51.3368
12.756 17.7853 37.53
13.6566 25.0255 46.6293
9.12727 14.1622 24.9364
4.43047 11.5514 32.3637
10.961 11.3057 8.50856
14.4422 39.4164 64.6819
2.48969 5.46469 19.4205
5.60698 11.0962 25.4981
9.14018 17.9062 28.4462
6.00147 12.0879 22.0014
9.05205 28.6127 80.0787
12.6795 19.4402 28.7148
11.8782 32.9179 77.4275
15.0905 39.6796 104.637
25.0063 37.3154 57.6731
20.649 47.6923 78.7998
3.35116 4.70052 24.3673
12.5352 27.8052 40.0434
2.98097 11.5905 52.7939
24.1891 46.8461 72.6297
3.59285 11.3962 34.343
3.80303 3.4292 11.7261
3.10986 4.48395 15.9042
12.4605 26.29 36.0905
2.79911 10.7818 35.4564
8.3997 17.8306 28.4518
2.87782 10.9116 40.2969
7.54691 10.6784 11.6041
6.47617 23.6016 55.9454
6.74796 8.98106 13.607
3.59775 17.123 52.0434
10.3062 16.0709 32.8033
8.23814 13.3457 17.0362
1.32337 5.31202 14.2494
3.6408 7.90541 24.7947
8.72586 23.2725 46.9118
7.80812 15.7368 25.8665
3.31453 10.4701 27.824
3.30896 3.94394 14.8807
6.32323 14.5061 39.233
7.8772 7.91712 13.9367
11.0617 27.3115 49.6174
4.97874 9.94618 26.5516
6.33698 14.84 32.3433
8.38927 23.7574 61.6774
5.78588 2.97654 4.62111
6.61477 19.3503 48.0147
21.4498 63.551 152.391
22.6659 34.1809 34.4781
3.75847 19.503 67.4705
15.3447 32.8727 62.5943
7.96161 7.98277 6.52759
8.45988 27.5104 52.9171
6.82236 23.9863 51.7572
5.14613 17.7266 48.5677
3.38625 5.99981 32.7754
9.83076 20.505 40.2853
4.49938 12.4121 43.4499
12.3343 25.06 45.6098
5.68647 18.1397 46.6852
6.1748 15.9725 60.5721
10.0318 21.0209 71.5514
17.3611 27.73 52.5042
14.5829 29.9435 55.0675
8.87269 27.2917 74.62
14.6799 23.6319 50.7137
21.9556 62.0675 131.752
9.84585 17.7154 73.3637
16.485 28.4873 36.7901
10.9213 25.6157 47.2676
11.8415 39.5294 94.0459
6.81898 13.2907 38.4922
10.6968 35.6853 98.5877
8.61262 5.57821 8.93666
7.23024 17.3501 22.7441
2.34293 14.1684 52.2395
9.75875 18.6919 46.9224
15.9502 42.2635 82.4238
5.74272 9.89932 24.3642
4.01015 13.5209 39.2123
4.55247 4.85118 15.9938
5.8569 18.007 54.5758
9.24988 13.073 20.9871
6.04788 15.5765 30.9944
2.31081 6.18396 29.322
8.42859 14.8433 29.7615
8.66007 26.1942 52.7292
4.45875 8.27708 18.7108
5.02959 27.6485 107.203
13.7371 14.2741 14.8149
8.65133 24.1594 32.0563
5.40501 24.9564 73.3982
8.15694 10.3749 26.2991
7.528 21.2276 36.8336
5.36292 15.2652 24.1588
1.79517 13.5081 60.2929
10.0544 20.3424 39.1574
5.02592 10.3971 18.9187
3.61828 12.6159 29.0672
2.71901 9.84016 50.0015
14.3968 40.4968 80.1681
5.89478 10.582 43.9023
11.7511 25.3206 43.2342
1.77936 10.1376 62.6306
9.97236 11.0213 8.6034
3.48485 8.91638 25.8983
11.1867 32.9245 69.7179
8.90572 16.9236 28.6772
8.24954 31.1038 60.1323
5.1336 18.7014 59.3118
9.17985 22.8139 42.9726
0.637089 3.97475 45.3836
10.6911 17.4898 20.1475
8.92837 49.4298 149.187
13.7285 13.9063 20.1235
3.15357 6.32633 16.8748
5.35138 18.2512 35.8587
1.77251 4.85031 25.5512
6.76204 21.5243 57.6878
4.61476 5.70517 23.975
4.09497 15.0675 69.337
11.0356 17.2743 34.5887
6.42178 15.9566 44.7262
4.44551 10.8255 67.7542
16.7749 24.6425 21.1324
5.67439 26.794 75.8484
10.4037 21.4734 58.113
9.95538 16.4723 31.8052
8.53675 24.924 41.7664
5.76187 17.032 35.009
4.09852 16.653 46.4679
4.32596 7.40715 28.2055
6.07631 15.0734 33.0744
3.75498 5.43254 9.92672
3.32288 11.5377 31.6094
4.05809 14.069 33.2583
2.37128 5.98167 34.998
7.71808 27.789 73.3458
6.31087 12.1112 46.8305
8.69633 12.2409 33.3708
8.88956 19.1187 28.7832
7.44533 22.8004 53.9011
6.07749 17.6151 41.5876
4.3471 13.2276 25.3323
1.89601 4.99319 18.1061
4.62981 14.643 39.2086
3.74882 12.429 36.5493
4.70612 10.2718 28.8434
3.46062 8.70861 31.753
6.00697 16.6284 37.2981
4.21698 10.6962 35.4367
5.76994 16.5059 37.0256
5.37374 16.4224 42.1601
3.36458 4.31968 22.4391
8.6574 26.0616 56.6665
6.6597 20.0979 41.5683
3.15131 10.9509 35.9062
4.30497 10.1447 40.0105
9.43786 27.3783 60.8076
4.26721 11.5952 31.9913
2.17925 6.9726 34.6127
7.41387 23.7334 55.0408
4.54501 11.6866 51.1988
12.9987 46.0287 118.999
7.77958 6.26668 10.8269
1.65136 8.36242 61.4866
14.015 35.0288 62.7514
4.87191 7.23884 23.7447
5.72966 13.4482 24.2774
3.50889 7.34749 10.3938
3.46924 17.072 37.2204
1.42809 7.70152 38.1677
2.09481 1.05378 10.837
5.19709 26.0729 81.44
6.33713 14.8272 54.4796
7.30971 18.0292 56.7604
7.02104 11.427 24.0855
3.42786 7.43093 23.3716
3.30386 11.6605 30.934
3.7265 8.32834 32.7837
3.3361 7.96379 23.8707
3.88761 9.40314 33.003
7.13778 19.3154 45.9233
4.97466 15.5941 44.0191
5.18483 9.19713 30.2798
4.69245 8.66951 29.1166
6.09589 12.355 21.2985
4.15265 14.1057 42.4698
5.12103 11.5501 13.4682
3.42362 18.9599 45.6099
3.0513 9.41983 27.2758
1.94267 5.94857 18.0924
1.21966 2.42237 9.41128
1.32455 8.80552 29.4578
3.10009 7.31394 29.9126
2.35742 2.49656 27.9498
7.6132 19.8008 51.3702
6.00677 13.4622 32.2476
3.21476 8.31288 46.0844
14.0528 49.3798 137.326
11.1416 15.2374 17.7516
6.31873 24.2179 45.9145
1.0101 11.2136 76.6461
10.7503 20.0587 30.9056
2.98377 8.44731 37.1688
6.75066 17.335 21.6651
1.30573 11.2073 63.309
9.04092 29.3068 68.5741
6.63779 16.8154 55.1461
8.63135 32.9396 85.354
11.0541 38.5663 78.0766
2.58516 4.22805 13.2967
1.42775 17.8894 69.1984
3.95057 11.4651 90.1913
10.3753 12.8375 22.7719
4.32028 11.7966 14.029
2.58434 18.9306 57.4463
3.96199 6.54052 32.2187
5.54695 19.5647 55.6834
2.98243 9.28435 55.054
4.82313 5.06292 19.4025
3.94833 8.95667 23.7742
2.89647 8.05244 16.6174
2.86375 15.3444 54.6839
4.17593 4.85432 13.3442
2.91512 10.3051 33.6536
2.87629 5.75203 19.072
3.25633 10.4686 38.0764
5.15861 10.8747 25.0808
4.43908 21.215 78.7376
7.99785 27.9293 87.917
6.53407 20.9404 101.366
9.29383 11.372 7.62429
1.97398 16.143 102.83
11.2067 23.3683 60.5382
5.71756 11.2703 49.2992
8.98595 19.5658 38.98
10.1338 47.1398 86.3961
2.43937 6.43684 38.3964
2.30086 7.60153 58.3139
7.84515 19.206 49.8614
5.86059 10.215 24.7239
4.45485 11.2141 28.9733
5.31791 23.1186 36.0159
2.42148 12.52 36.7081
3.4069 9.46362 35.9059
3.19067 7.73683 23.3721
2.01226 8.42974 38.9454
4.21613 8.43005 15.336
2.57935 11.4242 29.3941
2.42088 6.18181 41.4799
8.33624 35.4237 86.4906
5.13583 6.25887 23.0369
3.69363 8.90736 24.1752
2.53653 15.8426 56.8411
5.10487 8.97769 26.9982
3.11007 8.81635 25.54
2.98065 15.5894 67.3658
6.11496 12.9674 52.124
6.87469 16.9481 37.5406
3.24627 4.42156 40.6719
9.4469 26.4542 62.6843
7.80742 25.9697 58.11
4.00045 11.597 12.4278
1.79584 21.9605 117.636
13.2943 29.5399 43.4625
3.07771 21.555 65.4166
1.8287 2.62073 35.2675
2.39845 5.43377 49.1876
6.39253 20.1588 51.8438
5.45217 24.1066 116.744
12.6115 21.7541 18.332
1.50222 9.83097 31.7847
4.11983 18.6815 51.0791
5.46702 15.3781 27.9507
0.966977 6.75103 57.9301
7.54293 24.8762 92.4603
8.66804 15.1328 41.8277
9.65321 48.4941 119.4
4.8876 5.32809 69.3673
10.3685 28.4415 52.7601
4.14874 6.70793 23.0431
6.15223 26.018 56.2988
3.29324 19.0626 95.5976
9.07727 19.5236 23.7274
0.466598 4.29726 28.353
2.43152 8.08113 35.1925
2.57104 7.66003 34.2664
3.9896 10.4868 32.9272
2.90119 3.52515 3.93944
2.14141 14.0652 55.2148
5.68156 12.1161 12.5059
0.733722 6.53962 31.5863
4.06708 20.3707 78.0286
8.10701 23.6184 56.8002
3.02757 5.688 27.6817
3.73366 9.59337 27.6634
4.14388 21.7983 88.7573
7.21052 20.0363 36.1101
2.41416 5.76224 38.2665
4.9128 7.37185 11.1053
5.82209 38.1683 89.383
4.32638 21.5791 98.1414
6.34426 7.94176 21.1461
2.56149 11.9253 44.6098
3.42435 4.32364 16.8889
1.93779 7.08201 24.3332
2.63156 13.5721 56.7774
6.31265 13.1653 30.8641
3.36557 15.7622 49.9645
3.30526 4.78066 5.79101
0.720111 3.61602 14.3552
2.13799 7.08332 20.703
3.0484 14.4543 45.7314
3.80673 22.1378 81.5037
6.32099 16.9777 48.3334
3.08023 4.32322 20.0878
1.52295 7.72074 41.638
4.58581 12.1527 41.1531
2.47048 5.94319 20.3779
1.16195 0.96124 31.315
4.56361 11.6825 8.61652
2.46202 22.2233 79.6876
4.05317 2.67511 8.45119
1.61309 11.0075 42.9267
4.12213 17.3586 90.1644
9.09574 33.4113 110.069
7.68812 13.8434 51.7201
6.04802 15.2205 19.2134
2.34015 16.7565 81.8783
6.45497 20.3992 60.2221
4.39876 5.88949 8.12844
0.868533 3.44983 32.8937
4.78212 21.7647 41.134
2.14517 12.1702 67.9285
5.85214 7.77517 29.5236
3.98711 17.1068 39.9406
2.0292 1.98473 34.5359
5.75801 17.3038 50.2898
3.98302 11.1113 27.187
2.00126 5.4604 8.17003
0.815466 5.22721 28.9062
2.83427 4.96808 33.4182
4.81085 20.3353 69.1975
7.08517 23.6262 41.7852
2.71867 10.5406 33.4428
2.02266 9.31644 36.2153
2.74606 3.46877 19.0281
3.33352 15.217 48.0668
2.41065 3.5072 25.6157
2.77486 6.65127 12.4121
1.19563 3.32122 15.2249
2.03835 4.38968 21.261
4.45382 33.7822 118.472
8.67349 19.5154 44.5962
2.34038 4.09167 63.1129
7.66273 21.4978 44.097
3.29199 8.18191 31.8668
4.34209 12.9327 20.9016
4.67754 31.8013 64.0239
2.78567 5.14247 16.6509
2.63101 21.0534 81.7479
7.50773 30.1185 50.1672
1.48244 16.6407 90.6862
5.50767 11.7018 77.2674
5.9556 10.9297 53.6544
6.4163 11.9236 12.2375
1.95033 10.1781 22.7318
0.836735 1.39457 3.70227
0.412391 5.49901 33.3692
2.37275 5.98688 24.9771
1.93428 3.28033 1.79064
0.248585 2.33332 14.774
1.4296 5.78691 31.685
3.77158 11.6195 40.7139
2.78746 9.43009 20.425
1.63934 6.08202 41.4736
4.72554 10.5309 25.3849
2.33908 9.02238 29.7472
1.876 2.22296 45.2527
6.41173 18.7517 34.0436
4.39009 23.8881 42.3167
2.1326 17.8942 88.2611
5.26235 14.3353 49.9634
3.56058 11.131 37.6358
2.30553 2.32495 18.8696
2.66761 22.7724 112.94
7.99384 9.03087 30.8333
4.63733 17.174 36.4434
1.79322 6.23118 47.5983
6.54597 30.9098 85.1879
7.6385 29.6568 66.9139
3.24396 8.35446 38.2295
2.13732 4.6642 24.57
2.11287 4.95357 23.6057
3.31064 15.8428 60.7637
4.19584 13.7133 34.9678
2.00136 7.88269 26.8424
1.56334 4.56549 25.625
2.52437 5.464 10.903
1.14578 13.8849 78.3898
5.22051 6.98355 38.946
4.53889 8.89694 41.4997
7.35988 42.861 109.049
4.72788 5.57228 12.3712
1.17291 4.94947 43.9898
3.66001 7.76571 24.4332
3.06712 12.184 13.4638
0.894059 6.96041 21.1999
2.68967 13.7001 55.7079
4.67347 20.5835 46.3487
1.64562 1.46152 61.2842
7.15032 25.1609 28.5547
0.946255 1.36809 22.1824
4.05826 22.821 54.6336
2.59243 7.83278 42.1138
4.92804 27.3621 54.7834
1.96537 4.38959 20.3439
1.83549 13.3992 78.6194
4.80755 8.343 25.8658
2.32878 10.8452 43.2784
3.83322 11.0475 15.9698
1.57529 14.2378 72.821
4.45836 11.4015 33.9927
2.73894 3.99815 24.3205
3.08446 17.9746 94.1668
6.38569 8.40715 16.2428
2.80629 16.6472 19.3603
1.02674 10.8225 45.1275
3.65784 13.9088 52.3268
4.52069 24.6115 61.4296
3.03183 12.5168 56.4897
3.48023 15.4552 65.8514
4.16819 7.53621 66.2993
7.21865 20.1404 31.4061
1.38805 10.3562 59.748
4.05866 10.133 42.9997
4.01813 9.58486 18.1819
1.64782 12.9993 76.1196
5.33647 9.55888 22.6756
2.41853 10.2257 26.1557
2.27842 9.80661 24.9644
1.61096 6.10709 22.5563
1.76619 9.77506 45.5138
3.27584 7.34612 46.4052
5.88118 40.3303 78.3409
2.82139 16.9694 124.439
10.1375 24.2174 89.8351
6.78582 24.9542 79.3248
5.6172 12.574 17.142
1.09986 10.04 49.9427
3.80634 25.9885 138.842
8.0253 12.2373 44.0375
3.13652 12.3829 50.8678
4.51935 9.9802 10.5755
0.848857 11.6528 48.9622
4.07891 10.843 31.5131
2.53097 11.8603 14.9145
0.508582 20.4025 125.297
7.70756 5.76462 43.2348
4.41925 11.6777 9.6453
1.97684 18.4751 44.9575
1.79479 11.3143 69.3027
3.83126 8.70866 39.4323
2.8126 11.696 59.7201
4.72285 12.1073 48.156
3.7719 15.6087 67.6652
4.15084 11.3995 61.2138
5.67013 23.7246 33.4941
1.67876 3.53376 23.6075
2.06454 6.40623 17.4815
1.30581 5.276 31.0317
1.87887 5.51092 21.1421
2.09665 7.11118 26.2515
2.0295 6.91919 21.2503
2.13717 15.391 43.472
2.04299 2.9741 20.3918
1.61017 7.53801 29.1498
2.30969 5.10622 32.1115
3.44649 13.381 24.7898
1.31258 8.24431 54.0749
3.66763 4.30141 35.1405
4.32433 24.1149 57.9981
3.36058 11.2187 34.7377
1.64462 2.80496 11.0708
0.986842 4.41609 17.6189
2.04309 11.2008 18.899
0.542518 4.12765 34.8762
2.02722 6.16625 27.8321
1.38297 1.63698 6.01989
0.628609 7.01084 74.3853
5.58519 18.2171 14.627
0.799236 11.5608 102.655
8.00955 25.6154 33.6849
1.82119 13.3559 74.9811
4.8341 9.98676 17.3293
1.47769 19.1772 76.6096
3.87127 6.18832 25.6329
2.10509 8.94576 62.8521
4.44466 16.3672 38.4687
2.10062 6.41134 45.1529
3.49443 9.0283 10.8662
0.516824 0.640516 33.609
2.89374 16.4221 23.4539
1.75985 15.8 69.1859
5.00196 10.5982 14.0534
0.936564 7.0583 29.4896
2.06278 10.117 53.5493
3.26806 15.1584 68.9165
5.65367 22.8828 69.546
4.62199 8.51095 13.4391
0.688439 4.08892 22.2746
1.0393 2.70676 10.2266
0.816148 4.85463 17.6799
1.62612 10.0949 45.7234
3.08678 16.0556 71.9831
4.46675 9.66623 23.5644
1.23598 5.49875 36.9196
2.86283 15.6153 43.2298
2.31364 5.47574 47.8561
3.64783 19.2577 62.4383
4.49846 15.6323 45.4827
3.0931 16.9981 86.8895
5.76078 10.6704 23.288
2.49689 22.0272 63.5025
4.66412 30.4227 153.7
9.67366 14.0103 15.1587
1.73631 20.023 52.1797
2.60566 1.75844 34.1651
3.14709 9.67327 32.0889
2.7995 15.6627 37.3393
1.82419 9.73864 38.0818
1.81727 8.29928 128.128
9.31272 31.3306 58.9899
3.60601 4.99626 27.3948
1.82543 9.56206 12.769
0.739588 5.10984 48.4374
3.87913 13.9947 47.5452
3.48792 10.7294 22.554
1.02894 3.77332 28.2076
1.49001 11.1458 72.3101
5.42528 12.2777 30.9468
1.9362 2.59053 18.2314
2.19216 11.6577 29.7267
1.2911 5.27091 43.0501
3.44567 11.3678 15.5663
0.949532 6.79979 48.1102
3.28 15.2515 61.8089
3.64072 9.45758 12.5341
0.847543 6.90364 30.0579
1.87888 6.85101 32.5095
2.38717 7.74005 31.2287
2.68474 13.1489 34.7975
1.60841 3.25084 19.5985
1.65108 8.16386 39.3796
2.10753 7.58631 45.5176
3.44145 10.152 72.5956
4.49728 17.9948 126.279
9.19451 13.3674 39.5123
4.10633 25.8737 65.7084
4.62027 14.4985 17.7836
0.902079 5.80294 20.5388
1.48385 8.57166 42.7851
2.67741 8.44489 60.3871
3.51905 6.01278 35.6152
3.15615 17.275 25.0027
1.58822 9.1416 32.1625
2.03291 6.05578 21.4066
1.8045 17.138 103.8
7.28173 22.5762 68.0859
3.81914 8.54922 13.7581
0.843562 12.2593 34.6679
2.07038 0.568925 33.7108
3.25969 18.6248 47.2131
2.54067 3.89527 19.3577
1.27925 15.7777 58.8973
3.53798 3.53205 57.5652
4.51183 15.2723 18.7894
0.732416 5.02295 18.9047
1.43226 6.36145 51.2988
4.08344 18.2423 22.8224
1.02009 7.03412 36.1822
2.2743 3.06158 15.6292
1.27783 9.98327 88.9928
6.65751 20.4462 24.5098
0.983321 5.19895 38.7292
2.76832 13.7861 51.1741
3.57172 4.68016 6.46491
0.53488 9.57456 83.4028
6.39052 18.5785 46.9895
2.76956 7.30253 36.4441
3.15428 11.6088 15.8189
0.996611 13.5248 49.6099
2.58654 10.9202 71.0029
3.96514 4.9507 33.0073
2.96306 15.7398 48.8589
2.52666 5.81003 15.4946
0.745178 5.29494 43.0298
3.32443 27.6716 74.556
4.74679 12.8932 23.9254
1.25802 19.8257 115.192
7.08046 5.63381 27.6834
2.05713 8.69519 38.8462
2.79043 5.44532 55.6521
4.94544 18.8987 41.2691
2.47078 6.28554 20.4223
1.96147 20.803 57.9138
3.05084 6.87327 42.1473
2.79899 8.02694 6.21456
0.815923 8.55874 13.2508
0.753467 12.8107 32.4001
1.58623 9.45045 56.3512
2.89558 4.89556 84.1015
5.87552 17.2639 23.0906
1.41265 11.4665 74.6663
4.51805 12.4398 32.8813
2.04605 11.2727 16.712
1.24568 15.9623 83.2378
4.71313 8.90707 31.8453
1.63225 2.67764 19.8313
1.45817 9.93297 47.8186
3.5497 18.4489 34.7249
2.28418 13.3018 50.7417
2.8013 10.5092 19.5326
1.11648 16.9032 90.7098
5.21975 5.98202 19.8873
1.40612 10.9528 62.4043
3.36338 10.1688 11.722
0.886217 10.4332 54.2436
3.60062 8.77167 28.9844
1.85185 13.9968 71.0722
4.95167 21.9501 31.0159
1.68309 12.7482 53.2798
3.21363 11.6415 52.8046
3.47275 11.0573 61.3049
3.43152 9.3948 22.723
1.50694 10.1175 79.2146
5.14733 26.1282 94.0957
5.12244 4.68147 13.489
0.704818 8.15628 86.1842
4.79397 11.2947 24.2513
1.71266 3.96055 5.63794
0.364296 7.30554 29.1331
1.82545 4.48752 23.9923
1.48789 8.19646 59.9719
3.32553 12.5152 90.414
5.43957 10.648 110.627
6.51011 18.7868 28.4218
1.75359 11.2944 66.4607
4.50881 17.1405 46.2667
2.67447 6.59409 42.6009
2.46089 13.2083 63.4332
3.82143 27.9759 46.4422
3.11836 10.0582 64.7252
4.10534 18.6387 94.9731
5.73233 31.3775 51.5911
3.28199 11.96 73.044
4.58284 8.62685 19.2684
1.41128 12.8276 42.4468
2.6367 9.72677 54.0603
3.4844 10.6807 28.0876
1.50162 4.00499 35.3704
2.31485 27.2532 78.883
5.36126 5.10091 50.9984
3.86309 3.51017 22.0313
1.9177 20.2772 85.6124
5.22201 8.1683 25.4764
1.78116 8.56516 75.5942
5.39315 40.6846 99.2894
5.32184 7.4372 29.5505
2.16568 6.84215 11.4917
0.573954 11.1439 72.3632
4.61432 3.44816 40.2444
2.81353 13.0119 17.457
1.07989 2.30772 11.0253
1.01018 6.74434 33.7535
2.1119 7.55042 29.1817
1.82274 11.6768 22.7891
1.36087 5.75349 56.3994
3.76981 24.7787 51.5334
2.593 6.75412 106.653
6.07827 18.3285 57.4361
3.84777 9.5604 71.6352
4.13102 25.0705 29.0102
2.11865 5.60277 43.3067
2.9104 8.76498 45.2374
3.47713 8.80286 21.7897
1.48296 3.78167 39.9823
3.10327 14.4846 6.56343
0.227802 11.1267 97.077
5.87165 17.7884 33.4955
1.93347 3.86429 53.0899
3.72714 25.8107 60.7242
3.55387 10.156 57.5522
3.3763 17.219 19.5116
1.19694 17.2305 79.6976
4.94154 6.91984 54.7592
3.27537 8.06556 41.8645
2.57807 2.69762 15.5726
1.11156 8.60037 31.7437
2.08824 9.9021 15.2985
0.886755 7.59584 119.645
7.10838 20.0931 96.1594
5.75363 33.4052 136.436
8.93706 22.2406 51.1245
3.16881 19.4912 65.3782
4.16195 25.1802 65.608
4.12984 0 0