# pn-170911/RbIIR-47-TWTF-1280-1959.psd
# Power spectrum* (dif=0,1,2) (really just |FT|^2)
# NOTE: only the first half! (symmetric)
# weeks: 1280-1959
# 9 clock-days, 1 excluded
# PSD: 1441
1236.39 0.0745298 0.0397928
88124.2 3.23775 0.0100435
77721 3.02442 0.00991559
84333 1.49164 0.0100026
100377 4.03083 0.00851595
18347.7 0.566562 0.0103412
7043.07 0.460969 0.00990318
6319.46 0.630402 0.00955853
10531.8 1.3993 0.00922236
6978.73 0.605841 0.0106996
4411.02 0.709301 0.00929967
2199.73 0.339081 0.0102511
2749.48 0.917262 0.0121014
4240.61 0.833823 0.00927512
3526.74 1.23128 0.0114871
1978.92 0.386334 0.0108315
1418.53 1.06691 0.015055
1481.61 0.811522 0.00942441
1630.17 1.02678 0.0150884
1742.15 0.753515 0.0111893
1523.64 0.897018 0.00935329
996.375 1.475 0.0157188
1154.5 2.58013 0.0132265
1131.55 2.42849 0.022746
1053.5 1.89033 0.0124787
1251.48 2.48629 0.0204305
2383.66 4.34121 0.0223017
1765.14 3.04352 0.0315916
1132.79 2.83448 0.0204028
1344.1 3.55707 0.0278437
991.465 3.03029 0.0262143
1099.58 5.45066 0.0287762
1177.77 5.30483 0.0331533
1146.59 4.08581 0.0411764
1257.51 3.70975 0.0239629
668.846 3.58025 0.0428767
1211.74 5.44878 0.036835
750.032 6.3266 0.0397909
1051.04 5.01437 0.0331736
1330.78 8.52589 0.081248
795.824 5.9258 0.0534558
1220.2 7.56076 0.0516637
663.076 5.06961 0.062429
1192.49 8.21875 0.0864293
874.924 8.88901 0.0965196
976.451 7.45049 0.0684128
1071.04 10.5238 0.117754
1826.32 15.0896 0.164754
1405.51 13.0986 0.173553
1011.61 8.6078 0.0954119
1160.08 11.4976 0.159851
1030.01 7.54899 0.0955397
1511.62 14.8884 0.179083
729.061 8.07619 0.0977184
1008.78 10.1722 0.11227
1178.19 12.5946 0.21214
447.392 7.38377 0.103957
952.703 11.0249 0.179653
604.869 10.5716 0.184046
806.433 10.8179 0.159459
744.83 13.3638 0.259263
1009.02 12.7244 0.242844
759.001 16.8963 0.346276
1817.25 26.6339 0.493242
1833.79 36.5814 0.688454
373.642 10.7459 0.272354
1147.35 21.1219 0.388798
2011.53 41.9418 0.891662
1420.28 30.4105 0.754778
806.847 14.4432 0.348897
764.112 15.763 0.348715
958.479 19.0633 0.516041
628.49 16.4917 0.390779
744.098 16.0992 0.480473
839.582 22.7588 0.522714
901.367 23.605 0.652239
696.314 17.2213 0.547561
465.615 15.3225 0.400661
983.996 25.3606 0.816239
612.497 18.7445 0.637175
590.222 17.8183 0.575681
411.259 18.1539 0.633424
1071.73 28.54 0.860702
448.824 17.7049 0.553905
820.136 19.567 0.619913
668.152 19.6165 0.721892
535.597 15.9082 0.617524
378.351 13.275 0.583031
669.351 19.204 0.741591
632.877 24.5559 1.01676
416.64 16.2189 0.551995
663.366 21.2616 0.879369
610.971 21.0742 0.867093
333.253 10.0159 0.448303
428.835 15.2467 0.661195
642.505 25.537 1.09487
297.664 12.4236 0.551084
569.048 22.8839 1.1072
577.283 30.2866 1.56169
563.368 26.2685 1.06863
521.741 23.9877 1.12987
419.524 15.7205 0.825588
607.366 31.8254 1.46887
363.496 14.8043 0.779371
818.197 37.7182 2.0803
586.225 28.9861 1.67401
609.329 29.5371 1.51104
251.081 14.1309 0.83182
498.045 33.0195 1.83172
608.59 26.1551 1.33934
426.338 17.6004 0.959315
306.845 15.3636 0.956976
229.543 11.9995 0.761273
316.709 16.7715 0.939035
329.043 24.0347 1.50924
467.765 25.0595 1.53138
419.281 27.2594 1.74045
286.65 20.6772 1.53071
423.687 27.6057 1.76222
587.361 33.7925 2.12244
287.679 20.0624 1.29527
300.679 22.4331 1.6418
460.95 27.4482 1.91502
215.24 18.9251 1.49677
306.605 22.1011 1.50498
263.783 16.766 1.22885
382.318 27.7655 1.98896
231.8 21.1932 1.64542
293.225 19.2911 1.60728
210.947 15.8139 1.06867
216.333 17.82 1.56724
347.38 23.616 1.91245
245.12 18.8765 1.52451
333.885 27.6861 2.19497
260.683 22.0634 1.84837
335.988 29.1145 2.53834
311.206 32.0968 2.7504
369.957 25.5015 2.2181
366.265 33.4946 2.99451
361.776 35.0969 3.51352
278.925 27.0107 2.73439
345.475 28.2213 2.57916
209.595 20.8858 1.98235
197.502 16.0083 1.75834
291.392 26.5678 2.71654
185.435 16.756 1.51388
205.517 15.6236 1.56527
102.725 7.57491 0.82205
148.763 13.7362 1.54698
204.849 20.8741 2.02023
207.87 18.3503 1.93236
97.6041 9.97369 1.02265
121.652 10.0662 1.10829
253.051 33.5116 3.51202
168.239 21.4057 2.55267
279.866 25.7838 2.91363
360.141 33.6682 3.88697
170.854 21.1402 2.39663
199.605 21.6939 2.63996
242.732 24.3003 2.92077
162.012 17.2388 2.05399
75.5792 6.9182 0.74927
127.58 13.6811 1.78113
179.267 19.5701 2.60566
174.875 17.7067 2.07892
101.894 16.4365 2.12447
115.182 10.1279 1.41009
180.018 20.1901 2.50724
194.287 23.0769 2.89381
206.634 26.0666 3.48179
129.881 14.6356 2.09234
229.582 28.3846 4.01691
134.23 17.5384 2.32247
199.438 25.4565 3.67747
176.639 29.3549 4.18086
133.218 16.6435 2.50102
121.47 16.5167 2.52654
97.8558 15.1601 2.59193
164.305 22.1606 3.05355
117.678 18.52 3.01839
182.688 28.4986 4.69095
158.038 26.6154 4.2205
98.5013 12.0416 2.03072
56.596 8.18493 1.4392
171.669 22.6479 3.04333
154.768 22.0311 3.86348
82.8723 12.3904 2.36399
69.6003 12.6294 1.65221
71.6415 13.5567 2.45716
124.105 17.7652 2.94697
81.409 14.901 2.24367
69.0375 14.1926 2.2767
126.359 20.7512 3.5949
64.6453 12.5806 1.95752
105.56 20.8516 3.71041
138.519 26.5172 5.17551
216.862 42.645 8.46083
67.78 14.8919 2.31589
72.8259 17.7615 3.90685
233.222 37.8652 6.48651
90.6464 20.308 3.75262
71.5775 9.31526 1.60314
108.427 21.9851 3.91176
76.8544 20.4618 4.42731
92.0531 12.2864 2.03495
116.538 17.8204 3.28188
82.5346 13.0705 2.60296
49.6822 11.3945 2.27723
98.5924 19.1202 4.01913
78.541 12.2881 2.21297
117.147 20.2424 3.90323
80.9928 15.2701 2.81755
75.4448 17.2349 3.88107
85.6243 19.9416 4.47624
123.523 23.9842 4.94404
129.439 26.1028 5.38345
60.7649 13.4803 3.09214
110.315 18.9699 3.95042
143.852 28.9087 6.64671
83.9677 17.9853 4.34073
114.446 21.5358 4.73888
112.191 28.1097 6.22737
94.0602 21.3017 4.84833
94.0153 20.4457 5.07344
90.9921 15.9519 3.95618
121.483 22.0996 4.99457
42.1212 10.295 2.33224
93.2969 20.6851 4.91294
72.089 20.7065 5.59702
145.666 32.8249 7.6102
165.654 41.9927 9.71711
59.7172 13.4256 3.78424
71.1792 18.9395 4.44481
124.313 31.4236 8.20377
117.925 28.4652 7.09531
100.462 26.9375 6.53964
69.1621 25.3147 6.86746
27.4825 7.42159 1.91153
31.4461 9.66739 2.72816
72.0635 16.6167 4.59265
92.3436 22.0805 5.69406
109.407 30.3886 8.93253
103.865 31.0795 8.36611
69.6704 14.3205 3.81349
82.257 22.2576 7.04562
110.517 31.834 9.82273
102.4 21.6063 5.27779
129.56 33.4826 10.0446
117.407 32.0637 8.66697
38.5142 11.0817 3.76473
102.948 25.3819 7.04113
102.259 23.865 6.7612
79.0137 21.5198 6.41654
53.0176 17.8729 5.73866
84.0144 24.8843 7.55542
45.5563 17.1962 5.79813
80.8843 18.6607 4.51402
92.3454 28.1244 8.99822
53.9825 13.9019 3.52867
41.8961 13.9558 4.56427
59.0801 16.3988 4.76995
49.8823 18.6736 6.54546
62.5875 19.3742 5.1302
55.6297 17.5008 5.8549
44.4118 17.7728 6.37117
50.8509 15.4713 5.93534
50.7407 15.454 4.00766
54.6671 22.5783 8.15026
40.1297 10.8115 3.05855
40.1754 13.2421 4.47537
51.7965 19.5651 7.44878
92.0547 19.8215 5.7684
43.098 17.0734 6.55714
104.288 33.3068 10.6388
32.0025 9.37288 3.35389
85.6517 23.4329 7.44193
98.7289 33.154 11.7116
50.7283 15.077 5.40345
52.5425 16.9731 6.17981
46.8914 17.2447 5.75294
62.5938 24.495 7.91199
40.6882 20.6277 8.41449
59.2463 19.3054 6.88601
53.7855 22.6128 8.02168
52.1982 18.7382 7.70153
55.8355 22.5085 8.64332
60.7108 22.8544 8.19062
35.8757 22.0015 10.6916
83.7667 25.1553 9.2363
77.7606 22.012 8.14991
42.6731 13.494 5.66403
80.5733 27.5667 9.20903
63.746 22.3009 8.00846
34.7041 15.2295 5.75977
50.2939 21.3845 9.24354
67.5179 21.4535 9.28997
50.0853 16.603 6.95309
69.6241 27.894 11.0717
66.0306 28.2175 10.7516
70.6203 31.1762 13.0692
66.5377 23.1921 9.76704
42.0783 17.7336 8.28266
86.7891 31.5944 11.0905
45.9629 21.6427 9.84876
96.7477 40.7496 16.5136
66.6566 28.7838 12.8382
32.8853 14.26 5.75113
28.8078 13.1627 6.54091
80.9821 34.2761 15.4236
108.098 42.6323 17.5534
62.9798 23.5985 10.6719
39.1096 21.2108 10.0435
40.7001 18.2372 8.1328
56.1706 21.9217 9.02736
29.4555 9.55415 3.83501
53.7892 28.4069 13.0625
56.187 20.2265 9.52237
68.1827 29.0227 12.9473
44.7805 17.1269 7.52342
34.7935 15.4553 7.56405
67.4206 26.2822 12.6263
32.2818 17.8343 10.308
37.3998 17.5851 7.80569
59.0947 32.0053 15.7891
52.0657 33.5817 20.5378
61.5535 18.4014 7.1433
27.5589 12.207 7.91382
118.529 41.7943 15.6816
113.558 51.9922 25.6873
42.7616 17.3693 8.91861
46.5974 17.6676 7.93909
35.4583 15.5482 7.15952
64.738 28.0347 14.6508
43.7746 25.896 15.662
61.4945 23.7683 11.0727
36.2623 19.9717 10.5
54.3064 21.7841 10.4342
40.4077 16.4693 9.54391
32.1699 14.6193 6.97334
43.9448 26.2069 15.4042
59.2708 25.1955 10.395
52.0142 26.1805 12.3768
33.7075 24.0264 13.7699
69.2377 28.7103 13.3425
22.8514 8.27648 4.47531
38.8756 20.6459 12.4689
37.8656 18.093 8.67301
18.7585 10.1902 6.12166
39.1187 22.419 13.0445
39.5351 20.8826 11.5872
49.9586 20.6165 11.5823
35.8435 21.8435 12.8054
40.0552 18.265 10.5715
39.6812 21.3362 11.4131
36.1865 18.5056 10.5875
36.9631 14.3642 8.04214
32.6369 18.7353 11.6035
38.3369 14.4301 7.6585
50.0774 31.8946 20.4458
67.042 28.9335 14.3627
24.3753 14.4349 8.68666
36.9395 17.409 11.1113
31.5063 18.7702 11.0595
31.8781 18.007 9.44775
24.8436 15.0207 11.0479
26.9052 14.1444 8.02207
32.7924 22.4465 14.1095
43.9626 22.147 11.2816
25.1651 15.034 10.8729
27.4349 17.4378 9.48529
33.033 20.2259 13.3364
20.3624 10.8092 6.8257
46.8341 25.2676 15.3398
36.5262 21.592 11.6026
37.5041 27.3582 18.6716
50.5071 32.2553 18.3324
25.6945 20.2664 15.6987
42.6641 25.6609 16.2377
34.5853 17.6138 12.0088
32.5246 16.2813 10.2793
43.0905 25.8195 17.3889
24.2764 22.2857 18.1143
54.9445 26.1957 15.6353
36.785 22.8383 16.0345
45.6364 24.0669 12.3557
28.7123 21.4483 17.2309
54.8452 29.2616 16.092
16.6923 12.2837 9.45441
25.9427 14.8684 12.0118
38.6192 22.0733 14.5551
30.9321 28.4537 21.187
57.385 29.2669 17.1681
35.0416 24.4918 19.6388
56.987 29.8617 17.435
40.0529 21.3781 12.9659
41.9065 24.5198 15.002
26.8036 20.5642 16.8171
29.7961 18.9104 14.4356
37.1685 32.6868 24.8984
49.8925 26.1341 15.4269
26.2122 21.3956 19.4346
44.1212 26.6669 18.4646
52.4216 29.4724 17.6963
30.7736 25.7503 22.6555
32.8027 19.8707 12.8467
24.3491 14.2233 10.5107
27.5571 17.941 12.9641
36.3242 26.5154 19.4636
46.7094 33.7411 27.0181
23.1847 15.6528 11.7334
23.6618 18.0026 15.4448
18.7456 9.83234 6.97846
19.6095 13.3513 8.99131
50.368 37.3335 28.4546
31.3023 20.4604 15.1631
32.3818 26.6824 18.5736
31.6459 24.9404 18.6519
27.8868 24.1694 20.0301
22.818 19.7011 19.1039
34.9403 24.5387 18.6696
35.0872 25.6354 15.2531
14.6805 11.8043 10.3255
15.8509 11.9861 8.2476
16.077 19.1694 16.8003
20.7753 19.2709 18.8919
18.5969 15.6593 14.4143
19.9843 10.1716 7.38425
44.639 34.6915 25.1705
24.4796 17.6213 16.2967
34.0081 27.5253 23.5831
55.1093 36.8454 26.5182
23.0806 15.2496 14.597
37.951 22.9646 14.2717
23.9967 19.4753 15.5334
19.7994 19.6625 18.3666
32.5315 26.8692 23.227
22.4679 23.2056 21.9781
43.9187 25.3945 20.9834
23.1015 15.2649 12.8611
39.9073 28.4885 22.8658
45.4781 37.0849 35.5431
71.8513 50.333 33.3016
32.7764 33.1539 30.752
24.2203 15.3908 13.3736
28.7419 27.8004 25.2009
20.1174 13.3718 9.54223
22.1243 20.7185 18.5848
22.8556 17.5096 15.362
11.1325 7.6986 8.14505
14.918 17.612 17.5402
13.6877 11.2102 15.7171
19.8599 11.9143 7.4754
15.2401 14.907 10.3003
15.9877 17.0296 17.5345
20.8035 20.6719 20.3586
34.7902 28.291 25.9921
15.2224 16.7926 16.2202
21.2992 15.4763 13.9032
17.803 18.0202 20.7222
47.4373 35.4298 24.6454
19.7797 17.4946 16.8219
20.1342 20.7683 21.5489
29.4396 18.9949 13.2774
20.6051 16.6324 15.3882
9.1787 12.7952 13.2463
24.0133 18.2402 16.59
6.46973 11.0123 16.4383
21.1001 20.867 21.6073
36.5464 28.6944 22.5629
17.9073 16.284 14.123
15.3418 19.4796 19.554
14.0502 14.7531 19.2311
38.1479 35.1908 26.1109
17.6126 18.3967 17.3772
18.7867 21.3868 23.4586
21.4697 14.5491 12.3451
20.2407 21.4239 22.7812
23.2296 27.9356 29.0779
16.3503 15.7287 20.5143
32.1122 23.8536 17.0563
41.495 46.7676 46.3483
41.0816 36.7311 38.6585
14.8225 19.7781 24.7739
36.7028 32.5799 36.2848
17.3298 10.8623 18.0909
76.4628 62.6199 45.0388
31.4406 40.4007 47.0356
29.2237 19.6982 18.5561
23.1761 15.479 13.7496
27.2754 31.45 36.0835
38.182 33.7012 34.4406
28.2519 24.2167 25.9665
21.5528 20.4421 16.9315
18.0553 21.6817 23.6179
39.2057 32.8353 27.0987
18.6589 19.1702 22.8262
15.1381 19.2956 22.3813
37.5483 36.6144 34.3691
16.8176 17.1944 17.3481
10.6548 10.6022 15.3057
19.594 17.7513 17.9499
11.0814 12.4636 11.8349
12.6054 16.77 22.8749
29.3508 22.2727 20.231
31.7609 30.4322 28.7979
14.0749 20.6381 25.9175
18.4072 22.0343 25.0377
17.4446 22.4451 24.5536
17.5318 24.3072 31.5581
22.3375 14.8949 15.5572
19.359 18.2169 19.4726
14.7229 10.2515 9.75956
7.46512 8.37497 9.01652
18.614 16.0628 16.7209
15.8595 21.3425 24.4086
21.4629 19.0384 18.3721
23.8768 29.5656 37.3268
20.7512 20.1755 27.2994
28.6684 30.4875 32.3737
12.0305 15.5119 20.9337
12.9962 19.6157 28.8458
25.0168 16.8995 14.7898
21.7912 20.9301 20.3953
15.7529 19.9987 24.9489
24.1152 22.5363 26.6225
18.3215 21.101 21.8839
13.2644 11.1967 10.5003
12.228 14.4346 17.5899
14.3672 20.1635 26.6962
18.7119 16.9351 20.8835
12.7176 13.7035 14.7137
12.3248 13.757 14.6912
10.5637 15.8942 25.1367
20.3115 19.7273 16.9415
22.2443 34.0813 38.8125
19.262 19.0204 23.6726
17.2311 20.5638 22.3035
20.6984 22.4952 21.6521
14.2593 20.362 28.5853
18.695 26.9695 39.2525
24.4114 24.3405 28.2298
27.5372 25.4707 26.1789
19.8074 28.6465 35.9434
18.3989 26.7498 33.4547
20.3618 22.5518 29.3554
9.86533 12.6704 17.5914
16.5738 19.4758 25.3873
22.6909 31.9614 41.6006
24.68 39.1694 68.5034
35.0796 29.1646 23.2761
11.5599 17.3712 30.1643
21.2395 21.9794 23.7523
15.59 18.9164 29.5879
29.7281 29.9823 29.9005
12.1679 12.5402 16.8577
15.382 23.2245 29.3795
14.3833 23.2212 37.4381
24.2546 19.4552 20.4154
24.1658 29.8081 35.3309
29.0517 41.8911 60.0661
18.2217 15.1351 15.0572
13.3523 23.8313 36.2497
17.6444 13.4036 14.1065
7.89661 11.0907 16.1289
13.4804 12.6961 13.2278
11.1346 23.023 37.8764
15.8542 19.5781 29.9626
30.2843 33.0637 41.0485
17.7887 23.9171 27.1535
13.2335 15.4005 21.4283
10.0573 14.5131 20.2051
16.5677 20.1462 26.0778
12.7551 20.9521 36.0828
18.8623 16.3362 19.391
13.1223 15.9428 24.0216
22.2924 29.025 42.5251
16.2448 21.1411 22.2519
16.5985 19.5545 23.9711
17.4853 23.1487 33.5268
16.184 21.2972 29.3764
13.2069 19.3156 34.5059
15.4472 12.6804 14.4562
17.03 21.668 38.2315
21.6645 20.6618 23.4274
21.7808 25.3016 31.0876
11.3301 15.1835 21.6168
14.1775 18.7231 28.2272
11.6182 13.1264 14.7574
11.1979 13.6776 18.6912
17.48 20.416 27.1141
9.02933 11.5621 21.4992
17.8289 25.7242 34.8375
16.7764 23.4196 34.6785
16.5369 24.4958 33.8177
16.1227 18.0203 25.0181
9.90173 14.293 26.5272
25.9721 31.6387 38.8176
19.5981 27.623 36.7375
24.2979 50.4097 92.9158
24.4071 23.1578 23.4475
15.2827 15.294 17.7947
19.6371 25.3549 35.6521
17.6563 26.4748 39.5652
14.0759 26.3851 46.9546
21.8557 25.9837 33.4924
12.6874 16.189 21.749
12.9008 20.0303 30.2645
12.4561 16.2364 22.0734
9.57461 21.3589 40.2221
11.1899 8.87724 17.2548
11.1989 12.4232 22.2246
22.2669 31.5387 37.9068
9.99452 13.1175 20.8954
11.5018 19.454 30.7854
19.1069 35.4082 54.8156
17.2547 13.7659 14.9024
28.0274 49.9595 98.1136
30.5362 44.831 53.7242
8.77521 14.8954 26.4778
7.99395 12.943 23.5217
12.0088 20.7507 25.7257
4.8786 11.3733 28.6222
18.5439 21.4682 23.6053
13.2074 29.7702 39.4887
4.35112 10.2709 25.0762
10.0853 10.1397 24.854
20.3283 33.0362 42.8086
7.06932 5.7998 12.9915
9.59436 15.8317 27.2578
14.605 22.8354 38.524
20.6631 27.1248 36.0938
13.6006 23.1863 45.0506
14.6121 12.5779 15.7254
18.3822 30.4102 46.8364
8.98089 14.0221 33.3581
14.5501 19.8513 31.5413
12.9028 17.1021 23.2297
14.2397 24.8548 31.1924
9.89036 18.8448 28.61
12.3642 22.0865 37.2525
9.81386 18.2875 40.4719
18.7796 27.8683 40.2987
19.0183 28.6871 49.142
11.8103 16.0211 27.193
12.8334 17.8093 21.413
10.9543 16.1366 24.7045
11.4527 26.3778 37.6601
8.32702 17.71 38.9837
15.0213 18.705 26.6188
10.4687 26.8012 54.9361
16.8034 17.2998 17.8369
7.39665 17.0447 33.7047
6.14926 8.50583 20.0973
16.5074 18.7782 24.022
9.53793 16.3686 28.6394
11.9497 19.9603 35.1774
12.4572 17.4427 24.0478
2.97584 4.89174 11.2785
5.28132 13.5046 31.2603
13.5971 21.9784 38.4715
14.7759 19.6673 34.257
12.8406 22.5563 38.7948
14.415 20.1241 39.4504
13.6277 22.2182 32.9344
9.31306 15.6165 32.4925
8.65626 8.23805 15.8545
18.2413 28.3292 48.9861
13.4821 20.0885 29.8844
12.7002 18.1571 39.6098
16.9438 24.0324 30.2107
7.63722 12.9104 16.4738
7.96453 26.2988 53.5714
8.34096 15.7157 38.0007
7.97359 10.2244 24.5813
17.1978 33.4478 61.0233
14.086 14.5913 21.8796
6.52223 13.1305 26.4883
10.7095 15.151 24.8953
8.32776 11.0436 17.1863
9.13359 16.3151 37.7732
15.5006 21.3976 28.8735
9.66896 17.7541 33.3529
8.71228 17.8037 42.3723
20.3356 25.2108 27.7443
9.71516 18.8687 33.8805
12.6477 24.0687 46.5892
18.8196 30.2981 45.145
6.15435 13.7312 34.1974
9.94348 17.1343 43.878
15.8732 20.1083 24.6419
7.819 20.5912 49.094
13.11 21.4591 35.6553
11.7185 15.7499 24.6197
6.81488 13.2436 31.8286
12.0086 31.1753 56.6266
6.56563 10.0016 27.5659
9.61191 16.3072 37.4169
10.2176 16.0672 27.5907
10.7405 12.3056 14.2706
8.38091 25.4883 60.3218
11.0222 15.1199 25.5655
7.72371 14.026 30.3545
8.57409 18.1971 42.1362
11.3641 9.7741 17.9626
13.2365 19.5367 33.6792
8.5751 12.0238 19.5098
8.5502 18.3572 27.2969
2.64272 10.4572 31.1947
9.51542 16.4616 26.6581
6.16243 11.1995 20.2802
9.19778 26.8825 72.7581
17.3397 20.5186 27.468
9.22423 15.8253 27.2946
11.6027 21.4498 35.9281
5.7721 12.5416 38.1107
15.8844 25.7974 49.4698
11.9646 13.7883 22.2351
5.44618 10.8231 24.8432
14.6422 22.1738 28.0456
7.37018 18.6662 40.3362
10.1053 20.5453 43.4167
14.5117 21.3415 36.7138
7.77182 17.6863 46.7868
9.51435 12.4797 21.2745
14.0757 27.4808 50.3316
6.84801 15.5191 32.0445
4.46525 7.40431 18.6896
9.00007 23.4195 48.0278
9.21307 10.2089 16.4471
4.32413 3.66397 8.07582
13.5043 32.1325 58.1365
6.90099 12.0745 31.954
8.13102 11.0916 18.8508
6.30158 11.2401 21.4283
6.88048 19.7209 44.7905
5.86873 10.3443 23.0295
6.77626 14.3864 30.3883
8.56811 17.9826 45.6251
12.2001 19.3525 30.1821
7.40122 10.8803 23.5119
9.84238 17.7707 33.1107
11.1872 25.5666 54.7073
11.2411 17.4203 27.0159
4.64803 14.6252 42.8943
12.3356 24.3284 49.269
5.52511 9.10385 32.2274
11.8231 22.2296 40.9284
4.42571 8.89307 20.056
7.80933 16.3346 33.8332
6.70204 13.3619 41.3166
8.11146 13.4718 30.6943
6.76946 13.7268 38.7527
10.0637 14.835 25.0066
9.64812 16.3417 25.1078
3.99078 15.6423 38.3569
9.86744 17.8756 36.388
9.84033 17.653 39.1552
10.3952 16.943 31.0157
5.84857 11.6413 31.9826
5.81442 11.7527 31.608
9.95731 28.6655 49.6194
6.21492 11.2614 29.6516
6.42317 10.6828 19.2325
3.28351 12.6995 41.8867
18.292 33.7739 66.4656
7.10964 13.2834 31.375
10.5936 19.1417 45.0707
9.60106 18.7131 41.3569
9.03464 14.7117 17.6127
4.46958 13.3749 26.8598
7.74934 13.8757 24.8405
5.48178 14.8157 25.8157
4.96627 13.7992 36.5392
9.62661 19.3772 46.5677
9.07045 11.6201 26.0397
11.6298 27.638 53.9509
6.88488 17.4499 36.5232
4.36227 5.98543 17.5547
5.4175 12.327 33.1499
11.9169 24.7828 45.0591
7.27346 14.1487 35.0637
7.86663 21.0603 38.7865
6.42013 15.5393 34.5032
4.85666 14.5803 37.2432
2.03383 2.48418 18.5754
8.14548 23.5465 52.8914
9.20161 20.8963 50.1959
8.84333 26.1205 57.6419
4.97413 10.7647 36.5375
7.17557 12.8719 51.5418
14.0233 17.6016 26.9001
10.4572 18.8608 40.3687
6.87153 13.0213 38.2233
11.3005 18.0908 33.2508
7.14271 10.9552 21.7543
9.04941 17.4611 28.4889
7.3406 19.8806 34.5455
3.39715 15.8403 46.7386
5.09255 13.3152 44.9095
6.50598 11.3277 55.0067
15.1756 21.8055 27.1345
5.23246 11.4107 24.5086
3.35944 6.93323 28.779
11.3107 25.3764 43.8056
7.32015 14.9018 40.1062
9.28409 19.8009 31.0826
3.72672 11.3569 38.2862
9.0805 18.7954 45.5794
7.26377 17.5349 42.8336
7.40223 17.5139 35.1444
4.19494 7.05302 22.5398
5.72739 23.3916 82.3068
10.5133 12.2072 15.6549
4.16956 12.5967 44.2691
11.487 19.8227 27.6804
3.26392 10.1066 23.6342
6.13332 11.0263 22.4051
6.98384 16.7808 33.1628
4.20561 15.1442 39.4861
6.86727 10.5938 20.8688
7.36343 17.0954 40.1536
4.10713 6.76313 18.9452
5.18297 13.3708 41.689
6.94212 14.4354 29.1159
5.23371 11.4722 26.7696
5.75885 10.991 38.8986
9.0072 18.4776 36.1056
5.9542 11.9821 34.5588
7.40243 11.7109 18.7117
3.78013 6.82162 14.9878
4.78289 12.1065 35.9739
7.04804 15.839 33.2728
5.96248 18.3819 31.8949
3.25021 11.1769 47.8939
7.86401 14.7563 29.7132
5.4736 12.9639 37.864
6.64901 13.8495 35.1171
6.97965 19.4819 52.7586
9.33519 14.8293 33.8563
8.41366 19.7365 36.0755
5.9362 15.9193 40.2216
4.85245 15.9485 40.3687
5.15088 11.8654 33.2438
5.46259 10.0697 28.0472
10.4572 24.6344 54.9105
5.8007 11.9816 37.0251
7.77638 18.173 44.0905
4.79852 12.2119 32.1887
4.55622 10.0452 36.586
6.3353 12.3409 21.5908
3.25694 10.1825 29.965
6.68843 26.0883 67.289
11.6413 27.0307 62.5624
5.95604 16.6416 53.4389
6.02438 9.99801 27.9547
11.4715 27.9699 67.0624
6.18816 12.1252 36.215
7.74883 21.5723 49.972
8.2017 19.024 37.7418
5.89674 20.207 52.8956
4.38271 9.03916 36.1753
6.54557 14.0947 34.9108
6.32238 12.2666 34.0194
5.97806 15.2919 25.986
4.17011 15.5792 49.9024
7.2926 20.5571 65.5878
8.99526 22.4848 48.439
7.5037 16.1099 53.2344
11.544 26.0258 63.9502
6.7856 17.6747 32.6477
4.9327 14.9529 42.5718
5.57767 9.68381 34.474
6.099 11.5755 19.7843
2.3678 5.90624 24.9756
7.43478 17.7005 29.4226
6.02606 19.0449 40.9439
3.15592 7.15148 21.0524
3.06707 12.9925 41.9111
5.53229 12.6027 48.1009
8.08255 16.2248 38.6756
6.33583 10.325 16.5884
3.55561 16.0733 56.5186
8.93079 13.7179 27.6929
5.12232 13.7353 26.6636
3.24456 7.44209 22.7759
3.83196 7.57802 23.6011
5.68616 16.7621 45.0488
5.43946 13.4098 41.7278
4.10838 5.91919 27.2436
6.72446 13.0028 33.1066
5.44064 14.5793 36.3357
4.60516 11.7667 26.1885
5.57433 15.7299 46.7712
5.53239 12.2305 38.4681
5.87126 13.6723 43.7051
7.21258 9.55151 21.2197
4.90856 15.5286 40.42
4.21408 12.1659 33.2415
4.38323 5.60427 11.9876
3.53939 13.7292 33.0199
3.80868 9.86137 30.0763
5.83835 15.2778 48.1752
4.95396 6.18952 11.9833
2.69774 5.85356 29.1132
6.82421 13.9496 34.0323
7.89201 20.7815 47.8945
3.1873 8.91941 29.0521
6.46384 14.4346 42.7029
3.50346 7.75142 25.1681
3.5303 11.6397 26.7164
2.52509 7.57963 17.2428
3.38372 15.0195 39.5119
3.47241 10.2888 51.1524
5.38004 11.1179 25.3797
4.41235 14.3085 30.0206
2.5854 12.259 43.3042
6.56101 18.1368 35.1409
4.17952 12.6893 61.0295
7.42794 10.0046 15.1995
3.26622 7.44402 26.1533
4.73434 7.97708 27.0646
5.28417 7.54502 14.0865
3.6769 9.75757 26.7346
3.64813 8.74739 34.4324
5.44431 11.3411 27.6505
6.25772 17.5584 46.911
5.73057 15.1751 33.6274
3.56083 7.4847 22.5695
5.08519 14.394 27.4587
3.90488 12.4991 42.1042
5.02481 17.5503 41.3781
1.46133 7.32483 48.4885
6.00266 11.25 43.8051
7.33864 18.9339 52.5535
6.04075 11.1501 30.743
5.84529 12.3192 26.8819
2.53692 7.71417 30.4932
5.80364 21.8817 47.3544
3.60447 5.99789 24.4876
2.82301 9.22075 32.9001
4.44556 9.26544 24.9062
5.12995 13.9083 42.6376
6.16889 12.7027 33.5915
3.88977 13.735 41.9645
4.9516 8.14199 22.959
2.29237 10.349 28.7035
4.22177 11.5171 48.5768
6.28661 10.8544 27.7992
5.94265 19.0327 33.5701
2.62544 8.66253 36.5361
4.149 9.96224 37.9418
4.35755 10.2825 25.478
3.68641 7.84527 18.9952
2.97849 9.86893 46.0253
4.62915 9.27253 18.9216
3.20713 10.9918 36.8578
4.1644 13.3865 42.8504
5.17028 13.2682 37.9478
3.81805 4.48338 14.7714
3.75261 9.65297 21.5173
4.03601 12.786 33.1862
3.76095 7.4577 28.3078
3.57616 4.284 8.1778
2.23144 12.7867 49.2275
5.56312 10.2678 30.2202
4.90482 12.6145 42.5209
7.13035 21.5157 65.1008
8.12176 19.3502 45.535
5.30287 17.3697 38.2
2.29303 6.2588 35.4402
5.12579 12.0712 30.0434
5.57102 23.2778 76.7208
8.01898 18.6298 55.4036
3.71587 15.5025 54.4928
5.69371 12.7368 45.2724
5.33015 14.6456 32.9144
3.23386 9.05302 45.839
5.20761 9.6993 23.2773
5.32297 16.3658 38.2667
3.51721 10.3158 36.1253
3.28285 7.63365 21.524
2.10937 10.6503 52.4287
5.67816 12.6061 33.1175
4.0063 13.469 27.599
1.9276 8.40095 44.5078
4.59313 12.5123 36.8798
5.46832 18.4763 60.9425
5.61918 13.0484 29.0345
4.13087 11.8788 47.4539
5.90841 12.8077 32.7766
6.15226 22.0574 70.3033
4.12641 12.1069 37.1804
3.14762 12.0526 40.2249
3.60875 8.06021 38.3275
5.06133 10.3023 26.1921
2.52711 5.75377 18.8158
2.51805 9.30176 28.9848
4.57398 13.3039 37.9126
3.64139 7.70252 34.2076
6.41668 14.2424 33.3838
3.93321 12.2996 26.9051
2.56272 8.51285 23.8335
1.62201 4.56917 20.9998
2.64301 11.2204 34.0604
2.42793 5.40407 35.2573
6.77947 18.6997 42.6419
3.92451 8.64406 35.6418
3.12843 3.07834 19.6149
4.5321 9.54263 27.3658
2.83685 4.38548 21.6655
4.62988 12.4891 25.0527
2.23871 3.99454 32.7949
6.24637 15.1676 23.7185
1.64459 11.2809 47.8765
7.56858 17.7953 41.5248
3.62179 10.8586 40.9767
4.37522 14.1592 29.3466
2.00142 9.87958 38.3008
5.24864 9.30813 34.7508
5.47873 18.4663 42.6157
4.11466 9.50236 23.2851
2.80582 13.0675 44.5012
2.07967 9.92535 48.0932
5.28329 10.9022 51.1844
4.8541 11.7135 23.5536
3.40836 12.2435 39.2027
3.52462 11.2838 27.3947
3.08423 6.97695 21.3751
3.30926 9.02026 24.1338
1.54781 6.5955 35.3023
5.30807 11.6288 19.7146
1.60271 7.72963 33.8416
3.60088 8.21943 26.5796
4.16041 14.0336 36.6592
2.66744 11.0134 39.4985
3.39128 12.8739 48.3983
3.81677 10.765 33.5569
3.05027 12.2053 59.4208
5.07446 11.4823 27.4196
2.4034 7.83191 39.2496
3.42158 16.9256 54.6562
4.0363 10.484 36.2961
3.91632 15.2069 42.8078
2.81343 6.08119 26.5552
4.29811 16.8609 42.2876
3.07438 12.4645 40.4078
3.4953 13.0382 55.132
5.52166 12.6951 51.53
4.05226 9.78859 24.7162
2.22335 5.17659 16.4048
1.37908 4.82103 22.4769
2.76534 10.6802 36.4633
4.92163 10.893 35.5852
4.83309 18.8192 57.8998
4.3313 8.69353 49.5694
5.21273 13.5245 30.7658
3.72051 11.2608 23.2133
3.17299 14.9804 61.1792
6.90951 20.2252 50.4851
2.97643 10.3935 47.3352
4.36441 7.57373 29.8148
3.32033 7.08429 17.2391
2.96518 12.5521 31.9837
1.99482 7.04604 34.944
3.46226 11.2003 55.873
4.41279 12.0216 23.4601
3.44774 11.8074 30.7308
3.12534 12.7893 33.6552
2.07021 5.47784 20.1152
2.11405 11.2575 35.7631
3.43467 9.71933 40.2257
3.46211 10.0377 42.8744
5.14103 10.0671 33.7588
3.80031 9.39469 22.0414
2.93127 8.49765 46.597
4.8348 18.7424 54.4132
4.43763 9.08384 22.5823
2.04679 5.43808 22.4765
3.52033 9.32242 33.9243
3.11334 11.1869 25.5559
1.52363 6.3505 28.2332
3.96694 16.306 63.9888
5.01894 12.806 44.6148
3.2311 8.37542 40.9749
3.30119 7.84574 38.9988
4.0748 9.08269 15.2371
2.3272 9.32568 34.4567
3.41085 11.448 33.4379
2.51873 9.91956 36.041
3.5856 6.60714 19.3206
2.01625 9.27164 33.7828
3.90492 12.129 45.0062
3.61973 12.7527 54.4558
6.63798 16.0977 33.0065
2.88667 13.0274 34.7453
3.14292 10.659 54.5082
5.29098 11.3262 24.8343
2.97586 12.226 46.854
3.84791 6.85271 26.1082
3.00268 9.80363 46.2487
5.18915 19.009 25.0948
2.45373 14.7849 50.76
3.58082 7.92152 23.035
1.82715 10.8511 35.5136
2.49967 6.27861 31.3495
3.68031 22.7575 71.6058
4.94183 6.37788 17.8774
2.76693 11.2601 57.4331
3.51872 11.7144 58.5273
6.45535 16.6082 38.7617
2.93488 7.52226 24.5332
1.07982 5.46485 13.5366
1.56788 7.83022 27.6271
1.32287 5.61317 30.6264
3.26792 12.2247 60.2856
5.88956 14.4491 50.069
4.28684 14.0897 54.1003
3.58238 12.0894 35.2857
2.53108 4.65588 32.7159
4.30932 15.188 42.2663
3.3356 12.835 51.433
5.3955 10.0425 21.6264
2.54763 8.2779 27.4647
1.85707 9.573 42.3697
2.48213 6.6634 20.2384
1.70957 9.38499 25.7033
1.80972 8.67623 54.9132
4.20251 9.71406 41.9235
4.57254 21.7792 36.4453
3.03925 5.86245 23.5392
2.22569 9.70282 31.1349
2.92576 7.74501 32.2134
3.1641 7.25312 32.0072
2.885 6.08351 16.4524
2.16885 11.7093 39.5362
2.85128 9.48026 26.823
2.98412 10.2256 35.7442
3.1364 13.7764 61.1267
4.52968 10.1268 35.0034
3.08126 7.41426 36.4458
4.48058 9.05576 40.9841
3.10513 10.0508 25.204
1.67824 4.99381 31.4092
3.01319 7.14648 16.7881
1.68729 7.30287 23.9205
2.59013 9.92996 37.4777
3.50536 11.8969 54.3479
5.5063 13.5386 43.2663
3.15798 5.02317 13.3252
1.97801 8.14677 61.7016
6.58371 17.8491 43.1347
2.83414 5.72671 17.2278
2.54113 10.4105 45.4223
3.43327 13.2931 58.4793
5.26858 7.25037 25.794
3.09711 8.21837 28.4893
3.90505 14.3857 55.6547
4.67531 14.9324 22.087
1.98075 10.8651 44.7365
3.87717 5.88227 17.2755
1.22139 5.22659 51.9363
5.58165 12.1835 26.711
2.59188 9.45043 37.5179
2.99151 9.72967 55.4845
6.3248 14.9843 37.1574
3.79654 12.8794 39.0988
3.46326 7.42083 20.0507
2.42434 11.5817 38.8678
2.27398 5.50989 27.0183
2.19155 7.53235 17.9828
1.49579 4.28511 17.868
2.48663 12.7237 39.0558
3.07103 7.68358 25.9237
2.04024 3.52883 26.0754
4.17571 14.627 38.9049
1.42912 4.69608 28.6387
1.85202 6.07594 19.0095
1.68835 8.58155 29.9093
1.93372 5.13228 22.7931
1.54377 4.57806 29.8258
3.23596 15.4663 41.8342
2.54721 10.488 28.7992
2.55595 8.41388 64.286
4.57019 12.2142 31.2373
2.65779 10.2938 53.9162
4.40555 13.8123 39.8006
3.19565 7.77331 23.9492
1.67784 8.64852 29.2828
2.54465 9.01841 27.1062
2.21474 5.36606 23.671
2.83509 3.4466 13.3693
2.4017 6.88876 18.9078
1.81098 8.35991 26.1306
1.94373 6.55434 18.2652
0.918435 5.53773 16.638
0.907719 2.15248 16.7417
1.8736 8.32293 30.7861
2.12239 7.1374 37.9998
2.32982 9.7727 58.2673
4.67988 13.9421 32.5748
3.13709 7.21911 35.4038
3.3988 10.3733 32.9312
2.4853 8.77429 21.5893
2.14083 9.6478 38.3546
3.55543 7.89877 24.4115
1.88083 5.88421 18.2293
1.42988 6.93002 33.7436
3.33585 9.72031 29.5095
2.42928 4.84075 17.309
1.99996 8.17824 40.2785
3.25632 10.5452 35.8138
3.07962 7.73233 22.7307
1.29653 3.85089 17.0406
1.79243 11.0004 41.7138
3.27709 10.6511 27.4475
1.34237 3.43861 21.3289
1.9348 3.61466 17.8281
2.26421 7.80637 32.1128
2.30557 10.6543 60.1436
5.02776 12.3354 33.5402
2.10302 11.4518 36.4605
1.92944 7.64861 41.9388
2.96631 8.20345 23.0225
1.49153 5.21846 44.6843
3.01313 9.91874 24.9021
1.47183 9.75337 46.5376
3.78863 11.913 40.1085
2.47019 7.00839 31.6744
1.61199 7.2277 33.7137
2.45006 7.41837 23.9119
2.20968 11.8793 45.5738
3.13105 12.5421 28.9132
2.58978 9.09711 60.923
4.33575 12.6637 27.0745
1.47653 8.92967 35.1023
2.9881 12.5786 57.7017
4.10891 13.5483 32.969
2.66652 8.33806 29.553
2.99077 10.2799 29.8826
1.64774 8.63795 44.1944
3.80373 12.4191 35.7138
2.62411 8.33569 43.0635
4.08443 5.97766 21.5255
1.45744 4.77142 46.319
4.62424 9.06941 21.5465
2.36048 5.02759 33.0933
3.56746 14.8117 24.1959
2.08353 10.5638 54.2473
4.63169 10.4217 29.6724
2.83213 6.97009 32.3025
2.33237 8.37423 16.2897
0.798686 5.46307 16.1026
0.87238 7.37121 31.303
2.58062 7.76735 51.5324
3.70285 7.20682 21.7155
2.59793 19.7867 83.3385
4.54818 12.1883 35.2991
2.55054 6.40239 49.4618
3.00758 11.9554 31.8655
2.59805 5.87803 33.8658
3.0582 10.8718 35.8644
3.36766 9.13793 30.9092
2.46925 10.7376 42.7266
2.72709 11.7175 31.3345
2.78232 3.78193 14.7315
1.64806 6.6088 26.4046
2.22027 11.0605 44.2355
3.53464 12.8185 56.1913
4.1802 11.9566 38.2757
2.37579 9.84702 25.8299
1.71898 8.76855 24.0831
1.78 10.0336 62.5451
4.50123 11.1793 23.2773
1.63994 6.77488 32.0609
1.90925 14.904 58.4795
3.94032 6.19639 20.3544
1.43788 10.227 49.1565
3.92083 8.55929 50.4018
5.01479 16.6891 38.7818
1.92907 4.7684 36.2474
3.31316 12.4128 43.4971
3.29628 9.43785 31.8163
1.77405 8.9553 37.1997
2.25726 8.71991 29.7896
2.72164 8.00634 23.2637
1.3666 5.73283 37.6938
2.25579 12.408 38.9913
3.12328 7.06139 35.4802
2.96315 9.15489 28.7356
1.65226 5.77623 32.5968
2.75005 6.96732 26.4731
1.69635 7.31306 39.2579
3.22027 7.14496 25.6099
2.2584 7.80572 31.6738
2.94278 6.26408 23.4223
1.90485 6.76591 19.5466
2.15983 6.97189 65.2309
4.88587 17.5356 44.7659
2.97775 8.75794 17.7558
1.27541 2.65772 24.365
1.84797 9.03006 30.6134
1.80935 8.88741 35.7011
2.48549 9.41016 31.6134
3.02368 11.2979 49.1706
3.56283 8.76239 19.9539
1.6756 7.66768 42.0709
3.45779 10.8456 42.4159
2.67501 8.63158 35.7798
2.36474 5.01659 25.133
2.34427 8.55438 26.3697
2.43993 6.37306 29.5046
1.49407 7.29102 41.6613
4.12112 13.3748 30.2397
1.46779 8.92386 24.609
2.14843 4.63433 22.2857
1.66239 3.43917 20.3237
1.67665 6.94297 13.912
0.986455 4.55119 20.4144
1.75753 4.0017 16.9642
1.46718 8.98007 54.8223
3.44041 9.10198 52.2076
4.15702 14.3049 24.4465
1.49618 5.99532 57.406
4.05572 11.2624 23.2556
2.62682 8.4915 32.6076
1.42556 7.31339 18.6137
1.8289 6.79003 38.7082
2.08466 8.81263 30.3623
2.56906 5.33972 21.3054
2.02327 10.1736 28.9609
2.1915 6.2698 19.7595
1.34963 5.57693 50.5758
4.40473 18.6219 67.1096
5.58922 13.9517 68.3152
4.40542 11.7698 49.2499
4.40078 16.7269 45.9509
3.35066 11.0275 28.4785
2.21311 8.06248 47.0612
3.93376 17.7667 45.6112
2.82984 6.42284 30.4693
2.65362 6.79599 42.8385
3.52945 9.73348 16.7789
0.766192 4.77251 35.0751
2.98769 8.73809 23.2987
1.87336 7.68274 18.9326
1.57659 5.40585 21.5345
1.7919 7.90874 53.4482
4.72528 11.3385 38.5039
2.56769 6.91409 17.2014
1.46991 4.79655 29.1498
2.39545 7.99096 24.003
1.4388 7.25791 22.7217
2.24543 5.34577 25.5181
2.1457 6.31649 45.2188
3.64759 11.7997 29.4969
1.76544 5.11248 13.5882
1.34244 4.77078 37.1229
2.63171 11.6903 25.0575
1.3615 9.29202 45.4962
2.99074 10.1895 37.5013
2.01436 8.26862 30.1606
2.67125 7.44459 38.4183
2.89453 6.96093 47.2182
3.47995 12.2159 48.0187
2.57216 9.55031 36.3606
2.02649 10.4566 43.3661
3.2105 12.7195 23.3101
1.62199 6.09129 35.7329
2.76287 10.5297 29.1991
1.86196 2.97956 22.5535
0.886324 11.7749 40.3582
2.7839 6.35349 24.6488
1.87343 7.66613 33.943
2.30752 8.96765 36.1117
2.50556 8.2782 29.7924
2.89877 12.1081 56.4275
3.24794 7.19955 30.4533
2.21212 9.79702 35.4241
2.455 7.1031 38.017
2.45794 7.8743 32.8254
2.14807 13.1688 31.7063
2.709 9.54972 43.9282
3.98468 8.19106 35.8261
2.95081 7.11934 32.1652
2.8755 7.71021 29.1067
1.50805 8.62794 35.4347
2.61562 7.91351 57.3723
3.70562 15.963 57.6446
5.14458 8.15239 25.6636
1.76208 10.7133 49.7735
4.12192 6.57205 41.3872
3.86886 11.0319 27.115
2.24599 8.66146 24.7631
1.84421 7.28039 24.4765
2.21092 9.46778 31.4848
2.30986 11.8236 49.4108
3.02975 6.89209 27.7767
2.57023 5.83347 23.255
1.39875 9.8135 50.3756
3.27523 6.80681 26.1661
2.80947 2.93505 18.2988
1.65551 6.30427 25.835
2.727 10.3431 37.1284
2.87591 6.2716 36.7644
2.5897 11.7382 33.1413
2.2957 7.34202 22.6888
1.85863 9.21161 41.3068
2.56708 8.68143 36.9533
2.9714 9.52143 27.6205
2.31995 6.17917 34.1861
2.59471 11.743 52.5188
3.67966 12.1803 38.5455
2.32132 8.25723 38.2077
2.13421 9.7243 39.9754
2.03767 6.55832 27.8549
1.55882 13.8337 37.6597
2.42458 8.11904 38.9078
2.74956 6.2754 35.036
2.92919 7.31474 26.9673
1.66027 6.79464 24.691
1.53864 8.0051 24.319
2.22543 8.97519 48.368
2.98719 5.856 23.8999
1.24391 6.90485 21.3983
1.54706 6.12749 27.0973
2.12141 5.83825 34.1725
2.01987 6.51335 24.9345
1.50921 7.09227 33.7051
2.37245 5.41534 27.8187
1.85518 14.0401 33.6876
3.21605 6.62439 26.9926
1.77118 7.79058 23.0725
1.79752 9.0122 32.265
2.24859 10.4522 32.7441
3.26706 4.20151 17.1197
1.44877 12.1006 55.5012
3.83658 6.72861 21.9141
1.98112 3.66477 32.978
2.93298 10.6201 46.4728
3.04113 13.2673 55.1856
4.3782 0 0