# pn-170911/RbIIR-46-AMC2-1280-1959.psd
# Power spectrum* (dif=0,1,2) (really just |FT|^2)
# NOTE: only the first half! (symmetric)
# weeks: 1280-1959
# 474 clock-days, 72 excluded
# PSD: 1441
1425.86 0.14953 0.0517075
43579.2 0.534878 0.0918687
382030 8.26231 0.0996817
20345 0.660314 0.1006
31639.7 2.27931 0.107796
5882.08 0.547544 0.105145
4966.85 0.753242 0.0992285
2982.59 0.528226 0.111736
2493.09 0.568562 0.0991621
1809.4 0.494869 0.106517
1574.67 0.556932 0.103862
1197.13 0.514789 0.100395
1076.07 0.551094 0.0998989
947.773 0.599914 0.107689
895.247 0.645722 0.105167
723.889 0.621392 0.10563
665.682 0.647299 0.107836
695.35 0.785763 0.108296
619.824 0.720939 0.11123
558.301 0.758428 0.0997786
540.421 0.899999 0.099024
476.165 0.860882 0.0969686
509.692 0.989904 0.1069
459.038 0.944363 0.10914
538.861 1.21027 0.107318
486.197 1.2119 0.111797
490.2 1.38475 0.104252
476.641 1.48857 0.107709
445.698 1.52605 0.105488
458.256 1.66275 0.11563
421.323 1.61376 0.120788
425.694 1.74131 0.105117
485.629 2.33078 0.113864
441.108 2.09976 0.116289
448.598 2.27684 0.114744
424.939 2.35888 0.117348
441.853 2.63648 0.12094
419.064 2.56751 0.129135
455.851 2.87144 0.124804
451.616 3.12285 0.121015
466.455 3.3993 0.13169
441.673 3.23974 0.124403
495.461 3.86757 0.140588
465.234 3.85503 0.14158
455.956 4.06288 0.143756
425.053 4.03824 0.140927
462.223 4.51469 0.160588
475.137 4.73771 0.158717
492.527 5.28853 0.161122
482.762 5.27046 0.15714
452.385 5.18914 0.167058
527.135 6.25597 0.175923
480.705 6.11244 0.179022
498.209 6.56879 0.17971
513.108 6.8285 0.194111
430.646 6.06995 0.192393
446.681 6.50186 0.206695
428.03 6.49414 0.208754
436.939 6.86301 0.205161
480.772 7.70745 0.230504
435.649 7.23415 0.240773
428.906 7.4472 0.233118
401.778 7.15678 0.223088
425.402 7.64475 0.256861
435.121 8.23409 0.252087
459.346 8.85789 0.294337
481.371 9.8422 0.297872
428.681 8.82148 0.266894
442.136 9.78241 0.331887
398.079 8.75693 0.302929
401.175 9.03328 0.324043
388.921 9.24417 0.333712
471.993 11.3022 0.361816
426.685 10.6239 0.347139
398.796 10.0632 0.352532
419.559 10.899 0.410404
426.048 11.4767 0.423034
415.975 11.4891 0.447548
384.428 10.8958 0.383876
396.107 11.4925 0.442083
377.621 11.4095 0.431628
375.011 11.3397 0.444731
391.34 12.5043 0.490645
370.278 11.6754 0.46079
371.161 12.279 0.500378
348.869 11.6368 0.51059
314.983 10.8221 0.476141
361.456 12.673 0.537113
352.297 12.718 0.552342
359.408 13.3444 0.589603
323.999 12.1069 0.551844
375.023 14.5592 0.657832
373.314 14.7519 0.679374
320.996 12.7186 0.613279
324.451 13.2028 0.629585
317.996 13.1538 0.650984
478.107 20.7764 0.954688
307.743 13.2986 0.65915
303.703 13.3903 0.701588
317.16 14.5657 0.769346
278.044 12.8817 0.703702
268.905 12.8879 0.717467
335.144 16.3832 0.930603
288.15 14.3526 0.806418
275.604 13.9927 0.777501
274.382 14.1041 0.782585
274.451 14.4178 0.830793
258.336 13.828 0.790076
260.312 14.2131 0.890042
238.306 13.3798 0.818404
270.863 15.2552 0.95785
235.946 13.6418 0.874846
239.386 14.1975 0.873168
251.672 14.8596 0.989621
290.173 17.4484 1.13737
252.456 15.3784 0.980378
222.994 14.0293 0.990088
242.84 15.2802 1.05675
235.972 15.1608 1.07658
217.408 14.5126 1.05794
252.351 17.137 1.26662
238.435 15.9557 1.18027
214.857 15.1166 1.14189
215.31 15.2666 1.13069
229.174 16.5064 1.24664
227.175 16.7993 1.27937
244.628 18.2415 1.44589
217.177 16.0353 1.32472
228.923 17.5461 1.39521
204.161 15.7711 1.28541
215.461 16.9611 1.41675
219.683 17.7768 1.51625
228.135 18.3292 1.55955
218.059 17.6923 1.5664
196.054 16.3201 1.46348
201.171 17.0496 1.50676
182.071 15.6812 1.46041
198.413 17.3702 1.61573
201.233 18.0512 1.62823
187.069 16.9211 1.54096
182.175 16.989 1.60989
202.915 18.5971 1.81148
165.844 15.5327 1.49203
187.972 17.6578 1.75748
176.717 17.6134 1.80663
185.076 17.4496 1.754
165.677 16.6974 1.74516
177.105 17.9001 1.84309
173.179 17.9305 1.91428
167.938 17.2174 1.85149
182.488 19.1068 1.96839
170.039 18.3144 2.07122
162.235 17.1519 1.91138
148.531 16.1214 1.80065
158.438 17.5264 2.00328
158.163 17.5357 2.06867
179.975 20.3689 2.33611
171.908 19.7686 2.31937
155.682 17.848 2.08829
138.853 16.264 2.04047
157.243 18.6757 2.33093
166.711 20.2888 2.53435
155.202 18.5648 2.28484
140.8 17.3901 2.18433
142.471 17.7335 2.23078
152.47 19.2033 2.52426
132.194 16.7495 2.19429
162.568 20.5257 2.72659
152.904 20.3848 2.74718
141.842 18.6872 2.52986
134.359 18.2192 2.50914
142.143 19.2739 2.61294
142.953 19.8533 2.7662
138.742 19.3192 2.77991
134.537 19.1063 2.70173
136.123 19.727 2.77555
127.349 18.2483 2.67141
123.003 18.069 2.66065
122.073 17.7124 2.6688
132.422 19.8558 2.9923
139.75 21.1042 3.25248
126.101 19.2471 2.93999
120.547 18.8864 2.94952
124.375 19.0431 3.03435
120.385 18.9435 3.04962
121.484 19.6002 3.2027
128.184 20.6702 3.31002
108.712 17.5898 2.93554
122.58 20.0058 3.3099
122.383 20.2153 3.36163
121.318 20.347 3.4587
115.666 20.1837 3.59653
213.62 36.442 6.11253
112.717 19.1625 3.37692
116.901 20.4571 3.62902
108.853 19.2076 3.38045
114.111 20.0156 3.58751
116.777 21.1531 3.75946
130.625 23.9851 4.45097
104.713 19.1572 3.54958
107.586 19.5552 3.64469
113.634 21.4224 4.04642
104.79 19.89 3.75652
98.9219 19.3785 3.84642
124.95 23.775 4.56697
109.516 21.2283 4.1807
106.733 20.3847 4.01424
94.2761 18.8035 3.76935
99.1358 19.9007 3.9686
101.793 20.8333 4.29935
101.319 20.3184 4.19646
99.0768 20.3874 4.13529
97.0863 20.2708 4.25315
105.661 22.4703 4.85769
92.9526 19.2229 4.03309
92.6597 20.6388 4.49236
104.152 22.7253 4.9207
104.41 22.4891 4.82169
94.3697 20.7678 4.67585
102.774 23.1569 5.26814
95.2453 21.1542 4.83616
88.9939 19.8187 4.43784
101.743 23.688 5.44566
98.563 22.2702 4.95505
88.946 20.3898 4.76889
84.4082 19.4499 4.65924
89.4293 21.0735 4.95772
87.4157 21.193 5.22195
96.3687 22.9727 5.58675
92.3834 21.7208 5.17507
83.2389 20.3309 5.02152
82.9228 20.5864 5.14162
87.4661 21.4415 5.3454
91.6779 23.1563 5.93283
95.3378 23.7506 5.91533
77.8179 20.1427 5.23681
82.1154 20.8226 5.32845
80.2613 20.623 5.42802
85.6019 22.0635 5.71259
79.4965 21.3064 5.78798
83.4802 22.0103 5.76701
77.0573 20.5232 5.48105
82.0763 22.1454 5.91008
76.8632 21.1879 5.9755
82.017 21.955 5.90437
75.6398 20.6384 5.76512
82.883 23.2908 6.54865
74.6716 20.7115 5.85022
80.7486 23.1405 6.66532
72.9589 20.7955 6.00111
78.381 22.5601 6.44786
75.6653 22.2579 6.63213
82.7596 23.9603 6.91647
74.8784 21.7317 6.45836
77.9198 22.4539 6.47465
74.844 22.3108 6.69433
71.5421 21.9737 6.54006
72.9299 22.5314 7.06594
74.9028 22.7482 6.83037
70.9202 21.5714 6.72559
73.1878 22.7935 7.22491
75.4532 22.8434 7.11725
75.0478 23.4539 7.39808
78.9745 25.2017 8.11557
71.6419 22.6449 7.26841
69.8163 21.7022 6.93921
69.6587 22.8778 7.45735
66.54 21.8283 7.23812
64.2199 20.8858 6.92608
68.1024 22.5043 7.54881
81.169 26.7453 8.82617
63.1703 21.3418 7.37594
71.6449 24.5529 8.42852
64.1533 21.8056 7.6038
74.8741 25.4543 8.53496
60.6863 21.8065 7.98574
66.1488 22.6347 7.8226
63.7087 22.373 8.0216
63.879 22.5149 7.85695
66.0156 23.4791 8.28582
64.2917 22.9079 8.27226
64.7939 23.636 8.67938
69.2205 24.8236 9.0108
56.7331 20.7788 7.80127
65.2902 24.6309 9.19449
57.7568 20.4914 7.57006
57.2313 21.385 8.37298
58.7453 22.7638 9.42678
136.929 50.5314 18.0755
58.7867 22.0934 8.25983
49.8418 19.5829 7.84608
57.4024 22.848 9.22753
59.9465 22.6412 8.9183
65.0712 25.4204 9.86744
60.2287 23.6142 9.51249
60.8142 23.746 9.44889
56.5874 22.5014 9.04872
60.68 23.6098 9.42486
52.9325 21.3722 8.77033
57.6483 23.223 9.61916
62.7004 25.4073 10.1763
58.1206 24.2374 10.1273
59.8853 25.4042 10.7148
55.4324 22.6716 9.41413
56.5731 23.7647 10.0257
57.7967 24.0176 10.129
59.2097 24.7415 10.504
53.6147 23.17 10.0073
54.8094 23.6508 10.1818
54.2889 23.578 10.4663
56.9776 24.7384 10.766
50.0639 22.0224 9.79881
56.5358 24.2724 10.5407
50.8646 22.671 10.2279
51.6223 22.962 10.212
49.9779 22.7095 10.4332
49.9191 22.2281 10.0696
53.3961 23.6843 10.7609
46.659 21.137 9.75335
53.1782 24.7341 11.4731
48.0834 22.7393 10.6831
51.3732 23.9235 11.265
51.1953 23.6622 11.1377
49.2578 23.7252 11.4714
48.2215 22.1249 10.3484
48.8144 23.0892 11.3009
44.7849 20.9774 10.3137
46.9988 22.0796 10.5825
48.5614 23.3165 11.4592
51.3467 24.6141 12.0283
50.0713 24.5626 12.3247
49.1797 24.1227 12.108
51.1956 25.6847 12.8838
53.1261 26.3525 12.9496
50.0093 25.5205 13.0056
50.5174 25.7088 12.8164
48.6659 25.3286 12.9315
51.2889 26.5526 13.6843
45.7917 23.5158 12.1027
46.4351 23.94 12.4608
46.9979 24.0206 12.4956
47.8041 25.7838 13.7242
46.0555 24.3708 12.9205
46.4205 24.7601 13.5233
46.1787 24.2879 13.0897
46.3727 25.0481 13.6271
44.4773 23.8423 12.9663
48.0408 25.8773 14.0296
44.7841 23.8771 12.8437
44.0732 24.344 13.6036
46.7217 25.1347 13.9123
43.2315 24.4236 13.8445
45.5347 25.0973 14.0335
45.3012 25.1774 14.141
43.0863 24.1372 13.559
42.5774 24.1802 13.7794
45.6696 26.2941 15.4578
44.2796 24.4959 13.9181
42.5624 23.9291 13.7987
39.1724 22.5886 13.4642
44.8129 25.2937 14.3988
41.8723 24.0484 14.1446
40.4578 23.9382 14.5092
42.1766 24.2699 14.2398
43.7913 25.8955 15.5114
40.3951 24.6495 14.9568
43.9965 25.4481 15.1798
40.1463 24.6991 15.3831
43.1618 25.4588 15.3224
39.504 24.476 15.1288
40.1517 24.2831 15.0546
38.8328 23.2897 14.3758
43.2749 25.9919 15.697
38.5316 23.9497 15.0252
36.958 23.1014 14.8089
38.4546 23.0979 14.1389
41.3176 27.0099 17.2877
37.3688 24.0347 15.6805
36.772 22.8057 14.3824
39.1136 24.798 16.0685
39.1389 25.0029 16.299
40.5011 26.0686 17.1173
41.1274 26.2524 16.8888
35.5842 24.2042 18.0013
77.3083 50.4848 30.2438
35.592 23.128 15.4452
38.2534 24.8881 16.3707
38.4859 25.3991 16.6893
37.887 27.0432 18.6845
34.2485 22.9485 16.019
39.4713 25.9655 17.2694
37.4832 25.1391 16.9956
36.4821 24.8522 17.1703
38.0421 25.9922 17.746
35.1858 24.0562 16.6807
35.1292 24.8552 17.6538
35.0909 25.0677 18.2615
39.4345 26.3535 18.0687
35.1012 24.88 17.9386
35.4731 24.4166 17.3229
35.4669 24.9425 17.8004
37.8219 26.7704 18.9197
34.6899 25.2849 18.6178
37.6668 26.5575 18.826
34.3952 24.5283 17.4234
32.1316 23.7033 17.6218
31.6062 23.2324 17.5328
33.4936 24.1425 17.8845
33.2444 23.8319 17.2984
34.1913 25.1565 18.4975
31.9517 23.3027 17.1781
30.7403 23.1431 17.4996
29.2129 21.1758 16.1759
32.9809 24.4268 18.3361
30.1278 22.3675 17.1689
29.9425 22.4023 17.1295
31.8011 24.5595 18.9703
34.4143 26.2526 20.1166
32.0054 24.1765 18.7649
28.0567 21.4499 17.1777
33.0379 24.3256 18.5098
31.3763 24.487 19.4059
30.3968 23.6615 18.834
31.5623 23.7787 18.623
31.1295 24.7476 19.9464
31.9284 25.2874 20.4024
30.7352 24.3874 19.7862
30.2324 24.293 19.486
31.2074 24.2606 19.462
30.0121 24.5519 20.263
28.6923 22.476 17.9323
27.0389 22.22 18.7816
31.3968 24.8957 19.3818
27.525 22.702 18.5844
30.5135 25.7234 21.5467
28.4625 22.6274 18.4589
27.5329 23.0176 19.0419
27.9416 23.1617 19.3984
25.5129 21.4359 18.1401
25.1438 22.1657 19.4705
27.9866 23.03 19.7292
28.5065 23.8517 19.8853
28.2317 24.2463 20.8976
27.6388 23.4689 20.151
26.1743 22.5273 20.1225
26.4857 22.7624 20.0921
29.0893 24.7647 21.2938
26.3404 22.1792 19.2782
27.5909 24.2838 21.2162
26.5299 23.1392 20.9421
27.6688 24.5149 21.5195
25.913 22.2104 19.4303
25.7511 23.8443 22.5493
26.7402 22.6748 20.1696
26.0559 22.531 19.8382
27.7795 24.9465 22.442
26.7948 23.755 21.614
26.9519 24.7575 23.0224
26.5153 23.6781 21.4956
25.907 23.7332 21.9182
24.9416 22.5724 20.8161
24.6796 22.6702 21.4735
25.802 23.3936 22.3078
26.5554 24.088 22.3298
26.8528 24.3788 22.2223
25.525 24.3586 23.5773
24.9783 22.389 21.2951
26.0246 24.3523 22.9073
26.5768 25.2743 24.159
24.9257 22.8603 21.4632
23.4984 22.3036 21.2183
23.1765 22.1 21.6193
23.2459 21.5377 20.7764
23.04 22.3766 22.1711
22.1024 20.2336 19.5594
22.4867 21.5475 21.0569
24.4468 23.5928 22.998
24.9479 24.3298 23.5687
24.0856 23.9269 24.8006
24.374 24.9804 28.2892
49.7945 46.813 40.8754
24.2484 24.5533 24.9151
20.8691 20.5989 21.5511
22.0402 21.9623 22.3356
21.6463 21.4428 22.1417
25.0566 24.4881 24.3883
22.516 22.8906 23.9011
21.644 21.4465 22.0733
21.4988 21.1207 21.2698
21.9527 21.8855 22.4626
21.7731 22.4617 23.6137
23.9375 25.4956 26.5243
23.3519 23.9529 24.8512
22.6238 22.9592 24.0961
22.3765 22.8122 23.4105
23.0266 24.4906 26.2166
22.0073 22.7645 24.0973
20.6797 21.1727 22.9049
22.6795 23.0688 24.1961
22.8461 24.1355 25.4063
23.9168 25.841 27.5836
22.3507 23.1933 24.8678
21.3707 23.2577 25.4207
21.3787 22.7934 24.8646
21.2763 22.6014 24.7642
21.2466 22.921 24.9881
20.5267 22.8574 25.9889
21.8354 22.8131 23.9753
21.18 23.5427 26.5791
21.0395 23.0008 25.3481
20.9698 23.3136 26.1037
21.1095 22.7185 25.3551
20.1612 21.8196 24.1755
19.6503 22.0106 24.9701
21.5306 24.7058 28.3313
20.3316 21.4018 23.0792
18.9709 21.7972 25.5549
20.5694 22.2304 25.1437
20.5408 22.9024 26.0297
19.8277 22.2367 25.2798
19.9398 22.3654 25.2454
20.4436 24.1016 28.392
20.967 23.8456 27.6259
19.6979 22.3275 26.4336
20.1171 23.1332 26.8178
18.8919 22.8126 28.5556
21.5777 23.9813 27.8975
19.2823 22.6773 27.0832
18.7692 21.4176 25.0045
19.9064 23.5504 28.2428
17.885 20.1088 24.0951
19.5638 22.16 26.1996
18.8574 22.4106 27.3989
19.5134 22.7681 26.6369
18.6667 21.8365 26.5528
17.8692 20.6821 24.8467
17.3996 20.5369 25.1263
17.9285 21.1331 25.944
19.9157 23.71 28.4116
18.4139 22.5361 28.661
18.8841 22.0831 26.9689
18.8056 22.9053 28.8013
19.3896 23.1091 27.7367
18.5715 23.1652 28.5894
17.6875 21.4572 26.6341
18.2167 22.9532 28.6074
17.0788 21.3498 27.5702
18.4753 22.3012 28.0796
17.7527 22.09 28.1921
19.4719 23.2232 28.1736
17.3014 21.8688 27.5357
16.9233 22.2135 29.5068
18.3167 23.4241 30.4941
18.8118 23.1002 29.4129
17.6328 21.7374 27.2192
18.0679 23.4591 30.536
18.0491 23.1928 30.317
18.1616 23.2837 30.8239
18.7206 23.1967 29.9387
18.5916 24.1251 31.0168
18.1505 23.3336 31.2277
16.7863 21.5112 29.2923
17.8694 22.5981 28.6639
17.0216 22.0938 29.0253
16.4487 21.6792 29.6494
16.8248 20.9771 27.3825
16.7244 22.679 31.2018
18.4763 24.5528 32.4983
15.7056 21.2166 30.3297
17.8982 22.9826 30.7364
17.6146 22.9589 30.6691
15.6561 20.1252 27.4457
17.795 23.705 31.201
16.0628 21.726 30.6021
16.359 21.6087 30.5556
15.843 23.8529 42.3391
37.5748 46.0218 50.7529
17.4581 23.9866 33.3353
17.5222 23.854 32.7379
16.1293 22.3433 31.5255
16.375 22.6269 32.1365
15.6376 21.6969 31.2375
15.7324 21.3162 29.8708
14.443 19.7715 28.6374
15.7065 21.2025 29.7383
16.5033 23.176 32.8209
17.0038 23.502 32.4849
15.046 21.0601 30.1316
14.5479 21.4749 32.2947
16.5223 21.9188 29.8502
15.7649 22.1301 31.9346
14.8732 20.8321 29.5465
15.245 21.8717 31.2293
14.1242 21.0296 31.4664
14.6983 20.5878 30.3703
15.0136 21.6261 32.3133
15.4726 22.3109 32.6397
15.6454 22.3336 32.5934
15.7849 22.4375 32.5515
14.6403 21.5937 32.0401
14.4011 20.7298 31.0313
15.0418 22.2817 34.1576
14.7976 20.8041 31.3581
14.8959 20.8089 30.6685
14.6855 21.7577 31.837
13.2689 19.7131 30.5808
14.6852 21.6069 32.737
15.4267 22.1139 32.7402
14.6033 21.2945 31.623
13.407 20.1142 31.4401
14.0494 20.0094 29.7971
14.4985 21.8266 33.2046
13.9913 21.4745 33.8749
14.4792 20.8798 30.8324
12.5527 18.6814 29.0507
13.816 21.2664 34.1066
14.5521 21.3706 32.4193
13.8478 21.3549 34.3163
14.851 22.6551 35.5921
14.4433 21.4291 33.1907
14.3362 21.8585 33.6802
12.8797 19.7397 31.5547
13.9536 21.5871 33.3092
12.9046 19.9771 32.696
14.4817 21.8181 33.609
13.7673 21.3815 33.2814
13.8354 20.8388 31.8885
12.4313 20.1845 32.7746
13.5066 20.5494 32.2253
13.4604 22.0252 37.4563
14.1705 20.8929 32.3233
12.7502 19.8032 31.8716
13.0979 20.7501 33.4243
12.3895 19.3552 32.5153
13.3792 20.8524 33.4524
13.3104 20.7036 33.5781
14.0004 23.0899 37.9315
13.3243 20.8233 35.5548
14.1482 21.9743 35.1825
13.4098 21.151 34.2814
11.9023 19.0934 31.7711
12.6078 19.9627 32.0924
12.223 20.0731 33.9998
12.3116 19.4719 32.9332
12.92 20.1751 31.7182
12.0303 20.4991 35.416
12.4987 20.3644 35.7499
13.0936 21.0578 35.8899
14.1048 22.1937 35.5402
12.6396 21.1358 35.5695
11.8413 19.2364 31.8608
11.1452 18.3895 31.3014
11.203 18.6447 32.9845
12.8615 20.4017 34.0792
11.5931 19.3751 32.7994
11.9021 20.9683 36.1284
12.0612 19.7556 33.9531
11.6528 19.3137 33.9059
12.3504 21.2548 36.4294
11.3766 18.9973 34.2373
12.3801 19.9622 34.1201
11.8691 19.7685 34.09
12.0572 20.3827 35.94
12.2645 20.3967 34.7238
11.937 20.8483 36.8912
12.6045 21.5339 37.6334
12.4233 21.89 38.4874
12.0232 20.6371 38.3897
12.7377 21.3399 37.0431
11.5829 19.7518 35.9243
12.2924 21.558 40.0447
12.5587 23.5362 55.1439
26.7476 43.0003 58.8793
11.4446 20.724 37.6923
11.6425 19.1481 34.3051
11.451 20.4815 37.0136
11.2187 19.5011 35.4366
11.54 20.8215 38.7095
12.2468 20.2912 35.892
11.7019 21.1898 38.4607
10.8664 19.4982 37.0327
11.3917 18.9561 34.0206
10.9872 18.6583 34.331
11.9631 21.3909 37.1416
11.4652 20.416 38.1884
10.9341 19.4228 36.4078
11.4152 19.6528 34.8801
11.381 21.1013 39.2604
10.8822 19.9588 38.0292
11.9297 20.974 38.5286
11.3575 20.1666 37.2252
11.0675 20.1501 38.639
11.4668 20.7374 38.0732
11.2226 20.8451 39.5098
11.5449 21.1909 39.166
11.1965 20.3409 39.4715
11.4707 20.3577 38.0653
10.5809 19.3616 36.8506
10.5188 19.502 37.4631
11.2502 21.1623 39.4114
10.9899 20.2177 37.9068
11.0836 22.3283 47.4342
13.5491 23.7351 41.6877
9.87711 17.7068 34.8712
10.6535 20.4848 40.1254
10.2415 18.4147 34.2103
9.86013 19.2376 36.8586
10.0794 19.3001 38.4999
9.92979 18.1 34.9567
10.0474 18.9118 36.9798
10.3526 19.1557 35.8154
10.4278 21.2773 42.3633
10.5372 19.6001 38.8803
10.3821 19.8981 41.0528
10.7028 18.9759 35.7141
9.37 18.0531 35.7735
9.97892 19.2348 38.8271
10.1163 18.9672 36.8999
9.59391 18.7328 37.4728
10.0111 19.9268 41.4308
11.0507 20.2474 39.1593
9.7846 18.8162 37.7243
9.55041 18.7704 37.9975
9.6907 18.813 37.7221
9.52432 18.3133 37.3129
9.99966 18.9592 37.6054
9.84327 19.6607 38.9191
9.31356 17.7375 36.0643
9.44934 18.7653 38.5824
9.38677 17.8863 36.0875
9.58225 19.5971 40.5303
9.6436 19.0156 39.2403
9.92006 19.3616 38.864
9.35187 19.0284 40.2331
9.80113 18.7685 37.3205
8.90928 17.9086 37.6485
9.16964 17.998 35.9216
8.78945 18.1948 38.1782
9.08851 17.881 38.024
9.32057 18.8356 39.8025
9.52269 18.055 35.3469
8.50543 17.7507 38.5234
8.99847 17.1942 33.9624
8.60467 18.163 38.3492
8.74036 17.4795 37.3209
9.44089 18.3585 35.8054
8.36496 17.2288 36.3974
9.12208 18.9204 39.7967
8.73829 18.3147 40.3524
9.9232 19.3882 37.7122
7.9463 17.2883 38.3457
8.66609 18.1818 40.0382
9.06399 18.714 39.5265
8.71483 17.6509 37.9724
8.53785 17.6381 38.5254
8.05728 16.6086 36.5749
8.90871 17.8567 38.8463
8.93326 18.5279 38.082
8.46753 18.0049 39.4481
8.78399 18.6746 40.0355
8.18219 16.9242 37.6592
8.72698 17.7534 37.601
8.01966 17.6885 39.8872
8.66659 17.746 37.9578
8.07869 17.3429 38.6023
8.39832 17.9533 39.5216
7.75304 16.4102 38.4625
7.88276 19.617 64.9008
20.4668 39.0225 61.2736
8.40744 18.2876 40.6007
8.07688 16.9172 37.4204
7.74517 16.9553 37.3679
8.14391 17.6219 38.7232
8.19681 18.0576 40.0685
8.12857 17.4889 39.952
7.92131 17.1595 38.6309
8.09946 16.8739 35.6905
6.9853 15.6449 37.3392
8.16526 17.848 40.1865
7.60645 16.0077 36.8419
7.84913 17.1175 38.5358
7.74968 16.1525 36.8706
7.82936 16.7256 37.6336
7.96825 18.431 41.2592
8.48342 18.4868 39.9498
7.08926 15.2745 36.942
8.6121 19.6251 42.611
7.4762 16.434 39.6777
7.73735 16.8854 40.1197
8.38051 18.0467 39.3499
7.1899 16.0817 37.2322
7.10066 16.5746 39.641
8.19985 17.7033 39.9005
7.6888 17.6687 40.4405
7.0916 16.0354 39.7945
8.5394 18.3971 42.0106
8.21235 17.7273 38.8424
6.95225 15.9096 39.8389
7.68008 16.7547 38.1967
7.64028 17.4742 41.8064
8.03071 18.1562 40.7781
7.28902 16.1755 38.0854
7.33095 16.6798 40.3868
7.43563 16.7939 40.6525
7.88897 17.9572 40.8208
7.51334 16.9242 39.3356
6.84152 15.7035 38.8908
7.08133 15.2474 36.8473
7.47578 16.9093 39.1953
7.24655 15.8902 38.8532
7.40029 16.6266 39.2186
6.82865 15.2046 37.8753
7.76383 17.5419 40.2275
7.38322 16.7916 39.0971
7.13822 16.8348 40.5441
6.66123 15.6848 38.7056
7.05333 16.449 41.3442
7.09107 15.9003 37.7725
7.2004 16.1886 37.7973
7.12195 17.2297 41.1795
7.43785 17.3426 41.3466
7.1127 16.7873 41.0118
6.87917 16.0318 38.7487
6.52873 15.5009 38.1165
6.84774 16.039 39.6735
6.93961 15.1528 37.1381
7.2689 17.0035 40.5172
6.73408 15.512 37.9975
6.90994 16.6824 41.1576
6.65258 15.2046 37.5819
6.73162 15.858 39.1301
6.57649 15.2403 38.7625
7.0457 16.4529 40.4184
7.06349 16.4535 38.1283
5.97666 14.3227 37.2112
6.57861 16.187 40.6573
6.89689 16.8329 41.6367
6.68456 16.21 42.1003
6.99664 16.2436 38.9405
6.56936 16.2722 40.0495
6.23072 15.5837 41.4564
6.86891 15.0293 36.628
6.33605 16.0445 41.6828
6.84596 16.5107 39.8515
6.1946 14.8624 39.8023
6.72864 16.3024 40.8717
6.82936 16.545 42.3458
6.81943 16.5196 42.0315
6.53814 15.4398 40.1671
7.00169 16.7293 41.6228
6.56603 15.8492 39.9544
6.35418 16.1207 42.5934
6.9151 16.4297 40.4543
6.50456 16.4054 40.4776
6.38605 16.8005 43.7285
6.34741 14.8461 38.7469
6.55906 17.2931 44.4621
6.40082 15.2886 40.782
6.32214 15.4915 43.3734
6.84701 15.0377 36.925
5.91526 14.9011 40.08
6.71821 17.1231 44.0177
6.54261 16.3791 44.0906
6.66315 19.9835 77.5767
14.6414 31.7325 53.4116
6.30911 16.8429 42.2858
6.06084 16.0962 42.584
6.20867 15.4777 41.5048
6.44377 15.6597 40.9336
6.36801 15.8802 39.4767
5.48946 14.2966 40.1831
6.23379 15.992 41.7161
6.05946 15.1524 40.4858
5.84265 15.0045 41.8865
6.14211 14.7264 38.7425
5.69261 14.1631 40.1968
6.63518 16.5195 42.736
6.00643 15.0227 39.9275
5.96474 15.0132 39.7896
5.9466 15.4985 41.83
6.19717 15.944 41.4225
6.03281 15.1099 42.8336
6.16239 15.3419 44.2423
6.54938 15.3463 37.419
5.83045 15.4004 39.5885
5.51987 14.2311 38.4865
5.54133 13.9071 38.5785
5.96978 15.7785 42.0857
5.67465 15.1894 42.232
5.94276 15.54 44.0217
6.45351 15.6673 41.4186
5.98419 15.4723 40.9403
5.77065 15.5073 42.565
5.46572 13.891 38.1543
5.57988 14.6174 42.0436
5.95863 15.5529 42.0694
6.01647 15.2859 41.4399
5.72051 14.0845 38.2172
5.56197 15.0707 42.0873
5.68683 14.8598 39.0969
5.29515 13.7028 38.7663
5.41443 13.9263 39.3764
5.65941 13.9973 41.3542
6.34918 16.8385 44.3382
5.83281 14.7439 38.3141
5.17043 13.939 39.3264
5.48504 14.6521 38.4783
4.84445 12.9012 38.9374
5.77217 15.2178 41.3394
5.45124 14.5685 40.3294
5.34052 14.4915 41.9613
5.52537 14.4004 40.1357
5.31927 14.333 40.5077
5.21498 13.6972 39.7759
5.44962 14.7273 41.3709
5.50994 14.3159 39.7554
5.3208 14.2983 42.8216
5.64625 14.7059 41.6883
5.8876 15.9455 42.0335
5.34248 14.4502 43.6358
5.73377 14.6142 40.4056
5.21177 14.0259 40.6537
5.26 13.7569 37.3723
5.13346 13.843 39.2977
5.17269 14.2687 40.5358
5.36823 14.3655 42.2254
5.50834 14.7921 40.153
5.168 14.4954 39.6904
4.94866 13.7668 40.4244
5.3722 14.7755 41.3619
4.90316 13.4827 40.5565
5.02646 13.9642 40.2124
5.17702 14.5696 43.4467
5.2952 13.757 40.08
5.22476 14.5272 42.1169
5.08824 14.1903 42.8588
5.44608 15.002 43.9023
5.27415 13.4651 39.7661
5.16921 14.0337 41.3718
5.46493 14.9377 41.5299
4.94757 13.9272 39.3772
4.61084 12.6353 38.2732
4.99321 14.1753 42.6353
5.119 14.3763 42.5931
5.20863 14.7265 41.9607
4.89625 14.1086 43.9352
5.27813 13.4266 39.3329
5.19375 14.3226 41.7536
5.03677 14.0403 39.0255
4.68805 13.6823 41.2591
4.94651 14.0214 42.8949
5.04434 13.4775 38.5572
4.71886 13.2421 40.1134
4.90725 13.2403 38.7556
4.7049 13.1562 40.4659
5.10056 14.3997 43.8254
5.10465 14.1338 40.2846
4.63573 12.9781 38.9828
4.54894 14.2514 45.6237
5.05007 17.3162 87.6804
12.3912 29.9803 52.5374
4.66833 13.7348 39.4914
4.57492 13.8993 42.2836
4.99017 14.2838 41.6219
4.85635 14.0099 40.0836
4.6808 14.548 44.4838
4.79952 13.1025 40.2364
5.02864 15.0429 44.6843
4.93896 13.284 39.2113
4.52624 13.0855 41.1431
4.52511 13.1549 42.1245
4.88952 14.0524 41.3158
4.79064 13.5962 42.5041
4.90141 13.2991 40.3493
4.75198 13.1559 38.6952
4.69098 13.1312 38.5972
4.50143 12.8141 39.2559
4.39977 12.9308 40.9251
4.75015 14.5247 42.8251
4.67805 13.8583 43.6258
4.54452 12.2139 38.2274
4.58101 12.8752 40.9276
4.80547 13.7185 43.4625
4.99606 13.947 42.3514
4.77626 13.4961 40.0413
4.69061 14.5184 43.5426
4.80366 13.4801 41.7352
4.72339 13.9124 41.9851
4.56194 13.658 42.9788
4.66809 13.1045 38.7772
4.19861 12.4311 40.2052
4.47628 12.8818 40.3207
4.58882 13.6512 44.7185
4.90209 13.6108 40.3962
4.37966 13.2951 43.132
4.78422 13.7294 43.4788
4.63091 13.1879 40.6337
4.59974 13.6067 41.692
4.62796 13.1203 41.5467
4.5536 13.1989 41.8959
4.44709 12.6465 40.1542
4.50941 13.5045 41.5726
4.45832 12.8731 40.5093
4.40882 13.5444 42.2062
4.54742 12.9449 40.0844
4.27573 13.2405 43.0882
4.64297 13.8449 43.0182
4.7104 14.1688 44.7406
4.55867 13.3834 44.0171
4.64151 13.1272 40.6723
4.50394 12.7989 42.5709
4.8546 13.7806 39.3227
4.06053 12.4091 42.8446
4.57231 13.3536 41.9561
4.45721 12.8446 40.072
4.46588 13.1201 41.6365
4.45295 12.9479 40.3659
4.20045 12.8967 41.8716
4.34321 13.2807 42.3109
4.19852 12.6031 42.0962
4.56837 12.0516 38.2013
4.18923 13.1865 39.5963
3.94443 11.6678 37.4905
4.00811 13.0731 42.7462
4.41592 12.743 40.1566
4.13619 13.1407 43.1402
4.41687 13.4737 42.916
4.37574 13.0074 41.4599
4.09133 13.2863 43.3025
4.16246 12.5949 43.3923
4.57062 13.6836 43.9037
4.36023 12.8864 40.7512
4.20472 12.814 44.7281
4.68206 13.5424 42.1339
4.25785 13.1657 41.9119
4.33072 13.4338 45.0841
4.27166 12.0264 38.9904
4.0697 12.6471 40.9099
3.98051 12.3193 40.6755
4.11445 13.0866 41.7575
4.35524 14.0911 46.0179
4.26206 12.5522 43.6582
4.36821 13.0201 41.1608
4.13587 12.7171 41.9882
4.17593 13.4565 42.0839
3.96398 12.3372 43.544
4.39208 13.8672 45.8021
4.46456 13.1963 42.5811
4.11734 13.0421 42.7157
4.03055 12.4471 43.7273
4.35181 12.4741 38.9396
3.8013 12.4233 43.3358
4.26478 13.3809 40.1032
3.66509 12.175 41.666
4.1046 13.8067 45.1201
4.03385 17.0282 98.1003
10.5649 26.9129 51.082
3.95791 13.4381 43.884
4.09687 12.1356 40.2256
3.92325 12.8761 43.891
4.04225 12.574 44.3561
4.21543 12.4615 42.2481
4.28292 13.1973 41.9863
4.0524 13.3058 44.266
4.028 12.0852 43.2154
4.12728 13.0945 42.9386
4.02505 12.5978 40.4139
3.82033 11.974 41.373
4.11766 13.1568 43.9201
4.15051 13.4455 43.6813
3.94133 12.5156 42.9618
4.04856 12.9852 43.9957
3.99516 12.7325 44.3615
4.08296 13.301 44.5403
4.11194 12.7968 43.2417
4.04329 12.7411 43.0281
4.08908 12.1786 41.5512
3.92429 12.4347 44.019
4.08214 11.9609 40.4116
3.84346 12.5459 42.6849
3.91483 12.4693 42.7132
3.97591 12.522 44.7042
4.28645 13.3878 42.4209
3.85616 13.6248 47.0609
4.12397 12.8927 45.1746
4.11544 11.8373 39.889
3.74336 12.1063 42.9339
4.03211 12.682 40.9601
3.73389 12.3447 41.3957
3.85914 13.7666 48.2536
4.30405 13.5916 45.4727
3.91101 11.4343 38.938
3.77075 12.8857 42.4481
3.65812 12.5651 43.3042
3.74582 12.1853 44.5514
4.08552 12.7635 42.7154
3.9727 13.0031 42.4322
3.70064 11.9417 42.7129
3.80128 12.7076 42.7291
3.85046 13.1824 46.0512
3.96364 12.1917 42.3869
3.83337 11.7134 41.4848
3.77737 12.1245 42.7569
3.9765 12.5616 42.5275
3.84891 12.2053 42.2652
3.80686 12.9529 44.7511
4.00078 12.861 42.5687
3.61203 12.0701 44.4318
3.89121 12.1144 41.0122
3.62792 12.2098 44.7796
3.85748 12.1468 39.7332
3.60609 13.0532 46.1043
3.8588 11.7315 41.2482
3.73114 11.9585 43.4658
3.95137 12.996 45.4125
3.89945 12.42 43.955
3.73551 11.8181 43.115
3.87374 12.6021 42.2451
3.72061 12.2777 41.43
3.573 11.8688 40.7294
3.46587 11.6055 40.6064
3.45263 12.0979 43.7721
3.66362 11.969 44.9669
3.83032 11.7346 42.5994
3.85323 12.7141 41.0926
3.40806 11.5247 42.9159
3.79323 11.7252 41.4936
3.67643 11.7901 40.9767
3.56868 12.1567 40.006
3.53154 11.3777 39.1293
3.3896 12.0294 42.3254
3.35329 11.5269 43.5061
3.65905 11.6753 39.9166
3.45846 11.7195 42.9801
3.54991 12.1449 45.7429
3.92181 12.8815 46.8348
3.77445 11.3118 37.193
3.35092 12.4511 45.1916
3.61673 11.8941 43.8906
3.62117 12.3939 43.7188
3.58329 10.9695 42.2515
3.68232 11.6619 39.4181
3.46522 11.7989 43.5722
3.62789 11.9236 41.0934
3.58737 12.5723 46.3738
3.75787 11.9834 41.1155
3.3592 11.3986 44.7149
3.89806 13.7654 45.1388
3.63299 12.6029 43.1047
3.35663 11.1676 43.455
3.60798 13.1339 49.2553
3.91843 16.5736 102.519
8.95331 24.5363 48.5384
3.6813 14.5128 49.2964
3.88272 12.3877 44.9881
3.73136 12.6232 45.9808
3.75666 12.9367 44.8197
3.54374 12.1135 44.7487
3.67567 12.5256 45.7067
3.88033 12.6002 40.4904
3.26657 11.6343 42.7817
3.65379 12.2867 45.1217
3.56538 11.696 40.2321
3.26388 10.9765 40.4826
3.33967 11.4552 41.3357
3.36241 11.4824 43.4327
3.61874 12.045 43.5907
3.36303 11.3286 42.2642
3.43409 11.5241 42.0938
3.51382 12.5083 45.3261
3.61306 11.4844 39.3047
3.09745 11.3273 46.5585
3.69903 12.7807 44.9382
3.48028 11.4516 42.9077
3.6622 12.297 43.9871
3.51247 11.9951 41.8849
3.29129 11.3023 43.9038
3.53296 12.2806 42.2247
3.24928 10.254 42.3086
3.57506 12.0878 45.123
3.61415 12.1947 43.7541
3.47036 11.9419 45.679
3.79399 12.5507 47.8005
3.70616 12.1315 38.747
2.99399 11.21 42.236
3.41989 11.3486 41.2235
3.44102 12.1031 46.88
3.75155 12.0944 42.8189
3.31017 11.9117 41.3308
3.08731 10.9098 44.1369
3.57152 11.7277 42.9432
3.36809 11.7952 45.2942
3.59485 12.0325 44.9178
3.51082 11.7853 43.518
3.45914 11.6261 39.5145
3.09048 11.6052 44.5419
3.44846 11.6876 42.5054
3.49136 11.8266 42.4302
3.29758 11.7788 42.589
3.28024 11.6771 43.4938
3.42306 11.3013 43.8951
3.36149 11.6995 41.355
3.22056 11.6813 47.4002
3.55901 11.4787 42.2637
3.27763 11.8416 42.3363
3.2963 11.9988 43.2343
3.15064 10.8239 42.3357
3.33111 11.7491 42.9653
3.22465 10.9394 42.6399
3.3997 12.4323 42.7581
3.22506 10.3752 40.3122
3.2005 11.7733 47.6962
3.78928 11.5545 40.7411
3.1761 11.1851 43.2414
3.3936 11.2452 42.5754
3.51033 12.2672 45.0525
3.40756 12.5201 46.5694
3.45822 11.1129 38.9762
3.06461 10.9353 41.4079
3.23734 11.3725 41.5954
3.13303 10.7836 41.5963
3.33375 12.2433 43.4523
3.20851 10.8973 42.9271
3.13417 10.2911 41.7352
3.35277 12.0813 45.2319
3.43706 12.2071 41.445
2.98533 11.5567 48.0057
3.69199 11.779 43.6069
3.35014 11.7731 40.6404
3.06942 10.9046 44.9566
3.45988 11.5964 42.3452
3.07903 11.417 41.5341
3.16767 10.9023 41.1358
3.18875 11.1826 41.5748
3.09378 10.8533 41.7586
3.20763 10.8981 42.8086
3.28941 11.8129 44.2776
3.21336 10.7665 44.3036
3.39726 12.6061 42.9418
3.15146 10.6378 43.4078
3.22276 11.333 40.7292
3.0417 11.5588 49.7441
3.61017 12.715 41.7668
3.10708 10.8669 41.4471
3.10396 11.5765 46.279
3.44248 11.6834 43.965
3.30688 12.2041 42.0883
3.05002 17.6609 119.574
8.79358 22.729 48.2128
3.3757 12.9612 46.2725
3.32154 11.607 43.055
3.26975 11.3181 41.852
3.10058 11.2534 39.6728
2.93158 10.33 41.3156
3.04446 12.1421 44.2251
3.12476 10.6484 42.497
3.20848 11.1771 41.1949
2.97584 11.2146 44.9779
3.24074 10.3012 42.3729
3.17975 11.6312 43.6517
3.2599 11.898 44.0099
3.06544 10.8382 42.5003
3.20172 10.6586 41.4816
3.03532 11.2652 44.9543
3.23886 11.0025 40.7728
3.06711 11.5101 43.2131
3.14401 10.7649 39.6282
2.99291 10.8271 44.9051
3.3651 11.01 43.1932
3.19034 11.4503 41.1575
2.91641 10.9222 44.1711
3.30644 11.7972 43.034
3.1855 11.8377 45.4456
3.30362 11.3315 44.8897
3.28659 11.7323 42.5564
3.02922 10.3586 41.0099
3.0575 10.7298 44.0303
3.32173 10.9272 41.8715
3.23966 11.585 44.7793
3.30779 11.2036 39.5373
2.83705 11.0769 45.7581
3.26726 11.2228 40.668
2.96126 10.696 41.1674
2.91011 10.0186 41.3041
3.11463 11.4937 44.6904
3.12957 10.6597 41.4004
3.03823 11.5448 43.433
3.1607 11.2454 43.1719
3.16248 11.0814 42.0029
3.05677 10.1324 40.5477
2.97632 11.3487 41.7148
2.94892 11.0594 41.6909
2.99765 10.3119 42.5013
3.13107 10.8779 44.1114
3.07211 11.4832 40.9436
2.91025 11.4316 43.6874
3.0562 10.1747 43.1583
3.0391 11.259 46.3294
3.31045 12.4124 42.5722
3.03169 10.3475 43.6379
3.11858 11.5643 41.6545
3.09851 10.7459 44.1483
3.08965 11.2168 44.8248
3.22516 11.7503 43.736
3.04777 11.5018 41.9524
2.953 10.3274 43.4606
3.08231 10.8694 38.8376
2.81672 9.90389 40.3119
2.92529 10.9104 42.4921
3.07769 11.1608 45.3605
3.16435 10.9057 41.5069
2.87847 10.4643 43.4499
3.18739 11.6857 44.1998
3.07873 10.5423 41.1395
2.93139 10.6445 44.0665
3.14 10.8559 43.21
3.06715 11.1743 42.9286
3.15603 11.7267 44.6396
3.14384 10.9915 45.8413
3.3028 11.0072 39.6109
2.81152 10.3764 39.0246
2.74948 10.3598 40.3627
2.89289 10.2912 40.0928
2.82951 10.3685 43.1807
3.15556 11.1746 45.7457
3.18166 11.828 43.9462
3.1284 11.5811 43.9676
3.07422 11.2109 43.8797
3.03455 10.3432 43.8902
3.07128 11.7581 43.432
2.97388 11.0529 42.0602
2.86869 9.64873 42.3374
3.02809 11.1387 41.826
2.94707 10.0581 37.6416
2.79324 10.7933 45.0962
3.10912 10.4229 43.8029
3.14047 11.3107 42.8825
3.10602 10.8521 43.1465
3.0774 11.2114 41.6743
2.94315 11.0039 44.9831
3.23168 11.1966 41.9679
2.96783 10.5683 42.8666
3.01073 12.0432 42.2071
2.98346 16.9311 115.89
7.70741 20.3667 44.0088
3.00113 12.2745 44.8704
3.10648 11.8098 47.2895
3.37104 12.3087 46.0471
3.1754 11.2187 45.8794
3.14807 10.8126 45.8137
3.26773 12.475 46.0711
3.15012 10.2431 38.854
2.74797 10.9813 43.8856
2.98682 11.314 45.2941
3.20053 10.7952 38.864
2.75568 10.1859 41.9505
2.9398 11.0281 41.4802
2.92292 10.838 42.6086
3.03155 10.6662 39.9276
2.80409 11.0252 46.4156
3.17912 10.765 41.9345
2.91435 10.8653 42.2194
2.93137 10.8376 43.8477
3.01032 11.2001 45.0393
3.07898 11.7986 45.4176
3.16026 10.9067 43.71
3.06348 10.6932 43.2375
2.98382 10.9254 43.0531
2.93137 9.95916 41.2158
2.91462 11.0242 44.5194
3.12617 10.5234 39.9891
2.81346 10.6831 44.2263
3.09542 10.8726 45.379
3.22095 11.1274 41.3309
2.84837 11.3211 44.9269
3.10846 11.3699 44.5549
3.07633 10.3582 40.1517
2.87098 10.933 42.1626
2.84484 11.2428 46.3632
3.10074 11.5226 43.2739
3.00512 11.0927 45.2123
3.11532 11.0203 44.707
3.08086 11.5165 43.7208
2.90881 10.5926 40.7728
2.81117 10.3724 43.7563
3.08227 10.5785 41.5847
2.79232 10.6864 41.0805
2.86036 10.5474 43.4464
2.99123 11.1883 45.1683
3.02268 11.2227 41.4158
2.85246 10.988 47.898
3.36159 11.5703 42.9739
2.89634 11.1226 43.286
3.04418 11.0959 45.7443
3.18009 10.7531 39.1978
2.81552 9.85887 43.1112
2.94654 10.7194 43.0552
3.05269 10.8896 44.0179
2.94816 11.0821 41.9915
2.90232 10.4138 41.3019
2.92671 10.8856 45.6555
3.13037 10.8236 43.045
2.94501 11.3486 44.7066
3.08675 10.9614 46.269
3.16152 12.289 45.2794
3.09257 10.0361 42.299
2.87629 10.4398 41.6352
2.82483 10.8098 40.9455
2.84762 10.6505 43.9124
3.10206 10.9599 42.6571
2.88142 9.62634 41.2668
2.85263 11.4419 42.9214
2.97224 9.6354 42.6356
2.98627 10.8705 40.2227
2.77339 11.029 40.741
2.78931 10.9399 42.6524
2.99769 10.4866 44.6288
3.06852 10.9058 44.9716
3.09077 11.0551 45.9851
3.17632 11.7981 44.7734
3.10317 11.5492 45.3514
3.16124 11.007 43.3134
2.90682 10.996 43.46
2.9872 10.7188 46.1223
3.15306 11.6155 44.7952
3.09357 10.8915 40.9943
2.83674 11.1246 45.6605
3.17784 11.1723 42.0202
2.95427 10.7579 41.4445
2.87132 10.2722 41.979
2.86747 10.8302 43.3664
2.99143 11.0972 45.9433
3.16962 11.3436 43.5492
3.0508 11.3666 43.3008
2.94056 10.5674 41.9757
2.82681 10.688 42.7776
2.91179 11.8032 50.0869
3.45541 12.1783 44.111
2.97809 11.9025 44.6868
3.09276 20.539 140.288
8.74376 0 0