# pn-170911/RbIIR-43-RbIIF-1280-1959.psd
# Power spectrum* (dif=0,1,2) (really just |FT|^2)
# NOTE: only the first half! (symmetric)
# weeks: 1280-1959
# 2051 clock-days, 492 excluded
# PSD: 1441
681.611 0.213909 0.0308455
39871.8 0.684952 0.0500723
169327 4.60404 0.049731
26118.8 0.965892 0.0500679
104127 8.7794 0.050526
8879.71 0.839776 0.0472379
9522.42 1.89269 0.0480147
4422.43 0.86502 0.0466378
7101.04 2.1915 0.0482727
2991.34 0.885379 0.0497196
5064.86 2.25558 0.0478525
2153.93 1.06356 0.0466044
3717.11 2.32552 0.0493208
1796.22 1.23465 0.0511981
4272.57 3.88018 0.0535924
1679.19 1.57424 0.0502894
3675.09 4.331 0.0533973
1513.18 1.87582 0.0515341
3159.64 4.68506 0.0559873
1393.69 2.20303 0.0525802
3098.98 5.64087 0.0574415
1345.02 2.54794 0.0542656
2651.74 6.06433 0.0619028
1265.11 2.94423 0.0588198
2552.08 6.82563 0.0646017
1119.48 3.1681 0.0577316
2281.88 7.08635 0.0669449
1166.9 3.86614 0.0594024
2132.88 7.75211 0.0734709
1094.51 4.26846 0.0628304
1885.7 7.86734 0.0775566
1072.42 4.62879 0.0684558
1788.88 8.39933 0.0922144
1069.54 5.36083 0.0753418
1640.31 8.84665 0.0952101
1018.09 5.80073 0.0814009
1563.81 9.46228 0.105441
982.272 6.22621 0.0909652
1411.34 9.46384 0.106788
954.486 6.65368 0.0946492
1268.15 9.38618 0.113913
874.25 6.84466 0.100014
1255.1 10.3025 0.132395
881.321 7.56417 0.115437
1090.89 9.75763 0.137639
809.033 7.57181 0.121031
1036.59 10.1991 0.147575
797.523 8.11175 0.131243
963.558 10.3033 0.162209
776.569 8.62274 0.147216
898.595 10.3463 0.169117
702.461 8.42555 0.153351
798.068 10.0523 0.176094
687.994 8.89838 0.166122
741.552 10.0226 0.18261
704.703 9.88227 0.191274
746.616 10.9186 0.203694
664.145 9.91329 0.199527
733.36 11.4825 0.233438
611.098 9.78076 0.206976
659.242 10.8682 0.233977
606.276 10.4015 0.225797
625.988 11.1798 0.249326
586.751 10.8229 0.249415
595.476 11.3563 0.26691
538.419 10.6116 0.252732
554.949 11.2227 0.275559
520.54 10.8466 0.277545
556.122 11.8601 0.305203
517.023 11.3747 0.307251
521.619 11.9031 0.327688
512.39 11.9278 0.332488
490.661 11.7996 0.333462
463.512 11.4516 0.336249
486.473 12.4343 0.364289
445.877 11.6445 0.357956
451.806 12.1815 0.377713
449.689 12.2952 0.387043
445.511 12.5065 0.409414
447.766 13.0293 0.427203
428.846 12.7158 0.427761
396.695 12.168 0.419587
405.501 12.6692 0.454347
396.771 12.8945 0.460592
406.715 13.2865 0.478811
376.267 12.5425 0.477674
358.668 12.4214 0.47997
351.598 12.3458 0.49641
358.146 12.8879 0.52007
346.636 12.9049 0.528178
353.376 13.4079 0.555372
339.143 13.0431 0.540589
345.432 13.6151 0.589042
325.939 13.0686 0.586081
323.041 13.2246 0.597725
332.65 14.0368 0.654638
413.314 17.7588 0.80819
314.749 13.5993 0.649679
309.682 13.8744 0.680643
307.012 14.0182 0.695933
284.474 13.0172 0.65716
295.658 14.0327 0.718728
292.415 13.9959 0.727152
293.514 14.3932 0.760883
282.532 14.0322 0.756146
267.641 13.737 0.759749
258.809 13.3588 0.741813
263.954 14.0109 0.799203
275.509 14.8977 0.852402
257.839 14.3047 0.847442
249.808 13.9324 0.850708
258.404 14.7976 0.914529
249.021 14.4818 0.90533
239.593 14.2154 0.906291
247.965 14.9451 0.960051
231.83 14.3839 0.936744
231.993 14.357 0.952973
218.597 14.0319 0.96595
229.123 14.9175 1.02072
221.051 14.5165 1.01992
220.56 14.8016 1.04984
227.002 15.3092 1.09701
197.562 13.6911 1.01981
208.103 14.5528 1.09419
209.47 14.9691 1.13535
204.45 14.8025 1.13715
201.424 14.8197 1.15645
198.182 14.7331 1.17838
182.265 14.1292 1.13561
187.346 14.4866 1.19865
195.517 15.3557 1.26018
188.833 15.049 1.26509
180.124 14.391 1.20722
186.63 15.2168 1.31347
179.292 15.0265 1.3254
173.306 14.4315 1.29869
175.134 15.0162 1.34773
167.471 14.404 1.32336
167.056 14.7129 1.36906
170.364 15.2448 1.42599
166.999 15.0803 1.42882
160.859 14.6705 1.3996
155.578 14.4691 1.4154
160.004 15.0809 1.50248
159.838 15.3511 1.549
155.379 15.1652 1.5471
154.605 15.2642 1.56283
148.52 14.8179 1.55236
144.245 14.82 1.55788
155.206 15.8251 1.68995
147.375 15.1358 1.63941
146.526 15.2769 1.67304
146.363 15.5551 1.72523
140.97 15.1212 1.72247
141.391 15.3806 1.73714
138.989 15.3071 1.77174
132.296 14.6394 1.69958
142.084 16.2763 1.91504
131.373 15.2231 1.83022
134.793 15.7488 1.91289
130.415 15.3829 1.88763
131.558 15.7367 1.9774
130.895 15.9378 2.00425
127.877 15.6809 1.99197
127.853 15.9051 2.04342
121.254 15.222 1.98818
126.63 16.0801 2.12373
120.507 15.5714 2.08996
124.823 16.2574 2.1834
122.942 16.0643 2.19387
118.35 15.6323 2.15409
122.613 16.6137 2.3395
116.916 15.8279 2.24047
115.2 15.9288 2.28454
112.821 15.5694 2.24504
113.748 16.1189 2.37658
115.218 16.4199 2.4377
116.066 16.8335 2.50104
106.91 15.386 2.33452
110.848 16.4132 2.53802
117.025 17.5271 2.71149
108.201 16.1625 2.52266
112.739 16.9689 2.67495
109.459 16.5775 2.65518
107.094 16.4097 2.65045
104.891 16.444 2.6752
108.723 17.0259 2.79279
102.35 16.3342 2.7542
102.087 16.5815 2.80545
108.159 17.1785 2.89102
101.545 16.8429 2.90304
103.017 17.1516 3.05311
198.158 33.7872 5.77373
98.2287 16.7156 3.00202
98.2237 16.8457 3.02046
98.947 17.0011 3.03829
99.5193 17.4154 3.17418
94.4844 16.7562 3.10068
95.7581 17.1231 3.17296
94.1005 17.3038 3.26115
93.5966 17.1652 3.24784
91.61 16.8078 3.20718
92.4222 17.3407 3.34205
91.5166 17.0831 3.33745
93.0325 17.9208 3.53879
92.1267 17.7096 3.50376
91.1214 17.8622 3.5747
87.3231 17.0847 3.45752
90.8025 18.0095 3.67528
87.9829 17.5916 3.638
89.6739 17.9361 3.74556
83.5604 17.121 3.59417
87.1694 17.8939 3.80261
83.6324 17.3629 3.72535
82.3875 17.2828 3.74819
82.5201 17.6466 3.85032
83.1885 17.9283 3.95721
83.1795 17.7805 3.93124
85.5094 18.5963 4.16657
84.966 18.8758 4.26532
83.8657 18.7787 4.26409
80.498 17.976 4.14246
84.3327 19.138 4.45385
80.5689 18.4111 4.3226
83.0214 19.1364 4.52052
83.1958 19.2487 4.5627
80.0416 18.8949 4.57468
79.4568 18.6829 4.53628
77.2006 18.4766 4.57432
79.2124 18.8474 4.61925
78.7164 19.1144 4.71088
77.1571 18.8037 4.71442
78.0891 19.3817 4.91952
76.4881 18.9632 4.80795
71.7065 18.0113 4.63401
75.1541 18.9498 4.88733
72.6703 18.5339 4.81354
72.8398 18.7686 4.9508
74.7648 19.5427 5.18053
73.3808 19.1884 5.1713
74.0465 19.4865 5.28197
76.2779 20.1845 5.49954
72.4499 19.4058 5.33032
72.3505 19.6039 5.44017
74.81 20.4138 5.69769
70.1436 19.4248 5.48769
70.7398 19.4101 5.46428
71.8031 19.9335 5.64002
67.559 19.1777 5.56496
67.4952 19.0685 5.54954
70.2255 20.1502 5.87456
67.5235 19.36 5.70719
69.0415 20.0804 5.92591
65.9385 19.103 5.71307
70.1351 20.6521 6.24005
68.1778 20.3477 6.20541
67.2523 19.8536 6.01947
67.1919 20.1365 6.17541
66.5235 20.0603 6.22747
66.583 20.4697 6.34523
65.6731 20.3592 6.40668
66.5323 20.5284 6.48732
64.9337 20.1297 6.35718
64.0205 20.4244 6.62808
61.6203 19.616 6.37929
63.9758 20.4717 6.68346
65.9569 21.2872 7.01586
64.3542 20.9381 6.93131
63.5814 20.5806 6.84134
62.3717 20.7909 7.05282
60.7009 20.3262 6.9951
65.4334 21.5804 7.26897
64.8942 22.0151 7.60401
59.9429 20.2266 7.0448
60.8465 20.8149 7.25512
60.8192 21.1564 7.46325
59.8965 20.4243 7.1779
58.4747 20.3851 7.26765
61.4751 21.4665 7.65911
61.8966 21.8354 7.88432
59.3161 20.8696 7.51133
58.645 21.1975 7.77781
58.6859 21.0701 7.78371
57.3179 20.6132 7.58361
57.6228 20.6537 7.72843
58.3587 21.6072 8.18788
60.343 22.2453 8.41256
58.7517 21.9927 8.69852
127.517 47.1707 17.3012
59.5506 22.5824 8.79242
59.4951 22.1005 8.64085
56.387 21.7106 8.51977
57.2345 21.7422 8.57093
57.9552 22.5829 8.90118
55.1935 21.5348 8.63283
54.2201 21.347 8.61123
56.0592 22.1822 9.01442
56.9102 22.5519 9.17223
54.1481 21.6731 8.92261
54.5239 22.0414 9.11963
54.2363 21.7297 8.95583
54.0278 22.122 9.20406
52.5273 21.6423 9.13306
54.4489 22.4971 9.46093
52.3894 22.0812 9.46555
53.2171 22.3236 9.57919
52.2428 21.9308 9.42495
50.9441 21.6753 9.39383
51.6931 21.918 9.56969
51.8446 22.206 9.84224
51.7643 22.3589 9.86878
53.2228 23.057 10.1806
50.2192 22.0682 9.80178
50.7143 22.1785 9.92705
50.2689 22.1649 10.0753
51.2921 22.8712 10.4235
48.199 21.7027 10.0194
49.8234 22.4164 10.1744
50.5026 23.0373 10.6528
47.3715 21.9279 10.4092
50.7585 23.4328 10.97
47.3245 21.6605 10.234
46.7969 21.8715 10.3782
47.4072 22.5185 10.9649
51.2448 24.0065 11.4451
48.2814 22.6844 10.9359
48.5312 23.256 11.2107
47.3843 23.207 11.4978
49.3632 23.7124 11.5712
48.482 23.5889 11.733
49.3956 24.2565 12.0435
46.418 22.6892 11.446
48.7635 23.8012 11.8375
47.5284 23.5852 11.9222
46.5751 23.2092 11.6801
44.4905 22.7593 11.869
46.3585 23.4404 12.0093
44.7991 22.8757 11.8993
44.591 23.0001 12.0797
43.1427 22.3394 11.8069
43.7818 22.4834 11.8651
46.2384 23.9679 12.702
45.1466 23.6558 12.5172
43.2611 22.9003 12.3506
44.2108 23.4501 12.7664
46.4371 24.1392 12.8074
44.372 23.7155 12.9544
43.4757 23.4158 12.9676
42.2638 22.4572 12.1413
41.9142 23.1941 12.9919
42.7708 23.0681 12.8186
42.4421 23.305 13.0044
42.7699 23.7735 13.3817
41.0826 23.1466 13.3306
42.0181 23.2148 13.1124
41.718 23.4601 13.4659
42.5887 24.0934 13.8269
42.8759 24.2733 13.8988
40.3769 23.1088 13.4715
41.9081 24.1065 14.0842
41.4115 23.6028 13.7065
41.6009 24.3701 14.5009
40.0874 23.3879 14.0539
39.7334 23.0188 13.7972
39.6978 23.6154 14.3099
41.5983 24.1043 14.4218
40.3414 24.2041 14.8322
41.0091 23.877 14.4291
39.3781 23.8065 14.5796
39.3978 23.6907 14.5601
40.8071 24.7445 15.1756
38.4518 23.7147 14.7817
38.519 23.2061 14.3195
38.333 23.5965 14.8397
38.0267 23.6967 15.0661
38.9899 24.2377 15.2954
37.0679 23.3568 15.035
37.7501 23.5589 15.2601
37.8562 23.5275 14.9978
37.1964 23.7744 15.2604
37.4382 24.3428 16.0358
36.9218 23.7605 15.6564
37.2332 24.1707 16.1322
37.2231 24.8745 18.4154
85.2292 53.9102 32.1128
36.4445 24.0914 16.4564
35.8347 23.8359 16.1219
36.0862 23.6373 15.8673
34.266 23.1569 15.813
35.7435 23.7989 16.3219
36.4873 24.0141 16.1211
35.9201 24.3546 16.8614
37.3126 25.044 17.1844
36.0916 24.1672 16.6523
36.0463 24.3515 16.9591
36.0657 24.7796 17.1839
34.7569 23.5544 16.3912
34.9841 24.5783 17.6769
35.63 24.3501 17.2362
35.4104 24.5427 17.3965
35.1554 24.8367 17.8403
34.6046 24.5017 17.6245
35.25 25.1876 18.2044
33.9691 24.2676 17.8442
35.6953 25.4651 18.4437
34.1276 24.4339 17.8096
32.9468 24.0249 17.8072
33.4035 23.9784 17.6574
33.3649 24.2303 17.9991
31.9478 23.5075 17.73
33.12 24.3095 18.2106
32.8239 24.266 18.3153
33.2813 24.6952 18.5763
32.587 24.5554 18.5938
33.1972 25.419 19.7349
32.908 24.629 18.8894
32.2506 24.1863 18.5201
32.6315 24.8381 19.1265
31.8849 24.1605 18.6688
30.2535 23.3776 18.5032
32.8783 25.0502 19.2391
30.6683 23.912 19.039
31.4458 24.3939 19.3515
31.958 24.6865 19.5628
29.9968 23.5546 18.8744
31.5405 24.5887 19.6949
31.1432 24.6601 19.8123
31.0841 24.5165 19.9196
30.5023 24.1014 19.4577
31.2195 24.9234 20.3846
29.8846 24.0626 19.7298
29.7563 23.9827 19.8254
30.4295 24.4628 20.0922
31.3244 25.6406 21.0734
30.1039 25.0562 21.1214
29.7361 24.1871 20.1758
30.1147 24.6155 20.4051
29.7516 24.9178 21.1658
29.3296 24.1041 20.3227
30.03 24.8381 20.8292
28.4086 24.1701 20.838
28.8131 24.3585 21.0884
29.6125 25.192 21.6966
29.7931 24.9758 21.2493
29.5107 25.6271 22.5489
28.7745 24.2627 20.9636
28.3977 24.4954 21.736
28.8894 24.2482 20.7919
28.5694 24.7845 21.702
27.8596 24.2385 21.5548
28.5951 25.025 22.3043
28.1767 24.498 21.7159
27.3827 24.2136 22.0296
27.6739 24.2064 21.6831
28.5803 25.5065 23.1522
28.3857 25.0523 22.5969
26.8139 23.9009 22.1732
28.4328 25.5525 23.2748
27.1897 24.9032 23.5218
28.9061 25.2891 22.5987
27.2842 25.0764 23.5743
27.954 25.3881 23.4812
26.6065 24.5215 23.0031
27.5746 25.2584 23.411
26.6705 24.6469 23.1341
27.0847 25.5191 24.2112
26.5009 24.8219 23.757
25.882 24.1072 23.2408
27.4902 25.7039 24.7568
27.1038 24.9205 23.6685
26.5658 24.6676 23.6356
26.5082 24.8915 23.7679
25.745 24.9656 24.5482
26.4698 25.0635 24.3551
24.9362 23.9348 23.5269
24.8081 23.7662 23.6448
25.4659 24.6987 24.3965
25.2434 24.0506 23.8854
25.2399 25.458 26.2283
26.5477 26.8904 31.073
57.2363 53.5096 45.9339
24.9088 25.1576 26.2686
25.1545 24.6224 24.9252
25.4873 25.5423 25.9905
25.6688 25.5018 25.737
25.156 25.5213 26.32
24.4546 24.3784 24.8045
23.9022 24.599 25.8025
23.8913 23.794 24.7479
25.5377 25.2193 25.5497
23.8118 24.3987 25.0971
24.1439 24.7926 25.7832
24.6198 25.9976 27.2819
23.2834 23.8078 25.2246
24.0918 25.0228 26.5552
25.038 26.0361 27.1719
23.5398 24.4484 26.0166
23.2346 24.4809 26.3342
23.0251 24.1105 26.2187
24.6938 25.8305 27.4728
24.3401 25.7827 27.6606
23.1524 24.6469 26.8358
23.9527 25.3454 27.2245
22.5333 23.9224 26.0415
22.9662 24.5871 26.7147
22.8457 25.1027 27.7055
22.8428 24.6647 27.2853
22.2974 23.9076 27.0051
23.2657 25.3734 28.0444
22.5164 24.3454 27.1706
23.0518 25.0928 27.6263
23.2148 25.9188 29.0742
22.6434 25.1682 28.4538
22.5266 24.3747 27.1732
21.7571 24.2762 27.6025
21.2829 23.8048 27.5352
22.2367 24.656 27.7868
21.7141 24.3517 28.0025
22.3085 25.078 28.4308
22.2901 25.3091 28.9639
20.3707 23.3411 27.3194
22.1607 25.1336 28.8767
21.4031 24.5097 28.5969
21.3431 24.351 28.5467
21.3604 24.3876 28.4781
20.9288 23.9154 28.5223
22.1132 24.9684 28.8094
21.2362 24.7434 29.2525
20.9874 24.2853 28.697
20.5868 24.5431 29.6546
21.0718 24.3126 29.0341
21.1637 25.042 30.2974
21.7538 25.7808 30.9377
20.0623 23.8618 29.373
20.7482 24.4073 29.8598
21.5964 25.5646 31.1559
21.5709 25.8952 31.8076
20.7417 24.0451 28.8309
20.1459 24.5104 30.1238
20.5106 24.8393 30.8868
20.9727 24.8078 30.0917
20.2338 24.7019 30.9781
20.8212 25.0514 30.8327
20.7753 25.3718 31.4066
20.3594 25.0326 30.8402
19.6315 24.8259 31.8105
20.6306 25.2627 31.5889
20.7742 25.7409 32.3034
19.8154 24.7266 31.21
19.7571 24.3502 30.8812
19.6175 24.9385 32.0927
19.363 24.2326 31.2165
20.1327 25.3711 32.3443
19.9023 25.1658 32.3333
18.9304 24.1303 31.8745
19.3261 23.8837 30.6465
19.1305 24.594 32.2822
18.8598 23.8817 30.9251
19.4335 25.1676 32.9607
19.4748 25.0803 32.6573
18.9979 24.5613 32.5668
19.701 25.2433 32.8024
18.2194 23.4871 31.0159
18.1718 23.5431 31.2595
19.0049 25.1691 33.7762
18.6412 24.2052 32.2081
18.4657 24.3774 32.8913
18.5333 24.7009 33.7665
19.0414 24.5023 32.7809
18.3112 24.2653 33.5279
18.7915 24.3453 33.3152
18.9112 24.9326 33.7766
19.2792 25.2363 34.4034
17.9757 23.9292 33.0377
19.0743 25.807 36.1619
18.2057 27.3678 48.2115
42.4057 52.0886 57.8257
18.2732 25.5036 35.7493
18.3114 24.9411 35.6199
18.1327 24.0501 32.98
18.0032 24.8655 35.073
17.3488 23.3484 32.7887
18.6541 25.9508 36.2571
17.6277 24.4571 34.7545
17.6251 24.594 35.4342
18.2782 25.1328 35.6328
17.6206 24.6077 35.7391
18.1776 24.5603 34.1587
17.0943 24.1878 35.0022
17.7167 24.4023 34.133
17.0545 24.4881 35.3638
16.7023 23.6416 34.2569
17.2925 24.758 36.31
17.6219 24.8484 35.9633
16.6507 23.0984 33.1023
16.7743 24.713 36.7156
17.4774 24.6477 35.6443
16.6373 24.0339 35.3748
16.6586 24.0548 35.2118
16.4305 24.3403 36.571
16.8733 24.3873 36.1754
16.9612 24.7071 36.7055
16.5772 23.7892 35.4323
16.5747 24.3976 36.3098
16.5216 24.2684 36.4229
17.2598 25.7643 38.4691
16.2835 23.6716 35.6735
16.0527 23.3559 34.9285
15.7057 22.9897 34.2164
15.2878 23.1051 35.6134
15.7434 23.9832 37.1937
15.8104 23.1509 35.1131
15.0893 22.4954 34.6383
15.2672 23.0032 35.7144
15.0315 22.5983 35.4167
15.6377 23.4873 36.3985
15.3416 23.2742 36.4197
15.4538 23.2222 35.706
15.8229 24.3188 37.7117
15.4721 23.8675 38.3491
16.0143 23.8202 36.1529
15.3832 23.803 37.1873
14.8851 23.1388 36.8274
15.1592 23.06 36.2599
14.7285 22.5013 35.4934
14.6362 22.8289 36.6192
15.6674 24.1154 37.8243
15.0001 23.564 37.2963
14.7131 23.3771 37.4105
14.8768 23.5438 37.7751
14.6611 23.4639 37.9572
14.4834 23.224 38.4489
14.6154 22.5244 35.7714
14.0318 22.4836 36.8982
14.3598 22.9714 37.3697
14.223 22.5434 36.7942
14.0757 22.4785 36.8958
14.3024 22.6766 36.4829
13.884 22.3657 37.1824
13.862 22.1767 37.2208
14.6202 23.511 38.5089
14.0802 22.7623 37.9163
14.1468 22.924 37.8522
14.3044 23.3696 38.904
13.7686 22.1937 36.7967
13.9667 23.0384 38.7103
13.8524 22.7291 38.356
13.7863 21.8947 36.0204
13.7781 23.4808 40.0978
13.5864 21.9173 37.1418
13.5061 22.6947 38.8102
13.7908 22.1048 36.823
13.2801 22.3864 38.4989
13.3809 22.5323 38.3408
12.9156 21.9007 38.4429
13.6945 22.7487 38.2926
12.9785 22.0145 38.4642
13.8209 23.227 39.5717
13.1816 22.6506 39.7466
13.317 22.143 38.5137
13.4203 23.0315 40.4517
13.5569 22.4797 38.0846
12.4867 21.5574 38.4716
13.299 22.3958 38.852
13.027 22.6953 40.1785
12.7605 21.9466 38.6785
12.7504 21.9742 38.9723
12.7001 21.7619 38.6219
12.5782 21.9349 39.79
12.9898 22.4266 39.8542
13.3482 23.9362 42.7339
11.818 23.5738 59.9074
31.5676 50.8085 68.5269
12.3176 22.328 41.4704
12.4735 22.2467 41.0141
12.7347 22.0491 39.2496
12.5725 21.9564 39.1094
12.0475 21.3255 38.9235
12.7288 22.7775 40.5
11.6047 20.7091 38.6593
12.332 21.4742 38.9701
12.2528 22.0048 39.9382
12.2191 21.6706 39.5615
11.8662 21.7377 40.4181
11.9805 21.39 39.8989
12.0629 21.7521 40.7759
12.2644 21.7654 39.6044
12.0348 22.2271 41.6961
12.0712 21.6322 40.3039
12.4911 22.8658 41.6944
11.8684 21.8508 41.1035
12.0132 21.6043 40.3803
11.6014 21.3564 39.6396
10.9706 20.4988 39.1053
11.4723 21.5016 40.9241
11.9276 22.1636 41.8076
11.47 20.9718 40.5022
11.5525 21.6765 41.534
11.8243 21.5509 41.2319
11.5338 21.1142 40.2341
11.6696 21.7945 41.5662
11.7055 21.8228 41.625
11.5348 21.7144 42.1508
11.6617 21.5361 41.1853
11.3519 21.7515 42.8784
12.1561 22.6213 42.9625
11.4839 21.8748 43.2111
12.1793 22.8223 43.4214
11.5581 21.9573 43.1206
11.6105 22.1097 43.5667
12.1085 22.626 43.5048
11.6757 22.1205 42.5513
11.5175 22.64 44.9851
11.2864 21.1744 42.158
11.3585 21.2254 41.4217
11.4157 22.2262 43.0995
10.9707 21.3861 42.8988
11.3132 21.8568 43.0351
10.9732 21.6751 43.8284
11.3591 21.9005 43.5694
11.2933 21.8897 43.1215
10.8621 20.9993 41.6823
11.3204 23.0166 45.7085
11.1565 22.0154 45.0117
11.088 21.6171 43.7796
11.4567 22.6844 45.426
10.9884 22.1673 45.7775
11.4994 22.7521 46.073
11.1742 22.3902 46.2629
11.4766 22.4026 45.129
10.9224 22.0741 46.1283
11.4096 22.3216 44.8785
10.9452 21.8025 44.8442
11.2353 23.3181 48.3066
11.3118 22.3859 45.9067
11.1179 22.065 44.8237
11.005 22.824 47.6859
11.1968 22.5106 46.965
10.9325 21.7904 45.313
10.8391 21.8635 45.2137
10.7795 22.1012 45.7007
10.7242 21.9572 44.5439
10.2743 21.4412 45.5295
10.5422 21.7188 46.1996
10.5663 21.4067 45.2317
10.3778 21.3606 45.9301
10.853 22.1576 46.7014
10.4182 21.0639 43.9684
9.83687 20.4487 43.3073
10.0093 20.7657 44.2675
10.2469 21.06 43.8952
9.64973 20.2465 44.1874
10.0738 20.6177 43.4676
9.77505 20.3966 43.1557
9.59923 20.2188 43.4687
9.5831 20.3621 44.5556
9.45199 19.1671 41.8875
9.80811 20.5161 43.47
9.62482 20.707 44.9735
9.70642 20.0391 43.0441
9.5089 19.963 43.552
9.69963 20.6867 45.3912
9.80707 21.035 46.3065
9.8875 20.9791 46.1312
9.69319 20.429 45.532
9.51869 19.7677 43.239
9.15083 20.2151 46.6305
9.33161 23.5045 78.0467
24.7104 46.9437 71.842
9.67665 21.696 47.8448
9.36173 20.545 45.5629
8.95159 19.6445 43.9722
9.14668 20.0883 45.2613
9.53249 21.0384 47.2367
9.59876 20.3537 44.9347
9.41061 19.9301 42.734
8.63979 19.3432 43.4042
9.23317 20.5442 45.0535
8.52628 18.9148 43.9394
9.207 20.0907 44.5587
8.77854 19.748 45.1926
8.75468 19.3274 45.0443
9.01456 19.7678 44.861
9.18775 20.3291 45.8965
8.8301 19.6464 44.9005
8.92286 19.4481 45.3618
9.05676 20.0216 45.6244
8.82343 18.8007 43.3617
8.98971 20.0191 46.0242
8.95369 19.7888 45.8486
8.74698 18.7889 42.8108
8.532 18.7359 43.0173
8.49373 18.8716 43.2639
8.53544 19.2464 45.009
8.73223 19.2504 43.6961
8.46223 19.505 45.2822
8.63378 19.4863 44.3766
8.00293 18.3753 44.0392
8.47758 18.8718 44.0614
8.32589 18.8999 44.8902
8.73056 19.9826 46.259
8.50127 19.3601 44.9503
8.45257 19.911 48.0895
8.88947 19.8235 44.9071
8.08112 19.0186 45.2752
8.32542 19.0315 45.6291
8.26097 18.9345 46.021
8.57358 19.6485 46.9171
8.48666 19.2396 45.9308
8.43371 18.9959 43.9404
8.15944 19.0369 45.1204
7.99818 18.9426 45.7009
8.40052 19.2391 46.4154
8.30908 19.0969 45.7314
8.32724 19.5658 46.8047
7.96521 18.3612 44.8919
8.18275 18.6657 45.8148
8.14062 18.6213 44.7479
8.10691 19.208 45.8934
7.98228 18.5279 45.0323
7.93845 18.9762 47.0482
8.15165 18.841 45.3309
7.75441 18.3835 46.1994
8.19725 18.7723 45.5434
8.04437 18.6187 44.9224
8.11036 19.7992 48.4786
8.01312 18.6696 46.303
8.12649 19.0446 45.7608
8.00019 19.5253 47.871
7.86232 18.582 46.4794
7.85252 18.645 46.0847
7.8543 18.5243 44.2786
7.43398 18.2125 46.6112
7.71628 18.2046 44.3798
7.4911 18.1272 46.1792
7.87825 18.9489 46.6315
7.78427 18.6045 45.5573
7.58238 18.6368 46.499
7.64877 18.8688 47.6013
7.55073 18.5171 47.8966
7.75971 18.6059 46.8173
7.66903 18.7128 47.0658
7.6876 18.8303 47.4858
7.67757 19.0604 47.292
7.26264 17.9402 47.0798
7.47021 17.9457 46.1203
7.44826 17.9779 46.0083
7.44289 18.073 45.6133
7.45316 18.4045 45.8753
7.16808 18.0473 46.8946
7.63371 19.1076 47.9343
7.17622 17.9471 47.7938
7.63618 18.6894 46.4087
7.15166 18.1269 47.5125
7.53344 18.5251 48.1391
7.47004 18.0861 46.2493
7.21955 18.3669 47.7562
7.36976 18.527 47.9885
7.44941 18.1458 47.0788
7.4571 18.5919 46.9334
7.06083 18.0745 47.1279
7.33924 19.2298 51.4159
7.88694 20.2727 52.9083
7.11137 22.7567 96.6005
19.0285 40.4485 67.809
7.50867 19.9972 51.5954
7.06851 17.6422 46.2607
7.08502 18.3962 48.5756
7.23844 18.4307 48.8193
7.26313 18.066 47.0852
6.90618 17.4466 47.194
7.09727 17.681 46.0293
7.00297 18.1923 48.4356
7.22387 18.2737 47.1607
7.0512 18.1606 47.958
6.99302 18.1338 49.2968
7.22394 18.1368 47.4226
6.83313 17.6668 46.7179
6.71658 17.3513 47.6505
6.94682 17.5205 46.4997
6.73887 17.3493 46.215
6.72372 17.1065 45.618
6.72256 18.003 49.0198
7.05735 18.1775 47.7468
6.68293 17.3556 47.2344
6.71242 17.7368 47.5396
6.43215 16.8992 46.6522
6.51618 16.3807 45.6446
6.63661 17.4517 47.4887
6.7806 17.1186 45.6554
6.36332 16.4194 44.4046
6.46476 17.2833 47.6259
6.69922 17.6448 48.2615
6.55582 16.8945 46.264
6.42463 16.8026 46.5357
6.61482 17.4455 47.0925
6.47587 16.4698 44.6088
6.58679 17.601 47.2158
6.17237 16.367 46.5958
6.6022 17.0646 46.8839
6.35501 17.0206 46.7669
6.55968 17.8276 49.0936
6.5294 16.9269 46.4614
6.17704 16.5786 47.0695
6.52827 17.3709 47.0956
6.0917 16.05 45.1149
6.11919 16.8119 48.1056
6.51077 16.9819 46.07
6.05253 16.1403 44.8398
5.92361 16.3444 47.0603
6.3492 16.7063 45.69
6.15514 17.1148 47.6632
6.1527 16.8547 48.0081
6.29326 16.6598 46.2497
6.07582 16.9632 47.5747
6.05945 16.7667 48.9335
6.42212 17.5379 50.7205
6.96476 19.0001 49.8434
5.96443 16.3895 47.6693
6.19721 16.358 47.0098
6.1428 17.1066 49.0811
6.1849 16.6924 46.2212
5.9445 16.2091 47.2232
6.2483 17.028 48.9715
6.14954 16.7355 47.3252
5.95769 16.5114 47.0597
5.98171 16.2013 46.4335
5.95151 16.9439 49.0374
6.07416 16.618 47.17
5.74898 15.7151 46.4779
5.88969 15.8165 45.6262
6.14455 17.4661 47.9991
5.67252 15.8403 46.9747
5.77253 15.96 46.9559
5.89093 15.6087 43.6302
5.64582 16.6065 47.9882
5.67086 15.6217 46.476
5.89472 16.592 48.1726
5.89869 16.253 46.2887
5.72928 16.0688 47.3825
5.80184 15.9564 45.9416
5.6839 16.3464 47.7678
5.67495 16.0489 48.8183
5.939 16.3311 47.5001
5.71042 15.817 45.8283
5.58151 15.6318 45.5875
5.54609 16.0349 46.5551
5.57464 15.8927 46.5682
5.55344 15.7151 46.6167
5.57874 16.3639 48.1788
5.59497 15.7731 47.0061
5.68588 15.9807 47.442
5.81367 16.845 48.4206
5.56196 16.3007 49.5751
5.68307 16.4176 48.4616
5.56325 16.0349 48.5634
5.63068 16.4799 48.6977
5.49807 16.0823 48.0019
5.32084 16.6825 52.5008
5.58888 21.7722 113.571
15.8191 35.48 60.1467
5.41468 16.8173 49.6508
5.57629 16.3995 47.1651
5.38553 15.8851 47.8152
5.48036 15.9625 46.7287
5.26316 15.3519 46.917
5.44882 15.5091 47.5732
5.4419 15.5414 47.6123
5.53406 15.7315 46.8657
5.4593 16.1983 48.3145
5.48064 15.654 47.4676
5.36293 15.9473 48.4176
5.39788 15.6642 49.2331
5.61454 16.3175 48.518
5.3661 15.5642 47.5551
5.24688 15.491 47.8864
5.45111 15.6859 48.4669
5.3712 15.2031 46.0389
5.25621 15.8388 47.3484
5.2319 15.9342 48.9464
5.35586 15.4502 46.1177
5.04507 15.3261 49.0535
5.25934 15.4077 49.1531
5.53298 15.9618 46.8506
4.98876 14.943 47.6089
5.46539 16.1307 46.9321
5.05407 15.546 48.4793
5.15434 15.3052 48.4181
5.30293 15.7831 49.6525
5.41426 15.8784 46.9325
5.12775 16.0832 50.7995
5.19111 15.0873 47.2931
5.28744 16.2536 49.4362
5.13305 15.1643 48.5933
5.26351 15.7002 48.6036
5.20725 15.2231 47.5687
5.24231 15.7237 47.6488
4.9929 15.0431 46.6601
5.06209 15.9141 48.4015
4.95247 15.4317 50.5168
5.28903 15.9249 48.491
5.04519 15.5824 48.995
5.10342 15.4604 47.8034
4.85515 14.6228 45.858
4.7876 14.9424 49.6016
5.0738 15.2861 48.083
5.04489 15.272 47.092
4.74984 14.656 48.0318
4.99196 14.9255 48.1468
4.99908 14.9313 47.6034
4.96171 15.2397 47.6713
4.87626 14.9126 46.8864
4.86038 15.0123 46.8971
4.77668 14.666 48.2077
4.96263 15.3583 47.9575
4.91061 15.6421 50.0465
4.95012 14.9419 47.4752
4.78754 14.6538 48.4055
4.95147 15.2078 48.6773
4.92603 15.0313 47.7747
4.78449 14.6821 47.8166
4.90419 14.9304 46.6879
4.70875 15.0587 48.5769
4.72853 14.0388 45.8133
4.65658 14.0698 45.7622
4.70119 14.6403 47.1239
4.79758 14.8628 47.3169
4.52203 13.8883 46.8551
4.84416 15.1379 47.4783
4.5886 14.8705 49.3626
4.83579 14.5375 46.7402
4.69834 15.1784 48.7882
4.69246 14.8585 49.4925
4.81081 14.8249 48.9293
4.90345 15.3773 48.2228
4.54219 14.4683 49.6665
4.96082 14.7495 45.384
4.44314 14.3429 47.8894
4.80752 15.0351 46.3422
4.41501 14.565 48.7985
4.71393 14.9891 49.1799
4.65508 14.5073 48.6423
4.76543 15.2114 49.4517
4.7835 14.5286 46.5384
4.55296 14.6506 48.2098
4.48315 14.2145 49.0185
4.76866 14.7254 48.47
4.69564 14.8295 48.3176
4.60721 13.9823 45.5348
4.42957 14.656 49.2782
4.64183 14.8023 50.1074
4.79148 14.9133 48.6506
4.59181 14.9367 50.4575
4.57043 14.3515 48.0532
4.49104 15.5649 52.692
4.66066 21.0264 129.13
13.745 33.5965 58.3139
4.52299 15.2993 47.3596
4.46707 15.0371 48.0181
4.39825 14.7865 48.6798
4.46805 14.7267 50.0809
4.68764 14.9809 48.2128
4.42324 14.456 48.6327
4.40427 14.1042 47.6355
4.38637 13.8786 46.5776
4.34866 14.3831 48.9022
4.47767 14.176 47.203
4.32046 13.9984 47.081
4.38729 14.4915 48.2385
4.29693 13.9209 48.107
4.40441 14.2823 49.0175
4.53906 14.2107 47.285
4.30535 14.008 47.8323
4.39399 13.9339 46.7225
4.33526 14.1856 46.7832
4.32428 14.4191 49.4709
4.48968 14.3279 48.2983
4.4217 14.5015 50.9745
4.53145 14.6755 50.4368
4.58721 14.2984 46.6434
4.23288 14.5652 50.0179
4.43033 14.32 47.8516
4.24679 13.8255 47.0483
4.31189 14.547 50.5082
4.51177 14.448 47.3953
4.17628 13.9628 47.6693
4.28503 14.6333 50.4411
4.42052 14.1122 48.1408
4.25345 13.7797 48.4815
4.28436 14.0043 47.6146
4.2537 13.956 47.113
4.09018 13.5331 47.5119
4.1153 13.6739 48.2016
4.22442 13.5036 47.3799
4.20377 13.7748 46.3424
4.06931 13.6159 46.8442
4.06595 13.7062 47.0522
4.01858 13.1118 47.043
4.14355 13.7029 45.9752
3.99771 13.7092 47.2186
4.08272 13.5988 48.2394
4.17481 13.3677 46.0355
4.03554 13.7451 47.2924
4.00316 13.0156 45.5379
3.94876 13.2924 45.7502
3.95485 13.4038 47.1892
4.11036 13.4465 46.6539
4.05322 13.6063 47.7191
4.14735 14.2196 49.2463
4.19966 13.8075 49.3922
4.22406 13.7729 48.2326
4.2638 14.4337 50.0632
4.23709 14.3025 49.8969
4.2244 14.0363 48.6142
4.13143 13.9692 48.1578
4.09052 14.0095 49.7069
4.18313 13.7735 48.8631
4.2768 13.9603 47.7859
3.91381 13.4167 47.7732
4.0224 13.5166 49.688
4.28505 14.3428 47.9789
3.99134 13.5586 47.7245
3.96868 13.2444 48.5128
4.12252 13.8791 48.8538
4.06175 13.385 46.7172
3.91136 13.4164 48.2622
3.9884 13.1881 47.2744
4.06509 13.9946 49.5623
4.06799 13.9293 48.1873
3.95544 13.5607 48.2768
4.07093 13.9193 48.2865
3.91416 13.259 48.1444
3.99397 13.5134 47.3633
3.91886 13.2813 47.1299
3.80058 12.364 44.921
3.81635 13.4597 48.3573
4.00727 13.7198 47.2984
3.85318 13.0372 48.133
4.00252 13.3262 46.1758
3.79666 13.1167 45.0082
3.64074 12.7325 45.9673
3.73241 13.1541 48.1384
3.90342 13.3999 47.8138
3.84774 13.4066 47.4644
3.88116 13.7582 49.5693
4.03904 14.0034 49.535
3.95067 13.2722 49.4479
4.02898 14.0802 50.4257
4.07295 13.332 48.2259
4.01964 14.782 52.2246
4.11869 14.4949 54.5261
4.26423 21.2419 139.409
11.9211 30.8327 58.9432
4.36679 15.8645 52.3045
4.28321 14.6875 50.4771
4.03541 13.9981 49.1619
4.08003 14.1209 50.5444
3.98484 13.6929 48.6257
3.86472 12.9428 46.3148
3.72675 13.3118 49.9684
3.98379 13.3321 48.1465
3.84058 13.1257 47.4366
3.83873 13.6847 49.6919
3.87616 13.6016 49.7641
3.92821 13.1958 45.3639
3.57914 12.9194 47.2537
3.70697 12.5596 46.437
3.70672 13.4083 48.0728
3.7401 13.2212 48.0719
3.71295 12.9698 48.0715
3.83315 13.2624 48.344
3.79478 13.2953 48.7614
3.76912 12.8329 46.5468
3.63735 12.5745 45.5166
3.57891 12.3279 46.0808
3.66381 12.8758 45.3464
3.52052 12.9754 47.8512
3.73777 12.9678 46.6341
3.56968 12.0748 44.7312
3.50533 12.4482 48.4154
3.92381 13.2359 46.5173
3.57598 12.5339 46.5604
3.68096 12.9746 47.4258
3.6461 12.4961 47.5429
3.69892 13.1079 47.2264
3.66852 12.9129 46.0738
3.53112 12.1635 46.3717
3.56563 12.5384 46.3898
3.63568 12.47 45.1943
3.48369 12.9068 48.1184
3.6394 12.416 45.9342
3.57853 12.5682 47.0422
3.61779 12.5863 44.5738
3.43531 12.244 47.7082
3.70652 12.9311 46.0246
3.5107 12.1962 46.9459
3.62061 12.4971 46.131
3.51154 12.2306 45.0969
3.44408 12.6547 47.4897
3.55029 11.9591 44.0716
3.393 12.1804 45.5577
3.47498 12.2898 46.6104
3.62222 12.8651 46.268
3.47548 12.5823 46.6998
3.48895 12.3393 46.4854
3.49085 12.1885 46.5049
3.50439 12.0647 45.5865
3.49088 12.5512 45.3066
3.38326 12.3991 45.7605
3.45212 12.4352 46.9198
3.52081 12.5368 47.0885
3.52849 12.5109 45.9783
3.3548 12.1406 47.3638
3.5631 12.1268 46.4951
3.55286 12.9728 45.7893
3.41783 12.4697 46.1211
3.41265 12.0692 45.871
3.39153 12.0961 46.7516
3.41942 12.3531 46.9003
3.50923 12.4255 46.7902
3.45162 12.3052 46.2582
3.50352 12.5504 45.1517
3.34102 12.0458 44.9298
3.37234 12.3475 46.7341
3.40246 12.1477 46.4087
3.41008 12.3421 47.5202
3.52553 12.5366 45.4391
3.35052 11.8228 46.4224
3.46091 12.3386 45.1565
3.32103 11.955 46.6685
3.48932 12.2441 46.032
3.40363 12.5545 48.2851
3.48325 11.977 45.2673
3.35277 12.0673 45.3153
3.34082 12.4667 47.9107
3.48982 12.5805 46.3986
3.3453 12.3974 47.3058
3.42081 12.5629 46.7457
3.39597 12.2746 45.1778
3.22278 11.6665 46.403
3.44242 12.5544 47.3886
3.40284 11.9389 45.1609
3.35534 12.5715 48.06
3.4362 12.2589 45.716
3.26378 12.2016 46.7324
3.41255 12.6312 47.3189
3.38041 13.1584 46.8621
3.34478 20.6717 150.438
10.8757 27.2911 48.3259
3.37486 13.5666 46.2818
3.3646 12.9648 46.781
3.33271 12.299 47.3651
3.43707 12.4671 46.4553
3.35899 12.0475 47.6454
3.50442 12.4133 45.7526
3.26425 11.525 45.4567
3.36198 11.9641 44.3241
3.13739 11.3729 46.1763
3.34584 11.902 44.9934
3.32478 12.0579 46.318
3.36499 12.0943 45.0417
3.27267 12.3472 46.7674
3.39189 12.3312 47.4146
3.38877 12.0022 45.9951
3.27648 11.9904 45.8175
3.27418 11.6559 44.0357
3.21972 11.5434 43.8452
3.13416 11.3768 43.1746
3.08937 11.4231 46.7167
3.36013 11.9835 45.5931
3.31183 12.0387 44.8384
3.1858 11.3727 45.5081
3.27889 11.7579 47.2219
3.35441 11.9064 44.5649
3.13635 11.4116 45.46
3.27243 11.9804 43.6891
3.12491 11.9599 47.5706
3.32022 12.0565 45.1936
3.17449 11.5524 45.4711
3.19258 11.9812 46.7766
3.2327 11.2756 43.6674
3.14942 11.876 45.7448
3.17554 11.7766 44.8971
3.18197 11.8328 45.872
3.22255 11.4539 44.5996
3.17147 11.591 46.2312
3.27296 11.7987 45.4879
3.23163 11.7884 45.3705
3.12638 11.6078 45.4582
3.19941 12.0184 44.7754
3.20362 11.5028 45.4433
3.18405 11.4242 44.8765
3.18427 11.166 41.5718
2.88093 11.067 44.9811
3.14028 11.4673 45.5622
3.18574 11.7575 44.989
3.16817 11.5374 44.8648
3.12626 11.8808 45.2712
3.14407 11.3937 44.8857
3.14193 11.1791 44.0801
3.11941 11.8118 46.058
3.21455 11.4287 43.8861
3.08953 11.6078 44.2062
3.08855 11.2179 45.6108
3.17642 11.1861 43.319
3.07922 12.1355 45.7847
3.15214 11.1412 45.3509
3.13179 11.6828 45.5807
3.20491 11.5348 45.8456
3.18106 11.5163 44.9204
3.16416 11.2302 43.4503
3.04134 11.5093 44.569
3.10328 11.3965 45.5223
3.14861 11.8927 45.3119
3.07761 11.3533 44.1273
3.0358 11.4578 44.2978
3.03653 11.1411 43.9559
3.06694 11.3597 43.5316
3.02077 11.0435 44.4195
3.06785 11.4313 44.6711
3.04621 10.7849 42.6039
2.94713 11.3749 42.6287
2.91349 10.7597 45.3149
3.12968 11.6313 45.0942
3.12055 11.2368 43.7139
3.02018 11.4784 44.895
3.097 11.4078 44.8144
3.1095 11.9809 45.1944
3.07202 10.9959 42.585
2.93753 11.2042 43.5976
3.02123 10.9288 43.6984
2.99613 11.3353 45.5678
3.1358 11.7052 45.2518
3.04752 11.2638 44.9265
3.11515 11.4085 43.6566
2.99609 11.4796 46.3509
3.14367 11.0891 45.3208
3.1198 11.8121 44.3876
3.05346 11.3465 44.6134
2.9958 11.358 45.2563
3.14255 12.1884 47.064
3.1174 12.2006 45.7878
3.12477 12.4676 44.1875
2.96647 21.0736 157.258
10.3418 24.2475 44.5452
3.04254 12.688 46.0409
3.13924 11.6735 43.5147
2.93698 11.723 44.7039
3.04657 11.1858 43.1198
2.96013 11.2607 44.096
3.02424 11.2992 42.9142
2.95067 10.9976 45.9917
3.14159 11.1677 41.791
2.88443 10.4675 42.1198
2.84898 11.0733 43.714
2.99874 11.5842 44.0908
3.00238 10.8592 43.5053
3.00014 11.5045 44.1257
2.95726 11.0303 43.5464
2.99946 10.8676 44.05
2.98892 11.0556 42.992
2.98674 11.1281 43.102
2.89088 10.771 41.9522
2.86554 10.8447 42.1337
2.84767 10.7214 42.7728
2.97775 10.7739 44.6293
3.04169 11.0885 44.4145
3.02766 11.3636 44.2012
2.9971 11.0544 42.3167
2.86602 10.8492 43.3127
2.94483 11.1375 43.9464
2.93756 10.938 44.0853
3.01811 10.5918 42.6059
2.88757 11.0168 42.3306
2.84153 10.9781 42.3465
2.8139 10.6651 43.1435
2.86605 10.8661 43.9118
2.93264 11.318 44.6004
2.95655 11.1167 42.8996
2.87755 10.7824 44.1584
2.94429 11.1518 43.3269
2.90699 11.0032 44.4988
2.98308 11.0218 42.6544
2.89214 10.9169 43.346
2.92486 11.0089 43.0917
2.86327 10.8834 44.9827
3.01265 11.3117 45.6069
3.03199 11.45 44.5157
2.98787 11.0558 42.9514
2.91257 10.9951 44.8434
2.99079 11.3682 44.2405
2.92273 10.8909 43.1236
2.90092 11.0381 44.1077
2.94137 11.4562 45.3343
2.98497 11.0829 44.19
2.87782 10.8839 44.5492
2.9955 11.5352 44.097
2.92475 11.0879 44.629
2.95904 11.6607 46.5021
3.06017 11.085 45.3094
2.97854 11.5378 44.5576
2.94513 11.1132 45.0863
2.97309 11.0103 44.727
3.04383 11.3513 43.0295
2.8515 11.3942 47.3176
3.10601 11.3361 43.6572
2.8779 11.0571 44.9577
3.03014 11.0583 44.4348
2.94813 11.7102 44.2575
2.92563 10.8617 47.0452
3.08457 11.4096 45.6488
2.98405 12.0697 48.8269
3.24533 12.3979 45.8328
3.00058 10.9612 44.349
2.91486 11.3875 44.6947
2.97593 11.2563 45.9154
3.03776 11.2602 44.6048
2.95443 11.3298 46.7012
3.07588 11.4545 44.7195
3.0098 11.4724 44.9265
2.95348 11.1538 43.7979
2.91183 10.8355 43.5457
2.90264 11.131 43.9209
2.91223 10.8113 44.6986
2.958 11.3798 44.8798
3.00316 11.1431 44.3471
2.93308 11.3581 46.5693
3.04246 11.0553 42.7502
2.8518 11.1515 44.6248
3.00366 11.3813 44.1075
2.96416 11.0096 45.5612
3.0309 11.4848 45.0751
2.94255 11.4484 45.4911
3.05296 11.8028 47.2237
3.16847 11.5141 44.8991
2.95243 12.0506 47.6802
3.16915 11.747 46.4171
3.08793 12.7168 49.4794
3.26865 14.124 50.7797
3.36797 29.2333 209.266
13.3632 0 0