# pn-170911/RbIIR-av-RbII-1280-1959.psd
# Power spectrum* (dif=0,1,2) (really just |FT|^2)
# NOTE: only the first half! (symmetric)
# weeks: 1280-1959
# 4102 clock-days, 62 excluded
# PSD: 1441
74648.5 1.33518 0.0330128
2.41672e+06 61.271 0.0654326
3.25159e+06 55.4639 0.0664873
913228 17.713 0.064844
597378 17.1556 0.0663415
377167 9.91849 0.0631337
255478 9.53415 0.0639561
178510 8.50749 0.0642903
143001 8.64682 0.066143
116512 8.01714 0.067986
84250.3 7.23884 0.0691933
84206.1 7.36426 0.0660816
57284.4 7.47603 0.0680577
58356.4 6.42888 0.0679175
47509.2 7.0787 0.0735767
45516.8 6.89861 0.0685401
35938.7 7.65226 0.0734373
34673.5 6.51496 0.0736772
32709.4 7.92473 0.079899
27303.2 5.98061 0.0740535
18870.1 7.75973 0.0811739
28608.9 6.8337 0.0772102
24034.5 8.60777 0.089713
17065.8 6.28595 0.0793942
15713 8.09164 0.0840308
14443.9 6.51659 0.0829679
12570.6 9.20226 0.100134
12930.9 6.30757 0.0837473
12949.1 9.28998 0.0997156
10609.7 7.51767 0.0966348
9269.44 8.63271 0.101853
9880.89 7.2531 0.0975013
9888.8 10.5397 0.110006
7712.32 7.56476 0.105046
9308.71 9.95295 0.116709
7877.17 7.83609 0.106961
7533.06 10.0123 0.122581
7207.97 8.51922 0.113809
6758.88 10.7146 0.134831
6477.78 8.51503 0.134358
5995.1 10.4662 0.142178
4990.15 8.98678 0.129598
5741.37 11.587 0.153395
4880.22 8.87857 0.154623
4671.87 10.8669 0.170996
4580.51 9.54307 0.153246
4957.82 11.3406 0.169397
4821.74 10.3612 0.181136
3951.3 12.6124 0.206707
3978.56 9.44565 0.172774
4318.17 11.2731 0.199315
4198.11 10.2593 0.184883
3601.58 12.4497 0.220492
3505.8 10.9391 0.21927
3647.93 13.5246 0.243919
3573.08 10.0345 0.200064
3497.1 12.7759 0.256621
3593.1 10.7625 0.24138
3599.64 13.3317 0.280793
3107.92 11.3992 0.26465
3192.36 13.4942 0.292291
3171.88 12.1737 0.280029
3096.39 13.3673 0.31765
3195.92 12.6438 0.310908
3142.87 14.6233 0.367385
2874.2 12.76 0.331749
2764.35 15.2808 0.412059
3009.36 13.839 0.375938
2522.46 13.7746 0.393608
2487.53 13.2505 0.374425
2405.23 15.5537 0.448993
2237.59 13.9197 0.417577
2283.47 15.7444 0.479638
1969.41 13.7419 0.438011
2179.67 14.7119 0.457736
2111.54 14.0396 0.463748
2180.03 15.706 0.499772
1992.61 14.5706 0.49749
1914.15 14.7469 0.503406
1891.89 15.2672 0.546808
1774.05 15.617 0.577773
1695.35 15.1992 0.535251
1717.05 15.8613 0.602732
1530.7 14.9488 0.592002
1651.88 16.6349 0.626157
1713.46 15.3489 0.597086
1353.16 17.3401 0.693675
1459.53 16.0929 0.681567
1474.6 16.8833 0.693252
1377.18 16.0527 0.680899
1217.28 16.8346 0.722442
1489.39 15.8856 0.716595
1393.51 18.1658 0.808732
1275.11 15.0969 0.684545
1396.99 16.42 0.78918
1433.37 17.7077 0.846502
1295.17 20.7721 0.963948
1361.25 16.9512 0.820077
1311.02 18.8998 0.939271
1056.79 16.7278 0.862152
1156.2 17.2687 0.884907
1429.04 17.1389 0.919548
1227.23 19.5642 1.03638
1194.02 16.7129 0.877656
1208 19.0481 1.04224
1181.09 17.2752 0.957396
943.483 17.9348 1.01308
1178.28 17.5508 1.00218
1035.21 19.4118 1.11793
1041.06 17.9922 1.09988
956.787 19.4995 1.21597
1098.86 18.3076 1.11009
1046.9 17.597 1.12044
831.257 19.3292 1.26948
971.398 19.7674 1.30185
1020.79 17.6317 1.16702
761.503 19.5325 1.30557
774.921 17.6695 1.21677
897.673 20.0516 1.37487
835.217 17.6222 1.23775
931.937 18.7808 1.34401
761.396 20.5779 1.47795
794.781 18.3876 1.37038
991.758 19.496 1.4451
871.163 19.6317 1.48594
841.421 19.3003 1.48371
796.388 18.8192 1.46227
698.06 20.0354 1.57369
738.473 19.548 1.56221
688.881 19.2907 1.58289
724.383 19.7457 1.65927
728.521 19.1716 1.63877
670.195 18.9884 1.69507
723.8 19.5366 1.69328
709.755 19.5586 1.69955
737.798 19.1619 1.72332
745.663 19.31 1.77477
638.967 20.6318 1.90507
633.794 21.6798 1.98789
657.889 18.4629 1.73829
674.484 20.7148 1.99488
666.301 19.0294 1.85321
572.24 19.8081 1.96657
637.606 21.0664 2.11129
653.352 21.2217 2.16507
615.261 19.4969 2.01093
536.672 19.7491 2.08148
614.15 19.3807 2.05785
552.421 19.0564 2.03619
571.009 18.8803 2.07887
573.712 23.6389 2.57556
544.369 19.8978 2.2092
591.514 21.0371 2.31974
612.099 20.9781 2.35649
556.621 20.0756 2.3228
542.478 20.4005 2.33554
495.507 21.2129 2.50069
573.551 21.6438 2.53029
497.556 20.3715 2.44278
464.287 20.1241 2.47727
476.653 20.9146 2.59326
445.552 21.0074 2.6482
495.469 21.4108 2.69269
477.791 21.2955 2.73814
546.745 20.4914 2.6427
540.167 20.6651 2.69651
450.471 23.0781 2.97895
411.023 22.3542 2.99456
541.742 21.096 2.85725
431.907 21.127 2.8175
448.006 20.9192 2.85187
354.31 20.5495 2.88386
371.571 23.1161 3.20298
463.85 20.9106 2.98445
401.432 20.4159 2.96553
371.569 23.5548 3.4381
420.666 21.8128 3.22323
433.208 20.8805 3.14871
398.692 22.0289 3.3587
405.25 21.8139 3.33721
420.328 22.6874 3.47923
454.736 22.0331 3.54241
352.354 22.1566 3.44205
414.153 21.7624 3.50185
419.405 22.8581 3.68159
436.225 22.575 3.71637
411.525 22.5806 3.65936
453.294 21.6144 3.62127
362.293 21.8266 3.70217
330.895 21.7531 3.67478
372.678 21.6995 3.76478
419.661 23.9646 4.16757
368.127 26.6614 4.58734
402.327 21.5844 3.75195
361.782 21.9759 3.94656
346.789 20.6224 3.67609
339.395 20.4326 3.75138
405.943 21.9571 4.03369
309.54 22.2781 4.13494
313.921 22.0732 4.12312
348.484 22.8846 4.28138
312.648 21.0894 4.04231
291.175 22.6671 4.36542
361.33 22.0556 4.34644
336.913 24.0283 4.76662
296.093 21.4096 4.2262
345.721 23.1134 4.69372
331.251 21.4721 4.30665
305.25 22.4841 4.64594
327.096 22.8831 4.68697
308.617 21.7323 4.46885
327.922 22.1661 4.62084
322.961 22.4401 4.75654
312.972 23.5608 5.0074
311.685 23.0487 4.95209
286.8 23.0268 5.03041
309.489 23.4665 5.202
304.519 24.1521 5.30768
283.368 22.3106 5.01538
303.323 22.6362 5.1575
289.611 22.4147 5.11232
309.053 21.9642 5.08066
293.721 23.0994 5.36398
308.678 24.0168 5.64573
306.207 21.8167 5.16896
289.273 22.7235 5.40823
286.993 23.6133 5.67615
266.907 22.6152 5.52828
263.988 21.8494 5.42063
265.433 23.9978 5.95508
273.426 23.3519 5.72888
252.531 21.5586 5.46766
266.195 22.3372 5.65718
262.217 22.4447 5.69835
242.928 22.8472 5.88954
240.208 21.9177 5.7249
228.603 22.742 5.95886
252.621 21.7152 5.70434
266.351 23.9636 6.29723
254.496 25.007 6.71512
222.722 22.9042 6.18621
248.44 23.0364 6.27388
235.377 23.5854 6.45061
218.438 23.0841 6.29686
207.993 22.9136 6.34493
224.796 22.6844 6.4412
234.667 24.6879 6.97274
208.103 22.9677 6.54658
215.172 23.9109 6.86858
242.873 23.9622 6.87528
215.554 22.23 6.53392
237.109 23.1603 6.812
209.192 23.9226 7.20972
213.031 24.1139 7.24752
233.45 24.4435 7.37152
189.168 21.7739 6.67589
224.456 22.1227 6.82165
211.921 23.0206 7.21696
212.369 24.1115 7.47194
200.829 23.7295 7.44213
216.006 23.6989 7.55632
203.482 23.5487 7.3672
175.497 22.6529 7.25964
196.201 24.4678 7.90629
192.965 24.3664 7.86183
193.269 23.9103 7.85798
230.416 23.4985 7.6298
224.801 23.3216 7.68948
170.245 24.2942 8.13585
211.429 22.5054 7.63337
207.019 22.1062 7.55475
198.149 24.8751 8.48838
184.231 22.2271 7.76168
186.085 22.7173 7.90938
185.255 22.7484 7.91931
199.711 22.5308 7.74732
167.63 22.3039 7.89989
197.268 23.376 8.35256
170.444 23.5989 8.3992
182.03 23.5253 8.63576
164.622 22.8362 8.3215
176.009 23.7343 8.78883
174.65 23.1239 8.47176
163.692 22.94 8.56556
150.241 22.9182 8.60383
128.541 22.2588 8.44147
124.905 23.5945 8.89734
190.855 23.5381 9.1699
153.463 29.2942 11.0005
123.653 23.5847 9.06809
152.338 24.742 9.51429
134.979 22.806 8.98758
149.157 24.331 9.57202
163.789 23.2067 9.1701
157.297 22.9342 9.18863
155.096 23.0415 9.11959
167.317 24.7515 10.1895
150.884 22.9985 9.29607
145.479 22.6936 9.25584
169.519 23.0466 9.47852
142.622 23.6986 9.82041
162.377 23.1399 9.5962
144.116 22.9555 9.70896
157.264 23.3399 9.7426
151.343 24.8433 10.5747
150.892 23.2536 9.93694
150.817 24.226 10.4584
134.811 22.8317 9.83222
129.951 23.8009 10.2421
177.008 23.8247 10.4415
162.517 24.0434 10.7301
136.739 22.1879 9.95451
131.14 22.7327 10.11
133.042 22.7151 10.3548
126.365 24.1376 10.8774
137.572 23.8699 10.9292
137.869 23.355 10.7375
130.472 22.0951 10.3446
120.191 22.4771 10.6282
148.72 23.2748 10.8244
134.933 23.6633 11.0395
127.43 22.5605 10.7836
154.008 24.8922 11.7873
134.74 22.9803 11.2322
132.139 23.6823 11.2081
131.129 23.8497 11.6423
126.668 22.8242 11.0559
128.05 23.6919 11.4948
124.246 22.7275 11.3232
113.535 23.5072 11.5864
124.385 23.8652 11.8894
112.532 23.6469 11.8388
112.388 23.5331 11.7096
112.865 23.4353 11.9947
114.669 23.4332 11.8295
129.913 23.8084 12.27
106.097 24.0466 12.4118
106.347 22.8447 11.7772
124.791 24.0249 12.4887
127.232 23.4563 12.2416
106.414 22.8295 12.0268
109.376 22.8909 12.2287
111.608 23.472 12.6044
120.882 24.0244 12.7343
111.488 22.5107 12.1174
123.816 21.8728 11.8107
125.728 22.4935 12.2882
116.305 23.1778 12.5887
116.568 23.2368 13.0675
124.033 22.5415 12.3534
121.293 23.5089 13.1422
123.839 23.9887 13.4765
112.978 23.0634 13.0156
125.882 23.6802 13.3819
120.26 23.3677 13.3535
138.091 24.6868 14.1703
117.927 23.0109 13.2438
119.218 22.082 12.7218
116.375 22.5666 13.2334
120.523 23.4166 13.4718
113.383 23.712 13.7589
99.1105 22.8039 13.5515
115.421 23.9439 14.2282
115.886 23.1349 13.8935
110.298 22.8063 13.5856
98.1333 23.0296 13.642
107.579 22.9667 13.9027
107.943 23.3453 14.2431
102.887 23.204 14.1683
98.1959 23.0037 14.1171
95.4374 22.0102 13.5785
98.6688 23.3879 14.6848
103.415 23.0673 14.4281
105.957 23.916 15.0706
86.8201 22.9362 14.4919
104.959 24.5904 15.4309
102.983 24.36 15.4201
97.4637 22.3254 14.4145
87.8793 22.9045 14.7165
102.258 23.1812 14.8845
98.3653 24.9654 16.0542
93.2918 22.8964 14.9663
100.016 23.1527 15.2675
96.4208 22.5748 15.0938
95.6183 28.1647 18.2423
102.481 22.7321 15.4443
97.1026 23.1994 15.3382
86.2446 22.6349 15.5358
97.816 23.2557 15.7579
111.366 22.8286 15.2407
96.55 23.2969 15.9843
100.319 23.7773 16.3267
92.9856 22.6805 15.6211
100 23.6633 16.3289
83.9049 23.468 16.6673
97.2707 22.9415 16.1671
84.2948 22.0141 15.5246
97.5426 23.4296 16.7157
86.2916 23.4982 16.7528
100.952 23.076 16.3395
95.5093 22.0471 15.9345
80.173 22.8824 16.4959
90.1295 23.7683 17.228
100.041 23.493 16.9274
80.6403 23.3206 16.9272
79.9405 22.0353 16.5076
92.9375 23.6809 17.3808
90.1069 22.8023 16.807
88.8072 22.7435 17.0279
81.5111 22.9959 17.2295
88.8053 23.2408 17.3
93.7631 22.4048 16.9506
84.7538 23.2862 17.5877
92.0399 22.5017 17.3122
81.3565 21.7525 16.5924
77.6057 22.7887 17.7502
84.0603 22.2874 17.211
80.7736 22.8575 17.7996
81.9446 22.5223 17.2878
78.5804 22.2692 17.1664
72.7512 22.6786 17.8639
78.0602 23.3118 18.4527
74.2898 22.6891 18.2768
76.8063 23.0675 18.0585
80.584 22.0139 17.5004
72.25 22.7079 18.1411
71.3109 23.3386 18.5301
75.9643 22.9531 18.5443
81.4677 22.7337 18.7108
81.0221 22.5915 18.1564
66.5537 22.5816 18.4861
80.8843 22.8818 18.8983
82.0613 23.2268 19.1384
77.6324 23.8906 19.5096
77.5025 23.1378 19.2858
79.5241 22.5759 18.5664
73.0259 22.2892 18.9718
75.3479 21.9951 18.4905
77.9583 22.7318 19.1293
78.8121 23.4211 20.3803
81.5698 22.5222 18.8616
87.3714 22.907 19.9224
79.4804 23.0583 19.83
81.2392 22.8875 19.5044
72.3241 23.1304 20.2684
80.1235 22.8348 20.0507
69.9812 23.0772 20.2786
70.5719 22.8834 20.2523
68.7565 23.2267 20.417
62.6558 22.3888 20.2832
72.3481 22.3093 19.6807
67.7885 22.6758 19.9901
87.9729 24.0474 21.5978
79.1769 22.9667 20.6661
60.6804 23.2812 21.0941
66.098 23.0756 20.9494
89.7049 23.3336 21.353
66.6459 23.3161 20.9672
70.0791 22.9145 20.9038
59.2507 21.9736 20.0599
61.8019 23.3916 21.8306
79.1598 22.2393 20.6738
64.9558 22.1794 20.6163
59.958 22.6116 21.3041
63.4336 22.6878 21.3256
67.2334 21.9387 20.641
63.9241 22.5088 21.3698
64.7984 22.1658 21.1272
68.1598 23.1507 21.9706
73.8164 21.9111 21.1202
58.0436 22.0019 21.2723
67.637 22.7083 22.2066
65.3245 23.6093 22.7282
69.54 23.7024 22.793
66.2184 22.1139 21.6947
66.5554 22.5771 21.8208
60.0204 22.1519 21.7299
58.532 23.6487 23.5424
65.8562 22.6688 22.9978
70.0315 22.5007 23.1825
62.3466 28.0482 26.8799
65.2189 22.3428 22.6138
67.0661 22.2999 22.9096
59.9482 22.1749 22.3686
65.0412 22.1982 22.681
72.6552 22.6684 22.8536
58.4812 22.9273 23.2097
62.1015 22.9512 23.9952
60.1423 23.1734 23.3688
58.9179 21.77 22.8322
59.6365 23.5683 24.166
64.1854 22.0389 23.1924
63.5664 21.6183 22.5411
57.494 21.9069 23.175
65.0113 22.6116 23.945
64.5608 22.1805 23.0764
58.7563 21.6533 23.3597
66.5564 23.3042 24.5924
62.5404 22.1317 23.6272
65.8421 22.5592 23.8297
61.6426 22.6511 24.8212
59.4526 22.9111 24.3825
57.1536 22.2817 24.3754
56.4608 23.1767 25.2552
58.2384 22.3809 25.1874
56.859 22.1527 24.4005
55.9179 21.3956 23.6008
55.6784 23.308 25.1352
56.7699 21.8905 24.8621
61.0068 22.375 24.1325
52.3378 21.3231 24.0433
62.5607 22.7625 25.401
58.9064 22.6385 25.0297
57.3224 22.7797 26.0988
62.1317 22.3298 25.7143
55.0669 23.0317 26.0756
57.4154 22.0355 25.1966
57.055 22.4731 25.6546
53.1377 22.3292 25.5102
55.5588 21.7275 25.2428
54.5721 21.3516 24.7811
63.7484 23.0058 26.3595
52.6919 22.0421 25.3743
52.5812 21.6172 25.4074
51.9968 21.4011 25.0589
57.5501 21.9461 26.1028
51.8996 22.0314 26.0968
59.7095 21.5587 25.1962
52.1722 21.7507 26.1193
57.5272 21.8683 25.6238
53.3776 21.7874 26.1854
50.6261 22.6348 26.541
51.8798 22.3726 26.866
52.2891 21.6773 26.481
51.4886 21.5406 26.4484
50.9446 22.2395 27.0152
52.9788 21.9384 26.9409
59.3696 21.7101 26.7993
51.5009 21.341 26.4089
57.1655 20.8699 25.4806
51.9903 21.4974 27.0407
49.6287 21.0337 25.9224
51.6572 22.2609 27.4012
48.3509 22.0411 27.74
50.149 21.0905 26.3821
52.7904 21.901 27.7029
53.8486 21.4683 26.9452
47.9513 22.8382 28.6662
56.9562 21.8856 27.4713
48.4263 21.2205 27.1005
44.6021 21.6055 27.4928
51.784 21.4751 27.4696
44.5663 21.8633 28.1782
43.7931 22.4295 29.3198
55.4296 22.1544 28.0198
50.9322 21.0148 27.8449
42.3492 22.0502 28.9445
56.7399 22.4698 29.4094
52.8701 22.5591 28.9515
49.1136 22.1703 29.165
45.2353 22.313 29.1526
49.4776 21.3113 28.0573
49.0401 22.1906 29.0937
53.7203 23.4228 31.1465
50.063 21.6326 28.8498
50.7727 23.1182 31.06
47.6598 23.2906 31.1769
49.7366 21.7083 29.3423
44.2007 21.7203 28.89
48.6158 23.0007 31.4384
46.711 22.7434 31.7624
45.4435 22.6488 30.7584
44.5739 22.4542 30.7902
38.1204 22.5807 30.9397
39.1776 21.9355 30.9084
63.3116 22.1122 30.9531
42.0398 27.5406 36.6616
40.0056 23.1234 31.394
47.4763 22.5556 31.493
43.2634 21.3026 29.7457
46.6148 22.3509 31.6127
45.5983 20.8672 28.8959
44.1604 21.9184 31.1658
43.518 21.272 30.0758
44.5786 22.221 31.4215
39.1955 21.4127 30.3476
42.505 20.5738 29.3287
41.7479 21.3925 30.7706
37.012 21.442 30.8293
42.5084 20.8373 30.2341
41.7206 21.5237 30.9011
41.4079 20.9308 29.948
39.4945 20.4143 30.0786
45.2655 21.2139 30.6923
39.1396 21.2239 31.2859
37.3669 21.3682 31.1574
39.4987 22.5605 32.9138
45.2337 21.4739 31.2721
42.6797 20.1564 30.3748
44.3478 21.7739 31.6369
37.8574 20.1016 30.3476
41.8887 22.238 32.9897
39.232 21.6832 32.2412
41.434 20.7124 31.3101
43.2318 21.8322 32.073
38.9217 20.2668 30.3401
31.3296 20.8638 31.2138
42.6825 20.8316 31.3909
39.151 20.8878 31.6098
41.9112 20.6353 31.6276
40.9471 21.8173 33.9435
43.2863 21.4998 32.2232
39.4614 20.9739 32.0097
39.2539 20.6469 32.1705
37.7324 21.7418 33.0952
36.7312 20.8291 32.2668
37.1314 20.5206 31.6474
36.8687 21.3867 34.3311
41.2782 21.5739 33.0197
34.05 20.8647 32.2008
36.976 20.9403 32.8789
40.6758 20.3896 31.5378
37.6489 20.7577 33.0651
38.1423 21.8107 33.7123
34.4107 21.421 33.4012
36.3889 20.2748 32.0278
38.4559 21.1151 33.7405
42.4193 20.32 33.2806
37.1314 21.6954 34.0306
35.8893 20.5697 32.8846
38.0889 20.1876 32.9259
38.6111 20.5605 32.8593
34.2108 20.3254 32.7982
38.6726 20.4907 33.4566
41.0633 21.6131 35.2585
38.2656 21.2827 34.5152
39.6049 21.5929 35.0907
39.9169 21.2069 34.4508
38.5602 21.1279 35.1624
38.298 20.5705 34.5635
34.8361 20.008 33.4019
37.7124 20.8891 34.021
36.8849 19.8024 32.9993
39.052 20.1614 33.5755
37.9338 20.1405 33.1454
39.2777 19.6677 32.8491
35.9529 20.0451 33.6734
38.1977 19.944 33.5731
38.3618 20.5765 35.7105
31.7943 19.9763 33.6839
39.4739 20.6122 34.7602
39.3585 20.1477 34.3374
36.5905 19.6688 33.7315
32.5648 19.8928 34.6145
37.9978 20.6239 35.4385
35.7113 20.5105 35.5969
38.0246 19.315 33.1427
33.1474 20.3172 35.0887
35.681 20.3522 35.0042
36.6351 20.7402 35.7736
36.5776 20.8622 35.4665
36.6809 19.9506 35.1768
31.3444 19.8834 34.9771
38.885 20.7219 36.5291
36.0846 20.9991 35.7669
32.7053 20.3027 35.5603
33.7558 20.5921 36.6604
38.1496 20.1109 35.4963
33.4698 20.6013 36.1456
31.2489 20.7654 38.1775
37.296 20.2247 36.9228
37.3925 20.725 38.8243
35.0514 24.3937 40.0857
33.9644 21.0307 36.425
36.5079 21.0309 38.9368
31.2577 19.7049 35.7561
36.3462 20.2411 36.3009
36.2772 19.8141 36.1627
32.4633 19.7978 34.738
33.7345 18.9263 35.6203
35.0823 20.4798 36.3481
33.4996 20.6249 37.745
30.4301 19.7648 35.6007
32.702 19.7819 36.3928
32.7453 20.2848 37.7024
35.08 20.9993 39.8147
32.308 19.894 36.1507
39.0448 19.3604 36.5041
38.4581 20.6236 38.6425
34.3741 20.0377 36.4212
36.2457 20.0435 37.4942
33.0307 19.6405 36.52
30.9287 19.5314 36.5084
33.356 20.1439 37.1665
31.3854 20.7226 39.3125
31.4021 19.8927 36.9951
30.3517 18.6011 35.8568
30.8726 20.0689 36.8472
33.7482 19.5045 36.5834
34.2698 19.1981 37.5716
28.9591 18.1673 35.3912
34.0974 19.7315 37.9659
32.5054 20.2794 38.2553
32.1339 18.7853 36.2814
30.5053 20.2662 39.0279
33.5955 19.4059 38.2552
34.8932 20.0513 38.1609
31.7862 20.2468 39.495
30.3097 19.5008 37.4458
32.3977 19.1648 37.181
28.9009 19.276 37.0115
32.4216 19.5029 37.6961
29.0117 19.338 37.551
25.7421 19.1341 38.1502
29.6584 19.4143 38.7579
31.0876 19.7844 38.0124
33.4065 18.9742 38.1776
31.749 18.841 38.4631
25.3868 18.891 37.9825
34.1901 20.0385 39.8733
31.4598 20.5739 40.6867
31.7556 19.6231 38.8761
32.1464 19.2529 38.5377
26.1531 19.5142 37.9459
29.5218 19.5954 39.2612
29.4697 19.636 40.0143
30.3401 19.584 39.2339
30.5156 19.3255 39.8604
29.8595 19.5074 39.2189
34.3348 19.5571 40.3084
31.0192 19.0333 39.0451
30.8204 19.8358 38.7095
29.1159 18.7926 39.4828
35.1437 19.7118 40.1999
30.5195 19.2038 39.577
29.7543 19.7671 40.6694
28.7353 18.9771 39.5974
28.2564 18.4464 38.7648
31.2522 19.4095 40.5133
27.8926 19.3051 39.8607
34.7282 19.4001 39.449
31.2174 19.4793 40.7946
26.2042 18.8368 37.7488
28.773 19.8135 42.1175
34.9815 18.7915 39.372
26.5394 18.7599 40.0422
28.4399 20.1191 40.5831
26.4109 19.0561 41.1294
26.2691 19.33 41.294
26.4667 18.8878 39.9335
28.0586 18.9123 39.6945
26.0548 19.6641 42.9187
23.6708 18.8717 41.4788
28.1257 19.0491 39.0302
27.7024 18.6576 39.9817
26.1711 18.5095 40.2838
29.718 18.6824 40.6729
29.4726 20.7185 44.4207
25.0216 19.4214 41.1337
26.0401 18.7171 39.4182
27.3899 19.6711 43.144
30.5884 19.1137 41.0887
24.2752 17.497 38.9195
26.2367 18.8984 40.2087
28.2247 18.0813 39.1337
25.8288 18.2464 39.9481
27.2409 18.1915 40.3294
29.6621 19.6464 45.7328
26.5593 22.4293 44.7254
30.0642 19.3319 42.9363
28.5054 19.3146 44.345
26.0717 18.7317 41.2158
27.8 18.886 41.8446
31.4724 17.8748 40.3338
28.6855 18.8426 42.3232
27.446 18.7563 40.3164
26.0533 18.0185 41.3005
27.6329 18.9719 43.161
25.6414 18.9893 41.3852
30.8483 17.9797 42.5473
27.4233 18.6318 40.8776
26.4163 18.505 41.587
32.6636 18.424 42.0516
31.5996 18.3699 40.601
26.4416 18.033 41.6833
31.5065 18.6219 42.5331
28.1688 17.9948 41.6665
33.4657 17.8011 41.1452
25.5462 18.4163 42.147
25.6046 18.8518 43.0918
27.456 17.8356 40.983
25.9091 18.554 42.5031
26.8707 18.2064 42.008
26.747 18.2288 41.1994
24.0427 17.543 40.3792
25.7271 17.5594 41.7836
24.2837 17.0603 41.4783
24.8424 17.9921 41.7399
25.785 17.7747 40.6756
25.1543 17.3572 41.1208
25.1086 18.4221 41.5443
26.019 18.3343 44.0093
28.4438 17.6606 40.5355
23.1493 17.0302 40.2016
24.1594 18.0213 43.1038
26.9139 18.5953 42.3218
24.6329 18.2387 44.9236
21.3356 17.704 41.9245
24.6954 18.053 43.1191
30.159 17.9751 42.7025
23.7157 17.5517 41.9028
26.5056 16.7901 40.1471
23.9951 18.1085 44.8505
28.7302 17.577 41.5652
24.1899 18.6653 44.9472
25.3348 17.6338 42.5524
27.5436 18.5386 43.111
26.3282 16.6428 39.8625
23.1212 17.5213 42.6079
26.0137 17.3219 43.3691
23.5001 18.1193 42.5292
24.856 17.2387 40.9533
29.0042 17.5203 42.7318
24.7819 17.2419 41.8727
23.7466 16.6766 41.9221
27.0222 17.982 44.9541
24.6113 17.6169 44.1943
29.544 17.5664 42.5927
26.041 17.9961 44.1911
23.7109 18.0907 43.6038
23.8121 17.3591 43.4956
22.6243 17.0782 42.4577
26.6994 17.5219 43.4918
24.738 18.3952 45.0867
25.3105 17.2336 43.8476
23.4036 17.2541 43.0239
27.9764 17.3687 43.2819
22.868 18.854 46.5627
21.9067 18.0208 45.3415
22.5405 17.106 43.8068
23.7078 16.7074 42.9661
21.7629 17.1563 43.1187
25.946 18.0612 44.9918
23.2789 17.0199 43.336
21.2647 16.5249 43.1045
29.9701 18.0797 44.9184
26.3792 16.6812 41.9789
21.1615 17.0283 43.8307
25.4012 17.3118 42.4888
23.2104 17.4956 44.9815
26.4067 17.4246 44.4411
27.8461 17.1187 42.5988
22.6959 16.5567 42.9071
25.2821 17.3924 45.5733
27.5416 17.5101 44.8186
25.5943 18.0513 46.4928
23.1379 16.7113 41.728
24.7553 17.5089 45.9192
23.9138 17.4706 46.1308
25.1987 17.6068 44.1963
24.2234 16.5983 43.9221
22.9979 17.8812 44.7672
25.4598 18.1454 47.2556
40.8845 17.8209 52.9848
23.4302 20.2749 48.6309
26.5023 17.2648 44.4822
29.4091 17.6524 46.9281
27.4137 17.1144 44.2314
24.8708 17.3508 44.6895
24.4293 17.6571 45.4057
23.7204 17.1191 46.226
23.5739 16.7097 44.0327
24.2249 16.7841 42.9363
21.4288 15.9889 43.0882
22.746 15.8424 41.9781
21.1883 16.7611 44.1513
19.3372 17.0888 47.1449
23.9975 17.3548 45.0964
22.4662 16.555 47.0307
22.9598 17.7389 44.4419
24.3154 16.5638 45.0792
23.8019 18.058 45.8815
21.0577 16.1407 42.5065
18.3869 16.2982 45.7797
20.5533 15.7747 42.1587
22.0072 16.686 47.8574
19.853 16.5813 44.9422
19.6598 16.4964 44.0754
19.7282 16.2947 43.1599
20.1017 16.7018 46.0278
20.1742 16.6478 46.592
21.6293 16.0274 43.5456
21.5067 16.9792 45.1993
21.3597 17.3768 46.3939
18.5986 16.8641 46.3087
23.6695 16.5595 45.7024
21.1285 16.7871 46.0726
23.3785 17.7689 48.5768
23.3512 16.3295 43.9585
26.7246 17.2379 47.9125
21.8617 16.2496 45.4669
22.818 17.5993 47.7757
21.4815 17.3641 49.2003
22.037 16.2821 42.439
20.5148 16.2871 45.9247
20.6348 17.2151 47.1844
23.4044 15.8353 44.7884
19.756 15.6967 44.1119
21.2632 16.4452 46.2634
22.6986 16.9655 47.725
20.7683 16.0391 44.4315
21.6533 16.0331 45.8284
20.4165 16.4916 47.6884
20.1342 16.4607 45.6552
20.4 16.1221 44.2039
22.9685 15.9213 44.1342
20.5655 17.0304 49.36
20.3896 16.6337 46.9026
20.3255 15.7353 45.4872
20.1033 16.2644 44.5082
16.6801 16.3524 46.304
20.4244 15.5307 44.0095
20.5051 16.3097 47.8573
19.6461 16.6667 45.6714
19.6706 16.2437 47.1911
22.431 16.5359 47.2192
22.3946 15.7514 43.3492
18.6484 16.058 46.2457
17.6143 16.697 48.897
21.9778 16.3378 47.8161
21.4967 16.2062 44.5413
20.7222 15.8704 45.9883
21.7652 16.4349 47.5988
22.727 16.5817 46.8273
21.4316 15.4626 43.5675
22.3825 15.9221 45.9307
20.7174 15.865 45.291
16.1648 15.168 44.6799
19.7818 14.9605 44.6506
21.6956 16.303 47.9747
18.8777 15.244 44.124
18.8837 15.0112 45.588
20.8631 16.2631 46.1771
21.0415 15.9473 47.5471
21.474 16.3637 44.9643
19.276 16.3826 49.5836
20.5521 16.115 47.3978
22.6755 15.1595 46.9435
21.0448 15.9919 45.27
19.8888 16.3699 47.6242
18.6708 15.4248 46.1616
23.6759 15.2964 44.6082
20.0484 15.7038 47.9353
20.5931 16.4713 48.1069
19.7493 15.6853 47.4496
19.3414 15.8389 46.5692
17.7347 15.4072 46.2131
17.2629 16.1692 48.8937
20.2198 16.1079 48.4399
19.7227 16.8777 57.806
19.5159 19.2171 50.6113
19.576 17.0241 51.6552
20.4858 15.4101 46.3906
19.7567 15.8282 47.5615
20.6534 15.7631 45.8652
18.6435 15.8944 48.2252
16.4294 15.7157 47.7062
17.7494 14.911 45.0792
18.6927 15.1498 47.1914
18.9605 15.0022 44.4101
15.5174 15.0126 48.4156
20.3333 16.292 46.6936
17.325 15.182 43.4913
17.3509 15.1547 46.6086
17.1631 15.1735 48.1439
20.0067 15.6984 47.0971
18.7464 14.8324 43.7299
18.9363 15.0715 46.1756
19.0648 15.2919 46.0958
19.5547 14.3395 45.1799
20.0298 15.1055 46.8089
20.5742 15.8634 47.8666
19.8148 16.1838 46.9879
17.5045 14.9854 46.6584
19.0194 14.8657 48.1066
20.1631 14.6957 44.8845
18.0568 13.939 45.854
20.8438 15.8498 47.1126
18.3352 14.5389 44.2508
20.5671 14.4352 43.6043
18.2566 15.3722 49.9949
19.0224 15.9864 49.682
17.1598 14.5763 44.7519
19.1533 15.1051 46.7027
18.3299 15.7785 48.4409
17.7946 14.7629 46.6124
16.8667 14.9901 47.3992
18.2203 14.7649 45.5104
17.2654 14.9271 48.9949
16.861 15.8278 48.5278
17.7931 15.3767 46.9409
15.3419 16.5966 51.6255
18.6943 15.1599 49.9298
17.9776 15.7545 49.818
19.0294 15.4802 47.8233
17.4238 15.2397 46.8736
15.8044 14.8644 49.2293
19.0404 14.539 46.2142
17.2427 13.7512 44.733
18.4708 14.8518 46.253
17.5585 14.6439 47.1857
16.4652 14.4727 46.9105
17.5615 14.3702 44.3808
18.3606 15.689 51.5405
19.6843 14.3213 44.869
19.4864 14.3183 47.6159
19.8091 15.7911 46.8586
20.3212 15.3819 50.3206
19.0141 14.7857 47.2799
22.5395 15.2266 48.8201
17.6845 14.4353 47.3303
21.9492 14.3494 46.736
19.7456 15.2165 49.0469
19.7755 15.5446 48.123
17.3562 15.15 47.2545
17.54 13.985 44.7114
17.4204 15.3343 48.9853
17.3365 13.9461 46.9645
20.086 14.1778 47.1208
18.1257 13.8183 45.0978
15.96 14.9925 47.0246
18.272 14.8747 47.405
22.9271 15.3285 50.1022
16.6109 14.716 50.1476
19.6673 15.9909 50.2567
19.4738 15.6136 49.8497
16.0221 15.195 49.7152
17.8853 14.7083 48.8231
20.6394 15.3744 48.1694
17.1412 14.7647 50.4584
16.0127 15.3138 51.1983
18.2493 15.2488 48.4513
18.1799 13.8573 45.9218
16.0318 14.1434 46.7368
17.5748 14.146 44.7016
19.6559 14.6622 48.4698
14.9544 13.9243 46.6366
15.4493 14.7006 50.7741
18.0999 14.7701 47.5319
17.7805 14.6831 48.1134
15.3641 14.9236 48.2334
15.3019 14.882 49.1461
17.306 14.1302 48.8224
16.8765 14.2463 45.2897
16.3961 14.1579 46.8872
17.1355 16.6451 61.4758
17.393 17.4763 52.6097
18.8123 14.9662 48.8199
17.5351 14.4727 48.3184
15.5816 14.3442 48.3052
16.3954 14.8484 47.8701
19.6433 13.8144 48.2721
17.0588 14.8043 47.9442
17.7851 14.5918 50.2929
17.6252 15.1405 50.2101
18.5405 15.1522 50.0431
17.4565 14.4804 47.4845
20.1467 13.8327 49.318
18.6244 14.5365 47.8776
18.3946 13.9983 47.2149
18.9056 13.9667 48.7094
18.8777 14.0395 48.6096
16.9215 14.7522 47.4593
18.717 14.8992 50.2115
17.9156 14.3769 46.8729
19.3206 14.4058 50.1209
15.168 14.4589 49.2271
17.6609 14.1438 46.8306
15.7192 14.2347 50.0768
14.9732 14.5961 48.0031
16.706 14.386 52.6818
16.3216 15.4007 50.6798
17.3902 15.0602 50.5996
16.4466 14.9044 50.3249
15.4707 15.0439 50.309
16.5022 15.1726 53.8791
17.0113 15.5237 49.826
16.5286 14.6092 49.77
14.1263 14.3785 48.8462
14.8852 14.9077 53.7007
19.3966 15.0502 50.717
14.3336 14.166 49.2748
15.9012 15.5052 52.3666
17.3672 14.2275 47.7914
14.3808 13.9767 48.7654
14.7049 14.8899 51.2949
16.1588 14.8005 51.8002
17.4844 14.6794 49.4163
15.5287 14.2014 49.4548
16.7117 13.5327 46.8433
17.9438 13.7975 47.7372
18.6382 13.9578 49.6877
16.634 14.5052 50.5923
19.8521 13.9347 49.7039
18.8622 14.5236 49.9422
16.8372 14.4766 49.2417
15.3726 13.2437 50.6079
17.7547 15.1241 50.4064
16.1325 14.3051 46.6532
15.2891 13.0569 44.7776
16.4366 13.8118 46.4256
17.7154 13.4101 48.7901
16.4649 14.2012 50.2904
16.9014 14.4606 49.3443
17.3427 13.785 48.8024
18.1435 14.071 51.4847
16.462 14.3272 50.9744
16.5048 14.1357 50.3833
15.7964 13.9523 47.017
18.2502 14.6318 49.928
17.9175 14.3479 52.2111
18.4263 13.922 49.275
19.6711 13.7206 48.1022
16.4798 13.5429 48.2904
20.3015 14.3847 49.8946
16.9851 14.24 53.572
13.858 15.1235 50.9924
16.0595 14.3166 50.0611
14.7217 14.256 50.5591
14.3469 14.1085 50.3976
15.8436 13.3003 48.6348
14.1351 14.5857 48.3575
15.1855 13.2526 47.5611
17.7702 12.7287 46.8908
16.5013 14.1957 49.7816
16.1858 14.0293 49.9694
16.2498 14.0399 50.1062
15.434 14.778 53.3616
16.8276 14.0642 49.9967
17.5332 14.2935 52.0418
15.864 14.6337 52.238
15.6323 14.0634 52.134
18.4508 13.4236 50.0724
17.0158 14.7142 53.1443
16.0004 14.308 51.075
18.7841 14.2088 51.0847
16.9124 13.6956 48.7485
17.587 13.8517 50.6658
18.2497 13.9092 50.4885
16.1023 14.3061 50.3704
20.4979 14.4802 52.0531
31.3712 15.8601 63.4956
15.9472 16.207 53.2603
25.6259 14.6659 52.8643
24.7473 13.9622 50.5791
20.5408 14.3367 53.4609
19.3321 14.685 52.7269
19.6115 13.8533 48.361
17.5184 14.0957 52.7695
17.5519 13.7806 48.4897
15.6123 14.3869 51.9284
15.5963 14.0564 50.4447
18.1071 13.7354 48.7155
13.5317 13.6635 51.5026
15.3027 13.3209 50.0745
16.5257 14.3354 49.7238
15.1746 13.6912 51.8009
13.7378 13.5839 48.4491
15.5274 14.338 49.4927
15.4965 13.6178 49.1612
14.5629 13.9609 49.9183
13.6092 13.5063 48.4252
14.6388 13.0523 49.495
14.5224 13.8777 50.8694
14.6781 14.3214 52.9769
14.4827 13.6889 48.5442
14.3611 13.2145 50.8368
16.5606 13.6427 49.6134
13.4046 14.497 51.0106
15.5505 13.4592 49.4771
18.4618 14.1016 51.1986
15.5433 13.424 50.1831
14.3809 13.8026 48.0992
17.6789 13.1753 48.4583
16.0733 14.2027 50.8972
17.1713 13.6849 50.7591
15.7823 13.178 50.1519
16.9642 13.2523 51.8211
15.7363 13.2135 48.7841
16.5756 13.2256 47.3535
15.7441 13.1289 48.5308
15.1574 13.7101 49.7984
14.3612 14.0765 52.321
16.2438 13.1828 51.0481
16.1894 13.6893 51.5521
12.8172 13.5563 49.3072
14.769 13.0563 49.7845
15.778 13.5541 49.7602
14.1772 13.6295 48.1952
15.8677 13.686 48.6486
15.0044 13.6822 51.4398
15.0924 13.6796 51.4734
15.1133 12.7741 49.7513
17.5423 13.9569 53.9505
15.6134 13.8087 49.8637
14.5042 13.4658 50.4009
15.5817 14.0257 50.7763
15.8254 12.795 47.8885
12.9814 14.0033 49.5096
14.3696 13.2084 51.0556
14.7025 14.2002 54.3066
15.2554 13.2982 48.6811
14.9399 13.4501 49.2191
15.7518 13.4944 50.0798
15.2794 12.6254 50.4639
13.5374 12.994 52.0481
12.2497 14.9416 52.8794
14.6967 13.1647 50.0995
13.9347 13.2251 49.1268
13.563 12.8139 48.0233
13.5326 12.3484 45.008
15.3789 12.1506 48.1284
14.2887 12.8601 49.544
16.9715 13.9331 49.9431
15.9748 12.7225 50.2748
12.3653 13.5342 49.871
14.5382 12.9602 48.4249
15.2127 12.8724 50.5252
12.9351 13.4922 50.3235
14.8912 13.1327 51.3911
15.1429 12.949 47.9277
16.9357 12.8086 49.6131
16.8657 12.9747 50.2864
15.4841 12.6172 47.8344
17.2156 12.9571 50.5845
18.2569 13.3151 48.0023
14.5809 12.4772 47.5299
16.8518 12.5197 49.0613
14.4529 13.3986 51.3299
18.0412 13.548 49.8511
16.1286 13.6096 48.9257
15.7219 12.9527 53.1598
18.3228 13.3683 47.3444
17.3414 12.3392 48.5241
13.5532 13.1269 51.7504
14.8068 13.2465 47.9082
14.2939 12.8899 48.8722
14.1321 13.6686 63.2352
13.95 15.4833 49.6267
12.8362 12.7765 49.238
14.2952 12.8188 48.9797
13.5557 12.5101 48.5867
15.3743 13.6603 48.4973
12.4982 12.9014 50.5042
11.0692 12.4069 46.5171
14.8802 12.2449 47.1371
14.9162 12.8605 49.6858
12.5983 12.7062 47.2169
12.9021 13.2002 50.5621
14.452 13.2746 53.0826
16.8238 13.1218 48.4726
15.4225 12.9228 52.3972
14.4002 14.1142 51.9952
16.7205 12.9744 48.9801
14.0486 12.903 49.1289
14.5985 12.8925 48.8282
16.2156 11.9597 47.7011
13.9128 12.2071 47.3973
16.1325 13.0998 50.4246
16.0548 12.5859 50.8184
14.8594 13.2405 50.4315
14.4331 12.7476 49.3292
15.8609 12.8758 50.2137
15.75 13.7973 49.3847
15.172 13.2314 54.15
14.3767 13.087 47.1739
13.9402 13.4248 51.9436
17.1746 11.8841 49.5886
14.0141 13.0965 51.8982
15.946 12.7727 47.7162
13.8578 13.0393 49.851
14.7646 12.3804 49.3017
15.6805 13.1051 48.8346
14.0006 12.977 51.7157
13.4423 13.1602 49.9757
15.9293 13.1981 51.0558
12.631 13.2868 51.6542
14.5102 12.6508 49.2142
13.262 13.369 50.3511
12.6422 13.511 52.1034
15.8928 12.5522 48.9558
11.6958 12.0796 49.6178
15.8593 13.0555 48.9591
14.0225 12.3293 49.3683
12.2294 12.0482 46.9804
15.913 12.7664 49.8336
14.4781 12.0806 46.9917
14.9505 12.4117 49.9306
14.2777 13.3105 48.4941
12.2628 12.3191 48.8354
15.3784 12.4367 47.5584
13.4712 12.3397 49.4273
14.0141 12.8518 48.7668
14.2406 13.6707 53.6827
14.6876 13.0633 50.4606
15.2932 12.9281 51.5199
14.3174 13.6895 50.484
15.233 12.9329 52.8137
14.195 13.0656 49.3436
15.5426 12.3514 49.7353
14.3466 12.8194 50.9201
17.5916 13.957 52.0575
12.9964 12.7516 53.7136
14.637 13.753 52.4245
15.0664 12.1323 47.7615
14.0524 13.237 53.0148
15.3625 13.2752 51.2619
14.1015 12.6943 48.0788
11.52 12.9515 52.1909
16.6442 12.2432 48.7202
15.5575 12.9426 50.4938
12.3467 11.9808 45.6988
14.6186 13.0143 54.2338
15.1147 13.6413 52.5689
14.8876 12.8995 50.2121
13.6827 13.4053 49.8773
15.0513 12.7421 52.6384
14.8873 13.4037 54.2384
10.9815 12.9899 50.4561
15.4209 12.9561 52.6437
15.2461 13.6812 50.6881
12.6324 12.7251 50.2918
15.2493 12.9472 45.3927
14.0194 12.452 50.1008
10.8708 12.0156 52.8421
12.9403 13.3141 47.2995
12.9677 13.016 53.5145
14.365 12.5347 50.5988
11.8614 12.8164 48.6969
10.356 12.9429 52.5151
15.6198 12.6578 47.3949
12.9404 12.1811 49.366
13.4792 13.4731 51.2532
13.8564 13.6953 65.3692
13.5739 14.8788 50.3958
14.3237 13.172 49.351
13.6328 14.1484 53.9801
12.4031 12.8236 49.5101
14.4248 12.3759 48.4651
16.3384 11.8151 48.5045
14.7175 12.4702 47.1207
14.6694 11.8962 48.8608
13.3529 12.1061 47.6657
15.8061 12.805 48.6789
14.6298 12.4064 50.5984
15.6586 12.1133 47.2315
14.9067 12.0942 52.9096
16.1984 12.5029 49.1736
16.9239 12.4312 48.5174
16.1164 12.7552 47.1711
14.7224 11.7036 49.1352
14.9225 13.134 52.011
14.3468 12.5555 50.8023
15.7733 12.8309 49.7178
13.0614 12.5379 49.1887
14.3241 13.086 52.3
14.5271 12.3144 49.0946
12.3434 12.9258 47.7282
13.6439 12.6566 53.3166
15.1088 12.8618 47.8723
13.8931 11.9641 50.408
13.9109 13.4269 51.3724
12.3488 12.5997 49.7545
11.6256 11.8021 48.5711
13.9994 12.8045 49.3193
14.3225 12.6919 48.0311
10.7453 12.9956 51.1581
13.7562 12.2436 50.7378
15.4141 12.4936 51.3651
13.7028 13.3072 49.1454
14.085 12.9519 53.6989
14.4351 14.448 53.552
13.7406 13.1584 50.2023
12.9298 11.9362 48.2359
11.8679 12.2085 53.3659
14.8958 13.103 49.1541
13.1429 13.1775 50.5605
13.6013 12.5291 50.2958
15.0443 12.7591 53.9928
15.8043 12.7191 48.5236
13.0468 12.5137 50.0725
15.708 11.9632 47.1359
15.0092 12.7109 47.0686
15.06 11.7012 51.671
13.3187 13.0679 47.0063
15.6433 12.2485 52.246
14.6559 12.3228 48.5879
14.1897 13.3964 52.4963
17.0717 12.5242 47.1952
15.239 11.9045 46.9682
14.0748 11.8902 50.8046
15.7681 12.6208 46.9068
14.0455 12.0734 47.3042
16.6722 12.0157 52.6367
13.5751 13.1206 50.6044
15.3381 12.7068 52.5838
13.7388 13.3484 51.6374
15.5137 13.2188 58.509
15.3437 13.1407 48.5126
15.4896 13.2822 52.3014
14.3244 12.4484 51.35
13.7553 13.1933 52.5219
16.7214 12.3953 50.9709
14.1636 12.5324 47.8259
12.6854 12.4888 50.3434
13.7899 13.1022 49.3804
13.1924 13.3152 55.3489
13.3276 13.3387 49.4282
12.326 12.3912 51.8371
11.5387 12.4476 51.7696
12.5961 12.3722 48.5284
12.5723 12.4513 47.9874
12.6922 12.8866 49.1485
12.5102 12.6544 51.2509
14.8716 12.461 50.9139
12.9467 13.0875 52.6803
15.3382 12.8197 51.9078
16.1421 12.9206 51.8098
14.0576 12.3117 50.5392
13.668 13.2454 53.6868
16.7429 13.2999 55.7472
15.3481 13.362 48.7083
14.977 12.9336 47.9902
16.7382 12.4284 48.0331
16.6056 12.6334 57.5386
18.2834 13.4243 50.3655
17.6699 13.3142 51.7753
16.8956 14.0896 56.0257
21.0766 13.4085 52.9366
25.1079 14.676 68.7327
14.8767 0 0