# pn-170911/RbIIR-45-TWTF-1280-1959.psd
# Power spectrum* (dif=0,1,2) (really just |FT|^2)
# NOTE: only the first half! (symmetric)
# weeks: 1280-1959
# 10 clock-days, 0 excluded
# PSD: 1441
263.996 0.0550231 0.0228815
22865.6 0.603073 0.0455591
111944 1.62354 0.0569111
16355.4 0.579291 0.0523912
33204.6 2.4547 0.0514362
10997.5 0.850826 0.0480804
11602 1.94719 0.0449628
4513.4 1.05491 0.0552954
8479.98 2.44132 0.0489417
4576.55 1.46065 0.0549367
14660.3 6.50033 0.0498676
2905.84 1.62053 0.0482967
3297.1 1.85549 0.049351
1277.02 0.856436 0.0498677
5900.31 5.01747 0.0450928
1928.68 2.08387 0.0416877
4987.22 6.50486 0.0581406
1595.19 1.94047 0.0292054
5281.31 8.71494 0.0559521
1555.92 2.69696 0.0514892
3661.78 6.49881 0.065838
910.112 1.53474 0.048936
5295.98 12.1817 0.0587171
1367.98 3.30105 0.0506391
5809.59 14.7847 0.0626548
1016.26 2.74807 0.0494915
5606.22 16.9658 0.0792684
1323.5 3.97654 0.055359
5272.42 19.7135 0.148713
1411.96 4.82148 0.0652117
7308.3 31.6082 0.230159
803.654 3.32747 0.0764978
2408.44 12.2109 0.150041
648.47 2.91379 0.0683152
4210.37 21.4353 0.185829
818.128 4.74284 0.0872197
1500.85 9.59379 0.106818
1008.43 6.6495 0.0656144
2378.87 15.1062 0.202823
1163.24 8.62689 0.123223
2497.54 20.9976 0.223741
598.305 4.97475 0.0828251
3135.82 25.721 0.297384
701.967 6.20026 0.150096
2134.68 19.1392 0.273173
1372.83 12.7485 0.156817
965.414 9.91579 0.202806
1338.12 13.9851 0.254289
2162.14 24.2936 0.330251
822.765 8.27491 0.0915979
1815.23 23.5925 0.35751
1097.93 11.8673 0.192662
2284.25 27.9756 0.434736
703.513 9.49014 0.178903
2422.83 34.16 0.602091
798.389 9.61184 0.209795
1680.13 24.533 0.404595
874.756 12.3887 0.26392
1592.61 25.5351 0.455079
806.452 12.9883 0.298728
1072.16 17.8937 0.323998
1065.07 18.625 0.329433
994.156 17.4872 0.279018
489.8 8.51193 0.189128
576.135 10.7613 0.316516
986.732 20.075 0.462552
892.472 18.2511 0.353592
967.836 20.5112 0.481966
911.387 22.1199 0.656704
693.569 14.6842 0.369307
474.432 10.843 0.338073
589.472 13.3089 0.447771
978.186 24.4963 0.774979
458.133 10.3998 0.366562
641.232 15.6938 0.402239
309.362 8.89263 0.238946
673.098 17.7286 0.601988
333.535 8.93368 0.35184
985.822 28.5341 0.854354
660.44 18.2829 0.629704
1031.46 33.6338 1.04844
509.743 17.8219 0.568879
715.155 24.1023 0.731811
472.546 15.4927 0.447463
501.733 17.9499 0.630962
725.269 24.2077 0.818906
1064.43 38.4568 1.45015
503.742 17.6669 0.587761
547.501 19.5126 0.797745
540.668 19.8934 0.700817
202.693 8.97408 0.423367
376.431 14.4223 0.505445
527.899 21.2846 0.770471
234.748 9.91937 0.512308
481.097 21.7259 0.982555
638.327 27.0327 1.27412
888.225 38.7268 1.6988
389.022 18.7238 0.874329
428.012 18.5185 0.883852
398.378 17.9666 0.688526
421.877 21.3938 0.917549
287.857 13.1742 0.698712
385.439 19.6679 1.01397
492.031 24.9624 1.27672
562.682 26.7833 1.58574
225.321 11.784 0.788999
261.626 12.7578 0.784614
548.24 30.4823 1.89586
487.715 29.428 1.56791
603.175 31.2376 1.53061
332.306 18.3995 1.03094
543.243 32.5248 1.75401
288.596 19.6802 1.15643
476.311 28.2684 1.95627
476.833 30.7701 1.90745
302.758 20.0745 1.45526
238.024 14.4362 0.823402
273.879 18.8585 1.23843
325.112 22.5685 1.40785
497.549 31.7411 1.9222
281.894 17.4293 1.07933
458.356 29.7278 2.03133
483.683 34.7329 2.30581
255.84 17.2148 1.2253
233.707 15.838 1.26165
368.847 27.921 2.22068
326.646 26.361 2.10227
334.331 24.6907 1.82782
464.448 36.5156 2.68831
171.168 14.82 1.27026
457.779 38.0934 2.93506
157.448 14.2536 1.37309
154.874 13.7501 1.07558
331.478 26.8007 2.41367
298.799 26.5833 2.25175
298.594 23.3755 2.00206
121.386 8.89559 0.676556
430.229 38.604 3.64755
279.326 26.2516 2.39899
210.417 21.9444 2.09779
249.878 21.0027 1.78702
239.95 19.4078 1.80218
189.147 17.4471 1.55123
391.637 36.4898 3.43009
179.878 21.1107 2.23412
186.106 16.7504 1.97971
246.945 24.6192 2.57765
481.38 48.5352 4.65734
133.823 14.2892 1.72385
331.915 33.059 3.56599
234.313 24.7977 2.72513
209.821 21.0348 2.20996
150.428 15.6452 1.67772
327.451 34.2139 3.5346
240.307 28.2835 2.90148
305.737 35.1523 4.06376
269.6 31.9272 4.00841
463.105 51.226 5.48654
207.078 23.3549 2.46121
183.17 21.6637 2.60202
293.604 34.5532 4.02883
168.746 18.7442 2.31158
192.489 25.4931 3.34312
96.1863 11.5323 1.5595
244.472 31.1433 4.25361
281.476 35.1658 4.16182
290.103 38.5233 4.97309
304.862 40.2837 5.11313
148.169 21.2288 2.7825
316.661 40.2173 4.81953
178.229 23.9803 3.45564
278.376 38.239 5.24583
179.597 25.8297 3.65261
271.66 37.892 5.09937
80.3804 11.8758 1.47939
229.276 34.1318 4.89004
346.614 50.6335 7.15203
192.63 28.8268 4.17922
212.186 32.5664 5.08163
122.383 16.8521 2.51953
165.494 26.198 4.12089
349.464 50.9686 7.10147
216.97 33.5974 5.3045
167.475 26.4229 3.99762
144.197 26.954 4.31011
219.188 32.1806 4.73002
176.064 29.1537 5.17814
146.502 21.8936 3.33157
153.284 24.408 3.94821
127.351 18.6031 2.83778
134.852 24.658 3.97491
145.038 23.7777 3.80739
274.147 44.2291 7.02728
144.316 24.6581 4.50016
177.465 30.4385 5.15067
211.839 39.5319 7.11185
182.713 33.8908 6.09818
188.972 35.1715 6.87205
167.442 33.5957 6.06031
297.781 54.7584 9.77695
225.13 40.0487 7.01777
129.246 23.077 3.96254
158.817 31.02 6.49746
164.754 32.0707 5.95475
207.587 44.0813 9.06394
150.926 29.1167 6.16509
167.94 33.3963 6.55815
135.923 24.8365 4.23069
129.435 29.5465 6.06698
146.437 29.5711 6.00858
139.052 29.8483 5.87542
108.993 23.3448 4.71262
167.376 36.162 7.77544
128.475 26.0719 4.84761
217.465 47.6465 9.93109
154.569 35.2024 7.77384
151.021 31.8387 6.40897
256.085 58.6463 12.8137
95.8488 24.2434 6.63899
232.397 47.8372 9.33795
92.7922 23.3016 5.75436
171.282 33.3228 6.63615
124.951 28.5228 6.67873
130.511 30.1184 6.91686
87.9024 23.2839 6.52916
130.952 28.0418 6.41478
211.223 50.025 11.5093
217.766 52.4583 12.9831
132.091 35.121 9.14132
102.682 20.8102 4.73082
205.885 48.7682 11.1477
98.3388 26.0811 6.89144
132.421 32.1399 7.56044
136.55 38.0011 10.7015
135.348 29.5541 6.92677
135.504 36.2815 10.1295
113.624 30.1824 8.32052
182.705 44.464 10.5522
126.548 33.9687 9.3311
98.2847 24.1338 5.95137
83.5726 23.8939 7.18204
111.01 27.4798 6.64879
67.1703 21.3105 6.59754
120.538 35.7551 10.3925
136.266 40.2866 12.675
167.636 38.3083 9.76983
173.534 49.1225 13.1287
89.6934 26.8105 8.12844
123.722 36.0439 10.6451
174.199 45.3311 11.6979
78.8862 22.064 6.23237
79.1123 26.0545 8.38443
128.827 37.2597 11.2372
83.2258 25.5757 7.51208
105.303 29.1244 8.05064
127.958 37.1353 10.585
62.6587 22.5108 7.49538
104.928 32.7848 10.6913
110.703 31.4729 9.18705
155.129 49.8395 15.7923
93.3223 33.346 11.2854
134.21 41.0667 12.112
44.3624 18.1986 7.41907
131.553 38.3577 11.6869
101.425 26.7421 6.98637
162.391 55.0392 18.2938
169.1 54.8287 18.5393
103.521 32.342 9.76135
127.149 39.3802 13.2655
75.6967 25.0569 8.12988
136.695 45.6908 15.143
149.868 51.9809 17.3187
65.5557 22.3904 8.33459
91.7335 31.6242 10.563
55.7277 19.2589 7.6302
80.5243 29.4499 10.323
102.132 36.808 12.5482
99.9112 31.4264 11.1851
130.691 46.1669 15.4795
89.092 32.6965 11.4262
101.237 38.6971 15.6936
86.8795 30.2538 10.1874
101.095 39.2071 15.5125
68.9757 24.0285 8.58415
72.9939 31.0066 13.0983
125.818 47.2987 17.3415
108.924 43.7256 17.324
100.614 33.7587 11.849
97.9774 38.3756 13.9233
58.1604 20.1461 7.48983
62.9911 24.8553 9.78615
87.242 33.4134 12.4193
68.0501 24.2223 8.68679
83.6125 34.2902 14.5236
83.6466 31.7831 12.6956
71.278 28.1357 10.8474
70.6157 31.9126 14.1938
84.4202 31.9508 12.88
35.7675 15.2275 7.26184
73.0193 27.9364 11.1603
55.0671 19.4739 7.14035
129.161 58.7681 23.9703
51.9219 22.9746 10.2226
59.439 23.8137 10.6095
103.342 39.4321 15.7939
110.563 46.0067 18.4244
76.5348 33.6284 13.9665
68.4767 29.6216 13.5222
76.4518 33.6608 15.0412
87.5157 41.3653 19.768
92.4764 36.4889 14.3659
87.0916 37.196 15.1789
79.2346 35.5094 15.7375
54.7511 29.0658 13.3247
37.3274 18.6552 9.60536
57.1996 26.7783 13.1343
129.304 58.8967 28.0952
116.864 52.8356 25.1389
71.8392 26.7969 10.4894
54.5911 31.4836 16.1191
48.969 18.2355 8.60426
100.402 46.2941 20.8859
78.0498 33.4417 15.2332
94.64 42.7766 19.7813
100.248 43.5915 19.1654
81.5139 36.9091 16.7607
45.2775 22.8874 12.2446
88.2497 42.3629 19.5034
57.4383 30.6214 16.0318
88.313 49.5641 26.6765
86.2655 42.324 22.0628
99.2228 46.6615 22.3741
77.5838 30.9077 12.6678
102.33 49.7814 23.1142
56.9977 32.6558 18.962
99.1638 49.4235 24.3176
85.4797 43.9897 22.1961
57.5499 30.1416 15.863
73.1697 33.2767 14.7327
72.3922 43.3957 25.9688
73.0602 36.5593 17.762
32.0557 15.0507 8.5632
69.9595 37.661 18.2167
53.7071 30.992 17.9692
61.2427 31.2838 15.7784
55.4211 34.8235 20.1373
46.736 26.9668 18.0694
74.3149 29.8131 13.0506
49.6301 27.5748 15.5837
70.3327 42.5143 24.4937
68.5434 31.3288 13.479
51.8244 28.708 15.6863
50.2446 26.4437 13.976
82.1225 50.1987 30.3142
56.3376 25.8918 11.8539
77.1324 49.9568 30.184
52.7939 28.3186 16.9315
60.835 34.6553 19.6448
59.8787 34.9803 20.5942
97.9024 64.155 39.2101
55.3711 29.6689 17.9725
79.3928 45.9152 25.2253
30.8212 18.9307 13.6298
65.9526 36.9171 22.6787
47.6354 24.8089 13.2136
46.1247 25.4773 14.8107
47.6217 26.8435 15.0818
72.9016 46.665 27.3616
44.5749 32.3969 22.4183
60.4685 33.6094 19.4435
50.6574 33.2764 22.6058
67.1237 40.5615 25.8117
37.6653 21.3587 12.7308
63.5681 35.6993 21.1277
63.8171 42.8978 28.7458
43.8712 29.9957 22.7974
94.2956 52.4814 30.8241
47.8008 32.3607 20.9279
58.5784 35.4246 21.2189
66.2086 45.0308 28.2779
37.142 28.3102 22.4397
60.0546 34.0349 20.3975
61.318 38.6287 23.2958
52.273 28.9386 15.799
46.3185 30.255 21.0595
73.2841 45.6712 28.1249
58.068 44.903 32.5036
67.2937 42.7655 27.5741
37.0085 24.085 17.606
57.334 37.2846 23.12
48.1763 37.2933 29.4201
58.7014 36.8428 22.6042
75.0928 58.0273 41.3675
36.0756 30.4024 28.1727
99.6179 56.6871 33.8985
43.2587 30.3893 21.4098
48.1475 31.2942 20.3312
46.2657 26.1775 15.6775
46.2176 36.6795 27.0677
54.1011 35.9879 22.3551
22.0484 24.8789 25.3219
44.096 28.1948 20.7985
76.5737 55.201 37.2888
42.1148 29.4791 21.4759
43.4199 33.8746 24.288
19.3614 14.3198 13.2964
70.0618 54.9638 40.8943
57.4543 33.8675 18.4763
43.2128 35.3047 26.0721
40.6433 37.223 33.9585
61.4844 37.1349 23.6994
30.8568 24.4991 19.0564
43.9221 32.375 24.9469
61.4746 48.9618 37.6142
38.8909 28.2368 22.2941
68.6181 48.1423 34.1936
41.8905 27.7512 18.5232
38.613 37.5029 33.7712
45.2714 32.0094 23.9711
53.395 44.8832 34.1383
29.0573 17.9204 12.9379
53.2634 38.7027 28.791
56.4767 45.7676 31.8336
47.2664 51.371 48.2473
30.4203 17.7952 13.4646
36.3293 31.9026 26.947
38.7105 31.2031 28.3884
56.4642 44.66 32.6139
30.4337 28.6048 28.5753
33.2146 20.6961 14.2559
34.3527 27.4567 22.3025
36.6023 31.3138 26.1226
37.3511 27.7279 21.8163
32.0428 31.0161 28.0334
31.0392 27.0468 25.0201
37.6603 27.8065 23.2741
63.6206 50.1649 35.1881
36.8533 34.0974 29.2415
49.1297 48.3237 43.0166
47.8426 42.9552 40.9579
46.1569 31.7106 21.2765
27.1352 25.4943 21.9889
23.677 25.6844 27.1411
40.8656 30.9703 25.2425
22.6887 16.2064 13.997
72.3114 69.2926 57.561
27.0169 20.5099 15.9882
29.075 27.3494 26.7834
35.7691 27.7989 20.81
11.348 12.8173 15.7209
34.2592 28.187 23.8136
20.0565 16.1266 12.6818
23.7796 28.6862 29.6791
30.5814 25.8554 28.6386
32.8707 25.1363 20.753
50.3653 43.6132 35.2253
32.1225 29.0193 28.8408
60.307 51.7386 42.1708
43.6017 45.2752 40.8674
27.5472 26.9434 29.4431
60.3085 52.2299 40.6094
20.5308 27.2093 34.1532
31.7843 26.1661 27.7439
38.3328 28.878 19.6211
9.13801 13.4262 19.7987
40.3448 42.1308 43.2861
45.8748 36.5638 29.2091
15.5161 13.1528 12.8816
24.9125 25.7461 26.8431
35.5968 33.1833 30.1843
26.4076 23.2134 22.0679
58.975 59.6233 53.2607
47.9241 46.6597 43.0765
39.2574 39.1887 38.2641
16.3715 12.7411 14.9131
38.0026 35.2532 32.0407
27.1135 29.7192 28.7194
20.9993 23.0772 28.2921
38.2648 29.4639 24.4621
35.3978 30.5721 20.8269
41.6349 51.3405 46.8105
21.2959 27.4974 34.3025
33.5031 35.0452 38.3155
26.3192 28.3007 32.2373
34.0543 36.2577 37.2139
38.2531 33.6298 31.2766
33.2491 35.5545 39.0962
22.9309 24.3439 25.8594
14.537 12.9521 18.2772
45.5184 41.1341 34.7501
30.0508 31.3195 32.6139
38.4827 40.2674 40.0149
27.5821 32.8616 37.1751
26.9042 29.5055 35.1436
33.5616 38.0598 38.7783
23.2225 24.0082 30.6777
40.302 39.6562 38.0144
20.6871 23.4599 31.9283
68.6189 74.9424 78.9217
34.0662 28.6275 30.0008
46.6533 43.9901 41.0635
31.21 29.6323 27.3849
39.3104 44.3427 44.4606
21.5381 24.3763 27.8312
39.3899 46.6044 49.5527
17.9588 16.8849 17.2758
19.9204 25.5729 31.6839
26.2984 34.5266 44.6683
27.9646 25.4561 26.8287
27.8549 26.7414 26.1929
58.3209 71.8648 78.5078
31.0639 34.1535 39.3081
22.8675 26.1201 35.5946
34.7205 33.9488 36.7703
36.7904 39.3872 38.5586
23.6144 24.0085 24.2109
22.0213 27.5286 31.6541
42.7009 52.3015 54.9601
21.8271 34.4642 52.9858
31.5855 34.9233 43.9502
38.2063 32.8927 26.7468
24.3151 31.037 36.4591
23.6645 33.5256 45.4528
26.2445 33.7152 46.8491
40.9897 47.6125 62.3252
53.5022 45.9135 34.6171
30.5542 42.8928 53.1773
20.2733 24.5557 33.8599
43.6599 56.6627 66.2513
20.3618 19.3742 26.4944
39.9874 43.1442 45.7614
24.3232 27.2267 29.9777
15.0678 28.9402 51.7754
44.3882 50.5309 56.8046
30.8733 37.547 52.3909
29.8924 29.0555 35.1982
55.9649 70.8509 81.6146
28.2303 27.4015 31.3275
30.6833 31.1617 30.7223
18.9107 20.3194 21.1407
13.5541 19.619 24.9693
23.6031 36.4968 46.2153
25.0231 36.782 53.2929
33.4018 36.9169 46.1439
33.9429 43.3322 59.4963
46.8124 50.7847 52.3828
22.7124 34.3507 53.3117
45.3735 43.4676 44.7639
19.1931 17.7874 19.9879
38.5004 47.5439 48.8709
39.1301 58.2818 73.0864
19.4578 22.9506 31.927
32.9973 44.3486 56.9075
22.1713 30.3675 42.9475
27.9573 41.3219 62.7364
25.7368 21.4991 21.103
18.6252 21.3737 26.0249
29.3296 42.2338 55.8765
26.2188 35.7704 47.7035
28.938 42.6851 56.8098
24.9928 31.52 40.8104
10.7525 15.8197 32.9827
38.0902 55.1337 78.3229
37.3442 41.0869 47.046
16.506 19.667 30.7368
23.649 22.9615 25.9976
33.0153 43.0849 46.1972
14.2271 25.5645 42.4198
19.0583 29.4209 49.3377
31.6392 33.7528 43.8
29.6888 32.242 30.9746
16.4213 21.9213 30.7603
29.9245 36.8976 38.2162
20.1429 31.346 45.3341
30.1745 43.9172 62.4767
23.2158 34.2314 52.9679
25.2876 32.4653 41.4368
28.0917 40.3466 53.2261
23.166 46.9699 86.3236
30.774 33.2428 49.2685
27.4444 31.1465 46.9907
48.0525 59.7597 67.9671
36.9019 52.1026 60.6046
18.0935 32.1079 53.2909
23.892 24.3757 24.026
13.5596 20.5755 30.6605
15.7122 24.0685 39.0081
30.3953 45.3904 65.9702
30.3616 38.5848 46.3856
21.431 32.3336 47.2556
21.9196 29.8345 43.0149
21.3442 28.9209 42.1509
37.6253 52.6265 59.5918
17.044 41.8766 79.8058
27.2755 31.1354 39.5671
16.3148 21.829 30.1518
17.9556 29.6565 47.8481
14.1859 18.3279 26.8052
16.7051 25.9624 35.5049
11.0708 17.4966 28.7313
16.353 25.6203 41.9087
21.3178 31.7269 42.982
16.1998 26.3137 42.8772
20.5382 34.1087 59.285
20.1392 26.4411 39.0056
17.1972 27.1234 47.1511
19.8206 25.8494 41.5818
21.3413 21.955 21.3321
15.4128 28.6078 43.7894
12.9499 18.2041 32.9377
20.368 28.0357 37.7378
14.6671 19.6805 26.7462
17.8156 27.3496 41.4845
13.6166 19.5247 32.3437
21.82 34.2272 51.9524
32.2387 54.8325 74.1573
20.8308 30.4415 38.3112
14.444 40.2985 83.3617
24.8933 32.9477 58.3635
17.0983 20.7826 28.1225
14.5903 25.8333 54.6452
35.5143 49.0184 66.0867
14.0344 13.8748 23.9191
22.9419 31.1964 33.9422
13.2379 27.6654 51.3158
30.7804 46.6605 60.5382
11.2152 26.0231 52.9794
17.9176 32.1228 62.8155
30.5534 40.5914 54.4032
23.0441 41.6512 65.2162
17.9161 26.9749 41.5101
13.2841 20.1923 38.8604
21.2872 34.2981 50.9034
19.3316 25.3374 31.7649
15.1422 27.989 44.3229
13.2524 22.5466 39.4711
21.4031 37.0332 53.936
12.0052 27.0882 55.7109
19.6811 29.133 42.5877
12.1661 23.8261 50.1869
20.1945 31.3241 53.5397
24.6852 37.3952 53.1031
17.6103 29.6503 45.5644
15.4906 32.1733 61.4357
17.5173 27.7575 49.4237
14.6067 22.0953 40.4448
18.0329 30.1761 57.811
29.9922 43.6673 60.4865
17.622 25.9986 30.7778
13.1397 28.6484 54.8257
20.5459 39.42 66.7461
15.8662 23.9992 38.9042
16.6884 35.5544 65.7599
17.8776 28.0326 44.0721
18.7293 38.5414 81.7763
24.6222 33.1794 47.9922
16.2074 24.4254 34.2944
14.9012 32.4133 61.3086
23.1886 39.7657 66.861
15.5958 22.219 37.769
15.4111 28.0383 46.7883
13.9415 25.1069 42.8145
15.986 33.6122 65.782
18.7159 32.281 59.7102
15.0379 23.14 43.8035
13.7653 23.1998 45.7416
21.2663 34.852 56.3687
15.0877 26.8138 47.7267
9.41935 20.7823 48.5105
9.77322 11.7789 26.6561
15.7055 27.8506 52.7278
14.9922 22.9981 48.5508
25.5992 41.5993 57.8158
17.1285 28.4617 44.7884
13.8469 22.6888 33.1014
10.8671 23.1318 43.6706
14.4366 28.2914 42.4007
8.83625 20.4829 45.4744
11.9763 18.6698 37.253
14.2004 27.1759 56.2049
22.0538 36.0226 55.4925
10.8894 21.0574 46.1718
14.1154 26.8279 54.1099
17.7018 28.8235 50.3619
11.0512 17.7213 36.5484
19.4164 38.3597 75.0063
19.9377 37.495 76.5472
20.8597 33.2592 60.7561
22.3027 35.7391 52.5547
12.4378 21.7851 35.209
13.1609 28.1844 56.3643
21.5156 39.1002 62.5371
14.7749 28.9562 49.2226
10.4959 22.2701 51.1555
17.269 31.907 51.5281
10.5907 27.0309 67.3398
17.3606 21.7537 34.7705
10.9968 19.7032 45.9282
21.4524 35.7335 58.4142
24.014 43.4022 57.2753
12.0336 30.7055 60.1059
9.40341 19.807 43.7746
13.2631 27.7674 63.9958
14.2087 27.3316 50.818
8.70115 11.4739 22.4243
7.4832 17.0651 40.434
14.9284 27.8619 48.2733
9.01342 13.5098 20.6661
6.46473 16.487 45.4073
19.6773 35.4729 56.9079
11.3024 31.0374 75.8018
14.065 19.7766 39.5834
16.5557 31.3014 58.4892
19.4791 43.7459 89.4269
16.4983 23.9274 39.8704
18.4936 39.1775 71.3339
12.5393 25.2995 61.4936
18.2991 30.5699 46.8712
6.8352 15.525 40.1123
13.8652 26.926 45.8345
13.0755 32.2068 71.1471
11.5396 18.2278 39.0066
13.6875 27.3285 47.6544
11.7618 30.6534 78.0484
14.5039 17.861 41.2032
26.6093 54.7238 86.1895
15.9541 37.6669 75.844
21.0584 48.5631 95.9586
15.1466 31.1175 76.2171
14.2524 20.2441 38.6928
14.6564 36.2877 80.3152
17.0396 26.9377 50.3486
17.1426 33.4771 64.7277
10.072 13.9266 27.9585
14.4015 34.8598 62.8777
6.62591 11.4745 29.9779
11.5344 28.6294 59.9394
7.39785 12.408 28.6968
8.78359 19.3801 48.0135
13.9201 20.3589 26.2207
8.1561 23.5814 60.9731
12.8092 20.9014 37.8345
12.9574 29.9012 57.1389
11.8396 19.6506 33.397
10.0103 25.5037 53.6182
12.1064 25.317 42.5964
6.84199 18.1797 47.9251
10.4879 19.1928 37.6638
10.9105 32.7012 74.6927
8.96829 13.268 33.6698
13.8859 34.1581 71.269
9.77411 19.0227 44.6304
11.9076 22.3915 38.5407
7.20273 18.3307 44.4868
13.4093 34.0908 77.1278
14.7391 29.5928 65.2382
15.0297 31.1913 67.7084
12.7205 29.6492 70.4185
14.9381 30.1174 60.9
8.95343 17.1421 38.0065
8.04464 15.9077 42.1286
9.48592 17.176 37.5629
13.5089 30.277 52.6493
7.06951 17.8803 58.2375
18.3862 32.6851 48.5974
8.26425 20.7651 42.9245
6.35513 19.303 53.1401
10.9625 19.283 33.9501
8.52017 26.9653 73.3354
13.1147 22.2112 54.7396
12.9598 29.0383 56.9205
10.7569 18.9194 37.7077
11.8123 28.8615 63.527
10.2065 21.8856 48.4847
11.6909 31.5443 69.394
11.6094 25.1692 52.3367
5.00936 7.64711 27.7927
10.2727 17.367 25.3793
8.96016 35.7776 94.5737
10.5354 15.7876 40.1784
10.4978 18.2252 25.1314
3.59729 11.7995 35.0669
7.58497 16.6401 38.8456
8.56977 26.0107 70.3392
11.4963 19.113 36.0597
6.88771 13.0822 24.7653
7.46339 20.4562 46.8118
11.063 30.7345 80.312
12.414 19.6909 33.1774
7.47486 24.3379 69.4899
11.629 21.459 44.4069
7.95225 17.8055 49.063
6.57673 11.795 37.207
11.6898 20.5697 31.9808
7.97981 23.3519 51.3573
7.81044 18.8799 50.8072
10.3209 24.8051 56.8037
9.60313 26.0083 72.2001
14.0906 26.1419 36.6629
2.84437 12.3024 54.1407
13.9763 27.0463 52.2445
11.1553 26.7624 47.4505
3.54148 10.5732 35.6497
7.57517 15.4472 45.6745
10.401 22.136 48.6026
14.6988 35.8763 70.8472
11.3448 27.3682 63.0579
12.3378 32.8954 79.1293
10.8021 24.8087 57.1503
7.82267 16.0578 43.3219
10.2294 24.9989 65.538
10.0319 15.1968 28.5953
9.64929 25.2186 53.3903
7.64669 17.6559 40.4447
6.97164 18.2572 52.1665
13.2877 35.5646 78.086
8.61185 21.2577 50.8246
7.65278 18.7036 48.1917
8.04095 16.8106 32.5686
5.85904 21.9769 79.3436
11.186 17.2021 39.8487
8.67334 16.7422 34.0782
7.52155 22.4835 69.5235
13.1024 25.5536 38.3746
7.66112 29.0327 82.5357
10.8222 30.9189 106.411
20.6082 35.2022 51.3311
8.17927 20.1245 42.2372
10.0192 35.7433 95.2646
11.1669 18.7705 28.1027
5.47059 20.4582 66.3754
11.4255 26.3085 54.3647
7.14434 18.4315 46.9209
10.2885 33.262 85.6322
6.2814 9.9321 38.5062
10.4434 20.5682 34.6024
4.32776 18.543 59.8163
8.35365 20.9528 65.0353
11.389 20.2956 40.0651
6.07374 15.1739 37.757
9.0511 26.79 65.484
8.19853 22.8814 57.3279
7.04198 12.7443 35.8089
10.4287 33.6202 97.356
13.8518 28.8124 56.2286
9.09393 28.3965 70.1749
7.85576 18.6995 46.5828
7.9224 20.1543 52.1898
9.64075 28.7831 85.718
12.5542 21.9704 29.0714
4.75906 19.7841 61.5153
6.73881 14.5655 53.9781
13.0017 35.8057 69.6082
5.68928 17.5903 60.4845
9.3234 22.0511 75.8611
9.25126 8.50593 12.7773
7.63963 22.9983 58.3889
10.7149 30.1483 82.1008
11.4461 20.9647 24.4149
4.2548 17.742 53.1642
7.78477 22.0845 63.4556
9.43457 24.479 66.9442
10.4247 23.5465 48.1642
4.11098 15.3154 62.6601
10.8192 31.4435 86.8404
13.0559 27.5238 55.4738
7.4075 21.9649 51.7789
5.45028 10.5128 29.7227
3.7923 10.7215 40.0002
9.64129 28.5245 78.7771
11.2022 20.7788 39.6671
7.60958 25.4407 66.9905
8.1078 20.5116 59.8619
10.9134 27.1938 64.4225
9.28841 25.9646 56.5596
6.01242 21.7912 83.6435
11.0253 21.8924 52.2091
7.69918 19.1216 58.7293
11.4218 29.7778 65.9345
9.0748 26.0545 66.1373
8.46244 21.2129 49.4038
4.94805 14.8363 56.1194
6.18619 14.145 59.0334
9.78605 13.2404 24.0525
9.652 32.8255 69.644
4.68537 10.0017 28.5627
4.91183 14.4415 38.3846
6.3018 19.4363 52.2125
7.42372 18.6295 38.8141
4.28827 13.9842 47.8691
6.76318 19.834 61.063
8.14862 25.0142 64.2528
5.72356 11.9036 40.2266
6.68101 15.1571 46.2841
9.84812 32.8545 105.286
14.5104 32.7581 78.2688
11.7106 37.1 89.0876
8.7025 22.7027 62.0733
6.84787 14.246 37.2073
6.21391 18.4477 52.4796
6.92613 15.2972 34.7207
4.43482 15.5117 43.2759
6.11064 16.4692 38.5717
3.16605 13.0657 60.1251
9.13551 35.0513 133.478
16.2673 22.7327 27.0422
6.09874 22.6427 55.304
7.09706 23.7301 71.7041
7.3159 17.2977 54.8333
8.80377 18.311 41.2204
6.86397 25.219 80.9781
10.2784 23.9933 44.415
5.92709 25.0767 82.7626
7.38524 12.9002 57.6311
10.2689 25.1784 51.6602
7.56697 22.9527 67.6517
9.72391 28.0671 65.5633
8.57753 25.7952 67.3242
5.208 16.949 67.8157
7.05777 15.8214 43.3229
5.06059 9.35512 28.1824
5.87145 14.3923 40.4745
7.77926 25.5603 68.9838
8.64261 22.6881 55.8937
7.73357 25.1021 67.4389
7.00659 23.5314 69.9298
5.672 13.6435 35.4407
4.50449 19.8735 73.6938
5.91754 13.8939 55.8511
6.6098 10.232 49.0664
12.1341 29.9392 47.0137
4.64865 18.0367 56.2792
6.0996 13.6862 24.6938
1.89798 4.43077 15.6202
5.39952 23.518 70.224
6.46443 16.3066 47.1949
5.77414 15.7846 38.6489
4.61405 14.646 37.1402
2.91275 14.1155 54.3965
4.28661 11.0267 56.0294
7.52466 19.9201 73.493
12.066 31.7455 70.6489
6.49189 17.4643 56.1324
5.71833 13.1672 38.7289
6.12806 19.4878 61.4547
8.5914 21.0721 51.6536
7.1894 24.6763 77.4475
8.59423 27.1254 66.5946
7.04025 16.0506 42.6964
6.73436 23.6173 51.7345
3.47129 16.5236 74.4782
9.41997 25.0441 63.1635
4.79648 11.3755 39.2623
6.39861 24.1573 83.6975
9.21706 22.1208 63.8444
5.45527 14.2943 55.9689
7.61915 15.2147 33.5804
4.17137 14.3444 49.1486
7.09086 24.6084 74.1027
8.44901 26.8789 83.255
9.49913 22.451 51.9052
4.46719 15.2453 54.4755
7.1341 26.7272 90.5081
9.06229 27.5555 95.2865
11.0638 26.6521 60.4991
6.2916 20.2969 53.2851
5.94615 18.909 46.5835
3.99972 8.57584 32.5516
7.66392 36.2571 98.1417
6.20253 15.0381 63.7995
8.44497 21.545 56.3228
6.85751 21.7424 50.9331
4.8941 19.9116 71.8507
7.58801 18.0625 37.3024
2.53197 8.48162 34.2202
5.73855 24.953 79.458
6.66485 11.2687 20.01
2.34481 13.2214 59.0916
8.00495 25.2438 61.3169
4.7987 17.218 56.8603
4.35087 11.8966 49.2426
4.667 11.1603 40.5138
5.17293 12.7498 43.5886
5.99062 16.4569 38.8384
4.45117 17.233 59.8882
5.90779 12.0007 29.7155
4.69233 19.4353 58.1968
4.69472 9.07156 24.3037
4.19109 26.6316 80.5643
5.59923 10.8011 36.5761
4.45032 18.5786 75.2335
5.95826 15.1495 47.1042
4.10046 9.53867 42.3499
7.79694 32.4438 89.9254
5.28737 10.1317 52.6477
6.05912 19.3357 73.2538
8.54609 17.6028 43.2627
4.88925 12.0886 35.695
6.12477 22.3854 57.8116
5.46745 13.2627 33.8349
3.49808 18.9695 69.4669
5.72081 11.4214 35.2647
3.86574 10.9569 47.5162
6.6398 23.2956 63.0984
5.87655 16.9259 43.8843
4.2246 18.9038 76.4888
7.15002 18.6394 63.8852
8.27494 27.4578 61.4729
3.45788 7.03513 33.8113
5.14123 20.2149 76.7433
5.95833 14.3858 42.6437
4.72882 18.4392 53.6239
3.16941 6.60159 35.6814
4.81117 13.2089 48.0578
6.56054 24.4777 78.2371
7.431 29.1601 103.886
8.3965 8.64763 29.0446
6.88021 23.9908 60.9086
4.75329 15.491 45.5807
4.3777 15.5193 69.332
6.10927 15.7695 57.7662
7.54336 25.0862 74.9695
6.32839 15.6486 52.8703
7.43312 26.3341 62.4454
6.58317 30.1071 98.9068
9.50983 27.1573 63.111
5.1199 14.7198 31.2329
2.55663 17.5534 68.2727
6.11159 23.538 97.1447
8.51684 19.9201 51.4641
4.29663 11.0229 37.205
4.10416 13.9951 47.752
4.0099 15.7635 64.6407
6.0822 15.8328 60.3214
7.32621 23.6325 55.0829
4.32983 12.211 45.0058
4.26161 15.4342 61.5126
6.61761 19.7721 43.0368
4.26835 16.3354 50.3243
4.22163 15.3246 52.6887
5.46857 20.8198 60.523
4.65451 17.0698 55.6489
4.33918 13.5223 54.9254
4.89224 14.9423 61.5092
7.26274 21.8676 70.2947
6.6591 14.6362 40.0176
3.7313 11.0551 38.1872
4.63503 20.8672 65.8536
5.56897 18.7759 57.4923
5.88652 21.4327 93.806
8.69312 20.0651 36.7565
2.35953 10.7519 58.6907
5.89248 18.3016 46.6955
5.73505 21.8429 57.6462
3.71208 10.4244 16.5788
1.01679 10.7709 59.7936
4.34442 10.5964 62.4919
6.76869 19.924 44.5431
3.21973 10.3182 31.436
3.06157 9.17137 32.2493
3.7785 16.7144 65.5893
6.79915 27.3274 78.5082
5.82584 21.4505 81.29
5.38112 13.1127 51.0799
5.65246 15.0172 60.4324
6.17892 18.953 53.2991
4.89639 19.1456 63.7804
4.84865 11.3858 39.5042
3.38472 11.9756 44.7152
5.22567 19.1263 72.2925
7.02747 22.6837 59.9909
4.12608 12.0633 21.8815
1.95835 12.7326 49.5996
4.28993 13.8717 47.9938
4.43401 14.0652 46.7105
4.58303 16.59 62.1084
4.72929 19.2297 71.2553
5.29215 9.52067 60.2572
7.26247 25.0224 61.3992
3.98175 10.3942 24.1982
2.67293 10.488 55.8083
5.95675 26.021 100.314
8.34917 27.4831 62.9868
3.66491 11.2228 55.5121
5.28153 16.6832 71.3091
5.89907 15.0665 50.2975
5.81406 17.2798 33.6701
2.74389 9.08826 44.2765
4.57673 18.5571 56.486
3.74387 11.0317 72.8945
7.96721 30.6639 87.433
5.82743 10.7715 23.5322
2.79413 16.3783 80.0459
6.95482 19 58.2891
6.03035 24.3734 76.806
5.70058 10.9605 35.9115
5.05845 22.2323 49.4311
2.85317 10.2023 50.3672
4.39983 15.6348 56.5041
3.71526 10.4384 32.5999
3.1984 16.0697 59.2996
4.24578 9.16042 32.4642
3.83999 15.3106 50.3639
3.97704 15.8407 62.3378
5.16075 20.3469 55.4482
3.56963 12.154 64.4687
6.6434 29.0317 89.681
6.18993 12.6195 40.4245
3.30693 10.0121 47.7848
3.81118 13.1145 50.6371
4.7101 10.9465 35.811
4.23113 18.9359 71.9747
6.32476 26.1413 125.119
10.4724 30.0653 56.8054
2.99594 12.5565 48.4883
4.64554 18.7139 43.0326
2.54632 8.87135 33.4009
2.52132 8.92522 20.4371
1.61495 12.2046 83.7999
7.25247 18.8386 30.6496
2.3861 13.0048 40.3646
2.93377 10.0955 59.1965
4.93899 17.324 71.052
6.54981 19.2154 62.2787
5.61982 16.9493 45.2506
2.80416 7.16529 27.3138
2.59277 11.7289 53.6623
5.1131 20.1624 57.6995
4.5265 20.4716 69.2915
4.03718 7.22284 50.6114
5.58637 24.9729 71.2936
3.77789 8.82721 46.1588
3.66974 15.0874 63.6579
5.45061 23.1272 80.4412
5.66984 10.9626 41.9715
3.97674 13.9866 45.8081
4.46989 15.9686 46.8736
2.76661 9.00588 51.5619
4.94946 21.2871 65.0682
5.55803 20.6521 55.3195
3.98597 22.3816 65.3383
3.13033 5.77488 34.218
2.94322 10.4235 46.0901
3.33559 10.9723 36.3201
3.03582 13.8953 43.9834
3.46733 11.3077 54.9637
4.81138 16.051 56.372
4.0226 9.01432 37.2436
3.47923 9.90117 40.4174
3.30794 12.2465 22.5771
2.00082 19.3546 93.952
6.39378 13.9638 70.7609
7.08043 20.9389 66.2122
5.07321 15.0729 49.3128
4.14033 19.8587 70.2727
5.10871 13.6708 62.2776
5.83105 14.9175 29.7645
2.22657 13.0095 51.3494
2.76817 8.17856 45.8582
4.7917 14.2935 54.4477
4.37737 13.1825 53.7388
4.79562 21.6007 63.1794
4.30555 9.62623 82.8058
8.61726 23.6237 33.8449
1.92545 11.0357 50.582
3.18512 8.50549 35.0973
2.6282 12.8767 45.0962
2.75788 4.70671 51.8783
5.60504 23.8125 84.6483
5.84505 12.9398 37.7148
3.37086 18.435 72.4569
6.37462 19.8203 59.0695
4.69285 17.7321 44.8673
3.32442 16.7685 59.9579
4.0262 14.7087 57.7622
4.26898 13.4195 44.8537
3.62988 6.31108 22.0716
2.20968 11.0465 46.099
3.76959 13.916 40.6986
3.12767 14.2388 58.8382
4.05406 16.388 73.231
5.46549 18.3885 69.7358
5.67897 19.5309 62.0018
4.46177 14.3054 51.0689
3.22817 10.0711 29.5241
2.35081 13.9657 58.7923
3.54635 6.48865 32.0131
2.66157 7.53104 36.0964
3.0325 12.8883 49.4563
4.11973 23.2986 111.369
7.39933 17.6146 51.3832
3.97049 16.4825 44.5599
2.73749 10.6971 49.8109
3.81156 17.5008 60.799
3.65992 13.875 62.4877
4.81748 11.6934 29.2738
2.14186 11.549 54.6971
3.86007 11.1098 34.1586
2.66569 10.5921 35.0505
2.81357 10.8108 48.9551
3.4123 8.9533 44.4032
4.04717 17.2707 63.94
4.85775 12.7823 45.1156
4.41495 20.0768 51.7323
3.1033 9.63962 31.3149
1.95115 8.36397 36.6868
2.89702 11.9219 39.6617
3.40127 12.6611 49.2
3.50335 9.73469 36.0628
2.66893 12.008 38.1081
3.29981 17.1346 71.2067
4.45813 15.7292 92.6347
7.70085 29.5703 75.3833
3.89118 8.59994 50.1799
4.36376 16.2605 39.6205
2.74568 11.2364 80.0515
6.75877 23.2017 46.5679
3.51275 18.6217 72.3772
4.12648 12.6934 53.6496
4.05994 9.74999 42.4581
3.36476 15.1655 37.4082
2.15114 10.272 40.598
2.89033 15.5187 55.5852
3.07519 5.85161 41.0221
2.97364 7.15037 33.9438
3.37791 14.4351 68.99
5.7473 16.3728 28.8341
2.17282 12.4039 40.1244
3.15302 12.5512 43.345
3.26927 12.7444 46.2178
2.87884 15.0166 49.5964
3.07734 9.36758 48.9832
3.13409 15.5799 82.5723
5.64095 13.6947 49.1332
3.92616 14.2382 44.0107
3.02503 8.37042 29.8706
2.907 10.6119 44.2583
3.30243 14.9373 54.7111
3.90899 14.8502 54.4145
3.84458 17.7269 51.025
2.92824 6.71408 41.9203
2.94423 10.1478 28.8348
1.97259 13.9223 111.208
7.75832 21.9887 48.5834
3.41064 8.96275 34.5142
3.00909 14.268 31.3748
2.19842 10.0117 30.5359
2.52614 14.3734 68.2324
4.7926 12.4096 24.0249
1.91464 19.5993 73.2124
4.24194 9.63838 28.7369
1.78002 11.5406 39.7658
2.06436 6.35916 34.2335
2.02843 5.8872 64.5971
4.95934 12.9775 42.6286
3.55633 16.166 27.8904
1.79488 12.0353 64.5365
3.93331 14.3134 32.0692
1.79123 12.4449 82.083
5.65738 19.2168 55.9204
3.08261 16.5832 101.756
6.43924 16.8444 55.4779
3.71008 11.1542 32.1087
2.06725 16.1215 67.7975
4.68214 12.561 58.3746
3.4623 9.91408 81.4996
5.94741 22.0424 70.8737
4.96708 16.5694 49.1194
3.6533 16.8197 34.7783
2.05549 5.96216 26.4281
2.12638 15.4565 46.092
2.63495 9.8602 48.1708
3.14272 10.1807 31.3991
2.49711 9.61458 13.761
1.03639 11.2837 53.5181
3.50347 10.5695 43.7944
2.96472 10.4143 40.8812
3.12587 8.17317 43.1209
3.2894 15.6632 62.2311
4.2324 11.8366 46.2794
3.54911 16.1881 61.0976
4.01906 17.3093 65.65
3.8931 11.6773 47.9847
3.44633 7.76906 33.0657
3.03759 17.7354 61.8706
3.72607 7.72593 31.4722
2.09776 11.7274 35.6727
2.4351 6.67696 36.2388
3.00434 18.9485 85.9126
6.10489 17.7698 62.1711
4.37916 13.2025 40.5617
2.87148 7.54833 21.037
1.67472 11.4069 80.4304
6.07784 23.1973 62.5419
4.31564 12.1181 44.1626
3.07529 11.0036 35.7129
2.36571 10.2115 74.7898
5.38521 20.0606 47.8713
2.8903 10.574 43.9417
2.93619 8.64447 30.4263
2.23367 11.8875 90.5416
6.07651 17.9438 42.1006
2.9038 6.26171 41.8322
4.17352 22.3785 24.9444
1.17759 8.44675 46.9769
3.0472 10.8705 44.0837
2.78718 13.6744 73.5572
4.86044 21.8498 82.3219
5.20161 17.94 61.6172
3.89657 14.9673 29.0228
1.47842 4.94419 24.696
1.70899 6.11646 33.4909
2.44909 9.41479 37.9333
2.72947 10.2546 45.3732
3.04394 12.5486 48.6981
3.06423 7.74422 36.4462
2.60442 14.9537 48.9169
3.27821 8.57316 22.6007
1.14671 8.15706 45.6096
3.05166 11.8484 70.4083
4.90258 17.9419 54.8917
3.86961 11.7632 37.7353
2.55195 11.0691 39.4363
2.20354 12.0865 70.9198
4.47794 10.4564 35.868
2.67945 12.0569 39.2936
2.68018 12.023 49.6339
2.89025 9.97397 51.6225
3.31021 7.88546 24.1993
1.95544 10.593 51.6472
3.41727 10.7871 40.0557
3.09714 11.61 60.9771
4.45158 18.0101 44.8342
3.0358 18.9062 59.0426
3.25623 10.8973 63.8687
4.48374 11.621 54.2276
3.36001 10.0976 37.2972
2.51158 9.4203 48.748
2.98337 10.1122 50.8477
3.92591 17.1299 38.4502
2.12376 6.09658 36.6828
2.56914 12.5036 33.3546
1.97179 9.32254 33.625
2.44503 10.869 67.3042
4.68673 8.83647 26.8358
2.04695 11.3551 24.2131
1.38596 10.711 74.6239
5.09876 17.241 42.2024
2.68754 15.1934 49.1625
3.22267 16.6263 67.8511
4.38819 15.9733 52.1885
3.50367 11.9199 51.5184
3.23898 10.0735 47.8731
3.56614 17.0066 56.4767
3.26645 8.04304 38.485
2.70826 16.2299 72.9948
4.65565 12.5446 57.3976
3.92439 23.1468 62.5126
3.54349 9.97781 49.6546
3.48615 8.05711 34.9856
2.64769 14.6201 43.723
2.80249 18.0953 72.9738
4.69532 11.1441 49.5185
3.35069 15.8247 73.8442
5.22613 11.4992 26.6097
1.48115 7.98087 34.5623
2.28925 5.38185 21.4491
1.63967 7.3349 23.6188
1.47657 4.97877 34.1927
2.45652 11.5225 56.9034
3.0886 11.2862 36.4067
2.44099 14.0916 62.8761
4.06283 12.5439 36.4999
1.99225 9.91312 31.9655
2.0796 6.35283 49.3138
3.65958 17.5513 62.2504
3.89562 10.1366 50.1637
3.1825 13.699 53.0881
3.1477 3.80258 47.1432
3.0491 15.3881 50.6134
3.17073 9.59449 57.1895
3.56746 22.3084 62.6335
3.95705 11.9657 36.3156
2.43125 12.772 59.043
3.64267 10.2516 48.2558
3.63614 20.0256 56.3208
3.6503 14.7084 68.1065
3.85258 8.89057 23.9489
1.48881 11.0372 48.7231
3.09586 14.7193 55.7631
3.053 6.69539 55.3006
3.63768 15.6485 75.5978
4.34051 23.668 63.3107
4.41366 14.0188 28.4786
1.89413 10.8237 34.6106
2.10394 9.29454 65.1002
4.00497 14.437 39.8676
2.58333 11.6543 59.2402
3.6119 17.0671 52.9948
3.62469 9.18423 47.533
3.10802 11.6279 26.7992
1.5782 13.3869 31.3384
2.07977 6.69354 39.7393
3.05124 14.1361 32.2295
2.02586 12.989 72.0893
4.32207 15.7713 57.043
3.60232 11.5767 49.6544
2.98986 15.0341 52.0577
3.85079 16.9798 60.1444
3.70337 12.4018 38.8079
2.273 7.92355 37.4781
2.702 10.7894 51.4613
3.37279 5.03818 48.0958
3.37132 10.7437 45.9763
3.10007 9.99582 58.7035
3.25981 21.4401 72.5374
4.79367 14.964 87.2781
5.56286 16.3832 38.4257
2.46733 16.2382 60.2741
3.81986 12.1236 59.2642
3.95929 13.7862 26.9447
1.67915 11.2529 52.7067
3.39744 10.9076 49.0644
2.83157 8.21441 74.4182
4.70614 19.2636 65.8299
4.59397 14.5712 34.3703
1.96922 6.52868 30.0716
1.89161 11.7811 50.3451
3.1786 10.2227 64.3282
3.07767 13.9577 43.1991
2.6021 9.86283 64.2304
4.5586 15.7754 51.6714
3.28861 15.5469 47.1817
3.28782 12.0737 69.0426
4.55803 17.3941 29.0144
2.21616 13.6436 67.0734
4.36671 9.77333 40.1635
2.9004 9.99865 75.8149
4.91297 22.2231 56.591
3.61913 19.143 106.934
5.96369 0 0