# pn-170911/RbIIR-55-USNO-1280-1959.psd
# Power spectrum* (dif=0,1,2) (really just |FT|^2)
# NOTE: only the first half! (symmetric)
# weeks: 1280-1959
# 6 clock-days, 0 excluded
# PSD: 1441
776.775 0.07675 0.0144376
26617 0.441938 0.0138555
126798 3.12111 0.0141589
8419.06 0.439758 0.0129357
29492.4 1.74185 0.0119721
2853.38 0.329616 0.00731952
2075.61 0.489841 0.0120943
2540.34 0.426315 0.0138085
2387.97 0.735529 0.0133868
2525.57 1.05239 0.0177409
1890.68 0.454464 0.0124119
1523.99 0.57374 0.0159387
814.254 0.404403 0.0108041
305.601 0.35779 0.00589072
610.233 0.549713 0.0150936
309.849 0.405897 0.01378
282.987 0.322987 0.0167549
720.671 0.770884 0.0161435
598.381 0.713028 0.0103506
480.328 0.317172 0.0167871
401.921 0.875181 0.0160185
161.253 0.821643 0.0113219
651.151 0.852074 0.0141163
310.876 1.10552 0.00990774
135.882 0.546004 0.0202739
150.881 0.437089 0.0134404
384.793 1.57097 0.0146101
493.956 1.30952 0.0198149
410.012 0.937047 0.0196357
300.734 1.03095 0.0169953
424.313 1.67769 0.0119591
321.413 1.06097 0.0106007
245.146 1.12717 0.0216589
501.008 2.11217 0.02886
261.134 1.22951 0.019191
161.591 1.13946 0.0149392
400.256 2.28539 0.0269413
210.013 1.56391 0.0409595
387.739 2.32451 0.034932
336.99 2.52678 0.0276058
287.061 2.35745 0.0378725
190.315 1.59905 0.0243785
71.0004 0.473094 0.0192778
460.444 3.92916 0.0516251
327.877 3.34861 0.045125
195.4 2.09841 0.023566
307.763 3.67204 0.0320581
359.81 4.20713 0.0814487
423.287 3.78248 0.0438338
449.662 4.95329 0.0527123
388.071 5.13171 0.0842562
235.058 3.15379 0.0510795
491.6 6.41062 0.119766
204.798 2.2153 0.0713464
401.614 5.24314 0.125826
449.784 6.73371 0.133952
717.212 8.79576 0.165495
660.004 10.5717 0.119661
302.493 5.49175 0.125903
702.037 9.92968 0.159295
470.033 6.21593 0.120859
623.564 9.02336 0.183678
820.869 12.9265 0.299257
879.248 16.9101 0.349752
717.068 13.4891 0.267916
449.532 8.84258 0.155729
333.758 5.96378 0.148381
536.011 11.6474 0.238332
79.3196 1.94149 0.0479837
475.312 10.0403 0.18562
522.181 9.3978 0.245562
188.758 3.93087 0.129152
336.881 7.46598 0.192812
279.368 8.45367 0.296694
465.499 10.3736 0.343209
288.038 6.69008 0.194719
263.256 9.33685 0.283047
489.287 12.8586 0.397775
257.713 8.28492 0.253127
312.391 8.21497 0.273528
575.521 15.1855 0.493678
449.242 14.0607 0.3812
273.241 7.09439 0.284077
503.673 17.5737 0.554367
257.469 10.1777 0.266907
240.503 8.34846 0.417733
288.774 8.36069 0.284117
282.607 9.96778 0.432312
239.336 9.2978 0.410111
264.845 10.0751 0.332209
175.615 7.19477 0.326543
288.954 11.915 0.534516
399.069 17.4752 0.670144
294.067 10.3765 0.351991
295.214 10.9863 0.525943
421.624 16.5096 0.708165
564.086 24.0426 1.07588
326.103 13.5806 0.815912
164.519 7.79154 0.400463
354.25 16.7758 0.869954
419.972 19.3209 0.975702
211.185 10.6728 0.422885
147.824 7.0923 0.340288
239.414 12.7843 0.799645
177.342 10.3402 0.591452
229.094 11.4083 0.51233
226.043 11.0662 0.673228
114.779 5.5137 0.396667
167.364 8.92805 0.511303
230.381 11.5363 0.628075
137.292 8.57589 0.383541
127.1 6.87312 0.448161
142.303 8.05192 0.522514
202.94 11.9503 0.649541
70.1635 3.24148 0.197751
331.273 20.3981 1.26988
67.9036 6.07433 0.447362
517.517 31.2351 1.87463
210.618 13.937 1.05012
192.94 10.5904 0.833997
190.716 14.3814 0.964418
112.282 7.88164 0.645597
171.15 13.1998 0.994388
277.223 20.6347 1.45342
77.1243 5.24958 0.332223
133.951 6.68198 0.515635
170.684 10.6625 0.778819
214.711 17.413 1.3407
344.906 26.5647 1.9956
151.43 10.4823 0.757971
185.735 16.2943 1.31156
225.725 17.8742 1.45328
59.5295 6.17678 0.547875
172.32 12.7643 1.24196
98.4941 10.3076 1.01129
227.847 19.7252 1.81551
126.908 9.41953 0.835207
110.86 11.2737 1.0481
276.767 26.1195 2.64712
154.71 10.8953 0.94776
49.1875 4.40915 0.468591
128.507 9.67191 0.800313
108.333 10.1581 1.12674
310.236 28.4863 2.82363
176.583 20.735 1.95344
262.511 21.7497 2.31213
75.1307 7.68569 0.685288
323.455 33.9135 3.26775
140.176 14.2533 1.61882
125.096 11.8188 1.37516
190.37 18.7311 1.94377
121.691 12.3406 1.36191
281.007 30.8208 3.45322
162.838 19.6668 2.52056
102.993 10.3207 1.01862
156.245 14.6077 1.66996
108.899 12.1118 1.45726
151.221 19.448 2.11484
105.758 11.4252 1.72817
60.4091 5.36816 0.59151
134.557 14.2743 1.68852
110.555 14.7552 1.79931
122.614 13.4933 1.45108
123.658 12.9107 1.79971
180.216 24.0802 3.24528
123.028 15.366 1.73532
73.2027 9.61836 1.30722
116.49 14.0083 1.80439
134.378 20.6814 2.63209
44.0402 4.65694 0.629482
161.375 18.793 2.66171
107.283 14.1884 2.49697
112.676 15.8564 2.34839
102.51 11.863 1.35873
189.839 26.6467 4.10413
114.991 16.4778 2.35836
110.233 13.6185 1.62809
127.846 17.8615 2.60834
210.671 26.6929 3.77746
184.652 26.6373 4.33117
90.6824 12.073 1.942
55.024 7.30895 1.40514
105.521 17.0514 2.90616
36.1928 5.03962 0.594585
162.241 27.5866 5.10383
247.501 37.4954 6.11587
86.5067 12.5181 2.21781
129.703 19.8936 3.57564
43.2766 7.00911 1.24754
49.1107 6.31104 1.05609
73.7552 11.448 1.71916
68.4637 13.3779 2.26249
95.1391 19.6785 3.71169
118.896 18.9189 3.29397
117.463 15.7302 2.82288
111.076 18.3064 3.53422
214.118 42.4803 7.90474
73.3441 10.6846 2.00633
140.594 23.2816 4.4904
78.8204 17.2384 2.69179
126.997 21.7378 4.18066
49.8521 12.2303 2.29827
57.88 9.70358 2.15948
113.371 20.689 3.95396
80.2403 13.2708 2.8123
43.4692 9.46602 2.22994
133.137 24.4014 4.81525
55.8516 11.3581 2.11019
117.362 22.3509 4.42189
115.788 26.486 5.81005
84.1885 17.6932 3.87743
60.5661 11.0586 2.04496
87.0948 18.0253 3.73644
111.047 23.9861 5.79122
130.907 26.327 5.67316
57.1167 14.4695 3.1061
34.3878 8.75357 2.06793
74.6199 14.6776 3.66365
76.4339 16.3917 3.74074
93.1718 17.2551 3.26708
80.6613 17.6398 4.14492
45.1251 11.0498 2.96883
53.0632 15.2961 4.13547
59.0451 12.6103 3.1443
132.136 30.1248 6.19068
24.7171 4.34359 0.631737
66.8042 14.8228 3.57729
91.9749 20.0244 5.41483
107.678 25.2779 5.80226
87.8299 21.5766 4.65918
31.7165 8.79402 2.27968
57.118 13.6547 3.29738
63.1675 13.4692 3.34225
47.0612 12.7408 3.91113
65.1612 14.508 3.46192
131.672 34.8746 8.73618
85.2445 19.7737 4.03741
94.4855 26.0754 6.00246
88.4752 29.5919 8.60623
40.1967 9.70665 2.90202
135.39 35.3958 8.8208
56.9525 16.9806 5.04123
115.14 34.1539 9.6187
119.275 34.4966 10.429
79.4728 17.87 4.45566
39.7487 10.8236 3.08021
68.9185 17.4865 4.99031
59.8341 17.278 5.38566
70.2331 20.8157 5.40424
134.602 40.4255 11.9652
114.27 34.6169 9.41537
60.1742 18.7104 5.66502
23.7635 8.03729 2.73543
15.284 6.67499 2.60294
52.5395 14.8142 4.23913
73.0999 20.2951 6.24258
54.3066 18.758 5.78781
58.9921 15.3928 4.1486
45.9594 13.682 4.12848
23.1641 7.40414 2.87523
125.105 36.796 9.99331
62.2629 21.0739 6.3506
90.5532 28.8732 10.3825
71.4748 19.1073 5.39632
113.199 37.6169 13.4025
75.371 25.3115 8.45574
83.6657 27.0732 8.67211
42.2593 14.8025 5.70271
52.5677 17.1219 6.31426
52.1299 18.8562 5.95494
85.9638 26.7567 7.9705
38.4576 12.4766 4.36031
22.8902 7.94782 3.07444
45.9662 16.4132 6.09639
66.0132 19.2692 5.55495
32.4724 13.0761 4.9226
56.6082 25.9218 11.3774
76.4193 22.7946 7.98127
54.0503 16.0369 4.13624
51.6838 21.8037 8.2089
65.9572 21.1737 7.48025
51.3702 18.7301 7.55402
32.6105 10.6917 4.28152
50.3327 15.8689 4.55369
54.615 19.8699 6.6633
83.1806 34.8502 13.8683
22.9784 8.36263 3.17085
51.1673 18.4935 6.79046
93.1636 34.8906 13.1389
67.4619 24.9523 9.97455
92.5073 38.6346 15.5467
41.6846 12.6846 4.35201
51.4832 22.8375 9.81421
54.6389 23.4807 9.75649
105.855 46.4507 19.4489
94.2082 32.5029 12.4464
103.503 44.1667 17.9596
45.3731 16.7697 6.44714
71.8879 35.8136 16.4193
61.849 22.0834 9.11208
47.947 18.4616 8.53106
78.1559 28.2837 9.30088
106.208 49.9172 22.2883
44.2165 14.6455 5.40505
60.3832 25.9434 11.4117
53.251 24.1591 10.9798
66.5573 22.983 8.22864
35.9765 15.9421 6.95143
24.8096 7.45196 3.30512
49.689 20.0928 7.37382
23.5596 12.0933 5.52687
39.9744 14.8803 5.73725
23.2831 12.9184 7.1745
57.1917 29.1764 14.6031
52.4647 16.2027 6.00813
64.2527 31.5233 13.0686
19.7789 10.7893 6.0027
74.8642 35.2404 15.0587
45.9087 26.4993 13.3269
67.973 34.7497 16.1918
29.2428 14.769 8.09585
42.296 17.7639 7.5901
40.7744 21.2859 11.7514
34.7711 12.5442 5.39179
61.639 28.5483 12.151
95.6748 50.0351 26.8631
85.824 34.0533 13.8576
22.7492 10.6767 6.19706
85.5835 39.3803 16.7698
47.9046 20.6407 8.53708
39.6794 24.4834 13.5594
43.7008 26.4827 14.0386
68.8566 32.0969 16.3107
66.4845 27.8907 12.434
44.0659 20.6105 10.4803
31.3392 15.0837 8.26124
52.8686 31.7333 18.1891
64.0495 29.5531 12.8777
21.2733 12.313 7.09464
28.2038 17.2066 10.9546
31.0575 14.2467 7.91456
74.2905 36.2614 17.7254
54.1546 24.5388 10.4097
73.0799 43.3542 23.6107
44.3945 23.2147 12.8812
37.1895 15.9692 7.32611
73.3424 40.6716 21.051
70.5115 39.7847 22.3503
25.3779 14.3869 7.08832
50.9191 30.4248 16.5057
55.7276 32.9595 19.7396
36.9084 20.1463 11.9086
28.5451 13.9333 7.11713
24.1379 17.9654 14.0164
66.8487 33.898 17.9427
63.2137 31.2931 14.5221
11.5621 6.25522 3.86252
32.4887 23.0009 15.8987
59.5734 32.1095 16.5676
47.5279 24.8134 13.5705
22.4294 15.271 10.9413
32.0316 17.0638 11.0243
21.5149 10.4551 6.74507
38.983 24.4188 14.2758
45.3704 22.5678 13.0124
73.6528 38.8865 20.7392
34.4166 21.3543 13.1771
23.3311 15.5218 11.5606
39.8746 23.4031 12.9874
21.2908 10.9993 7.31524
40.6997 20.9001 11.108
47.0646 28.4083 16.615
13.2748 6.9458 5.16883
16.164 11.9764 9.90396
33.1313 25.0656 17.3281
55.9202 26.8653 14.2385
40.2399 25.3305 14.4703
40.7991 25.024 16.9472
34.0643 23.0757 15.0719
54.6431 37.0678 22.6229
43.6166 37.997 29.6824
36.2176 20.0043 13.3024
27.6132 16.1801 8.79648
22.8749 18.7474 14.9113
40.281 21.0588 13.6815
61.8635 30.5326 15.8965
39.1488 21.6159 12.0317
34.7886 29.0586 22.3881
45.8337 29.0642 18.5266
36.8889 25.6764 17.0507
32.0027 22.0849 16.2598
32.3788 20.733 13.2598
20.5945 11.7682 7.3374
19.2561 9.48543 4.71452
29.6535 27.3187 21.0218
39.9063 28.7761 22.3137
27.0649 13.6095 8.05879
26.6683 18.8784 13.3491
31.1446 17.8306 10.8613
30.5593 22.0965 15.3974
37.8629 23.0127 15.2276
30.4777 20.8484 15.0895
39.4161 35.9968 30.6491
40.1644 23.4637 15.0267
24.3985 14.5289 11.2645
22.9502 13.7098 8.32047
37.4167 29.899 24.0549
32.9955 22.1367 16.489
31.546 24.6748 21.5612
40.4965 27.1918 16.7744
15.5272 13.6852 11.0876
34.4437 22.4242 15.6065
19.663 19.847 17.7457
30.3387 19.8033 11.4399
32.0062 32.5924 27.8836
23.5867 19.7315 16.581
18.817 16.1753 15.932
31.903 18.5584 14.8664
39.8519 32.7573 25.7949
48.522 40.228 34.7963
70.0707 42.2647 25.1228
37.3214 29.8151 23.086
23.1782 13.0843 6.88833
23.6105 20.2501 17.2114
27.4991 18.9137 12.6233
21.4405 16.5668 12.6431
11.7527 12.8875 14.9442
35.0895 22.6862 16.067
17.6001 11.2353 10.3517
25.4344 18.2116 13.1511
36.4963 28.5221 24.8567
31.3604 29.6898 28.7171
31.7384 17.0402 8.42918
25.0086 19.811 14.2668
29.152 26.5409 21.7299
54.1704 39.9264 30.0522
17.509 18.7786 18.4615
12.4345 7.93909 5.98102
15.3919 11.2377 10.0811
29.1566 22.2276 15.1636
31.0744 33.0469 31.9549
30.5394 23.897 16.8447
24.1469 29.1589 29.2233
7.89499 6.97007 8.91642
24.6451 22.3259 20.5038
8.45163 9.22384 15.7198
49.6564 40.4555 31.3913
29.3687 23.2873 15.4256
18.1472 16.551 13.3615
12.2625 15.854 18.2494
19.4555 18.0641 19.4448
35.5334 27.2858 21.2666
29.2812 27.9791 23.264
30.2686 26.9383 24.1193
35.3732 30.4067 30.1044
34.9408 35.001 31.9821
24.2525 17.6615 13.1406
25.1755 29.1454 30.5117
34.5236 36.9843 35.1411
16.6759 19.8591 25.5574
33.4479 16.9551 10.5247
10.1127 6.28273 6.36656
23.1405 23.5092 25.3955
33.4334 24.7323 17.2238
17.7428 17.9618 21.4727
31.3954 22.8145 15.755
25.2133 21.6127 19.7152
24.2517 26.0687 25.956
16.6237 16.5538 19.3341
56.4683 54.1445 48.8032
27.1124 19.9601 15.4652
17.4304 18.0555 18.8718
29.2428 32.487 30.2424
19.6097 19.2334 19.2649
25.1904 18.9996 12.4927
22.3658 30.1172 32.617
17.7261 15.7361 16.3216
8.89885 9.93732 12.3074
10.8837 14.7592 23.631
55.0952 45.7506 42.5049
49.6065 50.4704 47.0161
29.3522 23.5818 17.0958
15.5275 20.8661 26.8177
37.0888 33.0246 29.2729
18.7224 21.1756 24.972
26.5713 27.7573 29.4727
15.2352 15.1865 21.6197
35.6046 33.9511 33.2609
44.0937 41.5255 37.7839
31.9562 34.8404 35.3345
30.8287 33.4098 37.6339
29.7105 34.4068 33.8425
18.4187 15.9329 17.1876
30.555 30.7757 31.1877
9.85859 12.3844 18.3396
30.9082 33.552 32.6353
28.5908 27.4152 25.1708
11.8383 17.4114 24.498
33.2303 35.5058 33.2004
19.8769 26.6517 30.794
11.2292 6.19698 6.87483
20.8708 20.5037 19.5509
19.3119 21.6676 20.8037
14.4086 17.386 19.4933
29.1258 30.9654 30.6888
14.8243 17.7961 19.7657
28.8875 41.6881 50.7664
24.4915 23.9394 25.4507
24.1595 30.2593 34.2587
16.6274 12.0225 9.59035
7.10789 11.8484 19.2971
22.8929 33.6949 48.3615
45.7448 47.1245 51.9245
31.4005 24.1003 20.6174
25.8641 25.2743 21.0829
8.73668 10.3332 12.4988
17.7039 19.2362 19.6559
10.824 13.768 19.982
23.8543 25.5527 34.2232
39.5058 38.9037 35.7695
12.209 14.457 22.1724
29.7201 32.6728 34.6514
14.5218 17.3609 19.0535
7.16628 10.097 21.3934
35.5221 31.9638 24.8987
11.66 19.4408 28.9062
18.0225 17.5119 19.5982
16.2926 16.5951 16.6106
28.5645 39.2956 50.3101
19.7955 20.3292 24.0659
17.8065 18.3437 20.5376
28.1831 42.7941 55.8912
21.0941 21.0229 24.445
18.3341 18.8658 23.3894
8.88737 13.112 18.4202
11.5809 15.3334 22.6484
28.1797 32.9932 38.0813
17.3392 15.9773 15.6683
15.0676 23.5333 37.2356
28.938 30.8897 38.1155
44.7551 48.5814 51.6677
23.755 25.6063 23.9652
10.9369 16.7056 22.9582
9.6424 13.2449 21.266
10.4369 12.9233 18.0503
18.3853 29.5498 46.0815
23.5131 23.6513 25.4089
16.7017 19.3027 22.3766
16.0355 19.1569 23.8432
7.79369 12.1417 19.6299
14.7153 18.5083 27.9207
16.9111 21.6282 32.5531
22.1641 20.4669 28.2352
38.1484 36.0291 24.1448
23.1624 41.3415 57.015
28.7028 29.9334 27.1289
14.1995 18.8702 19.6356
14.1618 29.3859 44.4878
13.6621 19.7317 29.7238
14.9061 15.1812 19.8032
7.94944 8.75895 13.5892
14.3083 19.1462 28.2749
28.6383 36.8962 39.9833
13.8316 26.7044 50.9342
26.8948 23.4706 21.5252
17.9522 33.3628 54.757
23.695 24.7617 30.3661
26.3344 36.0667 38.7045
14.1525 20.2163 29.6471
10.0115 11.3516 14.2988
13.9698 24.2363 36.5736
15.5634 25.4126 42.6486
19.1026 17.1166 16.0914
14.9072 20.2218 28.8396
10.1031 19.0033 38.2926
15.2438 11.912 14.0359
28.0449 37.2237 42.3456
12.0278 21.3251 37.4067
25.6039 32.4751 42.0375
20.9358 26.8345 37.736
23.0214 28.6335 41.4706
21.058 31.3013 41.1551
17.3045 29.5974 42.9153
8.4723 11.2727 19.5006
13.1971 14.9621 17.5175
8.6957 17.8489 30.2969
10.9503 14.5983 22.1022
11.9936 13.3382 19.7003
14.2556 21.2166 28.8864
14.9179 17.1535 16.5825
21.6893 40.5358 61.1496
16.1598 19.628 32.6191
16.1364 21.5255 33.3787
21.6119 27.5784 36.0404
16.6208 22.0681 30.0572
17.7802 24.7474 41.1676
21.7681 30.7989 31.7784
11.9802 26.6269 48.357
14.6662 21.0428 35.6335
18.7247 27.2911 36.1782
15.9222 27.7235 41.7423
15.906 20.3881 30.7004
17.2474 19.9286 26.946
14.4256 22.9572 33.4692
11.1481 10.2118 11.3264
11.0366 24.0458 41.696
12.0527 13.5407 18.8425
13.4985 26.0177 47.5497
22.1728 28.1622 38.0926
13.8175 14.9793 18.7663
20.0651 34.2465 42.3222
5.75311 12.6037 30.2536
19.9568 33.1821 53.8366
14.7843 14.4846 21.114
14.5936 17.9389 25.3973
20.0987 30.0762 43.3973
8.46744 14.2755 29.9998
26.249 43.3581 62.8525
10.9381 12.4468 13.6555
5.31327 11.1388 23.1108
14.2003 21.3534 26.3797
11.353 17.9827 26.439
13.6901 24.4381 44.1361
10.5616 13.7953 20.4786
5.25521 3.09801 4.63312
12.9622 22.4277 29.8106
10.6349 21.9629 36.6783
8.52481 10.1153 14.0818
11.5271 26.0972 40.5158
12.6865 19.2054 34.2282
6.23451 7.65519 14.7982
12.4507 17.4713 29.1935
18.2371 26.9364 34.991
13.2833 25.3776 49.4593
14.0817 18.2512 25.7353
12.6523 21.2972 34.6958
10.476 15.6497 25.3337
10.6029 17.0061 30.5839
10.2112 12.5287 19.0043
9.49285 16.9048 26.0025
8.34776 19.3334 42.5547
20.0594 22.4586 20.7838
10.518 26.2654 46.9168
16.9139 28.8951 42.9102
9.4378 13.3442 21.7043
4.76043 8.53196 20.5115
13.5147 25.7385 42.6752
18.3454 30.7642 50.0149
10.9416 19.2572 35.7631
15.1653 26.4992 45.4679
9.57186 12.4585 22.3347
11.1109 17.3998 30.4761
9.36795 13.9374 20.0677
6.34068 11.1911 22.2905
14.4677 22.3937 34.4166
6.95702 7.41805 12.1357
12.313 26.8033 44.5425
8.07276 10.5424 14.7131
12.9233 25.7569 45.0385
6.48972 14.0979 39.8811
18.3838 28.1387 42.677
12.0124 12.6779 15.1587
14.3058 28.6947 46.0144
13.298 24.4115 50.4314
12.292 19.2244 29.326
13.8789 27.4441 44.2986
9.21711 24.5141 52.7828
12.051 19.7288 37.5252
13.2287 20.093 38.577
16.4683 27.5461 39.6867
6.85435 10.6785 20.0609
5.19859 7.60004 15.1573
11.9033 33.4122 67.219
7.44438 5.70203 28.8958
19.4054 18.337 12.7462
11.8656 18.8173 21.5693
1.03205 1.70363 6.42322
15.4428 40.1179 71.666
16.5853 31.0656 56.1792
9.12712 23.832 59.6173
13.6713 17.8564 23.74
7.91388 10.1031 16.4332
9.76433 17.6701 26.5302
7.18275 17.6994 46.3729
15.8033 18.7272 24.9658
10.6373 16.618 30.6428
10.4603 17.8282 30.0052
9.45711 15.9919 26.3622
8.52499 18.6849 38.8904
9.73602 14.5686 24.5416
12.6885 23.7456 55.5501
18.6706 29.5239 37.4052
11.4731 23.7225 43.1217
5.35991 13.6049 33.381
8.90431 13.2255 32.7477
9.78506 15.2475 35.6007
20.718 36.5475 46.02
5.21482 17.1601 42.7454
9.32284 14.6895 24.5391
8.94191 20.7336 45.1525
13.1414 24.4022 47.4038
10.8045 17.0674 30.9985
13.9923 25.1401 40.0566
9.35321 16.8546 29.2085
9.32415 20.8222 34.4273
3.73179 11.2045 31.6412
13.3814 25.3184 47.2147
7.23837 11.6745 22.315
6.52449 15.8048 35.9822
6.4321 8.94574 28.1867
15.4506 30.6838 39.174
4.47867 12.2491 35.169
7.45853 9.4297 18.4356
10.9202 20.5281 33.9078
6.56418 20.2673 48.2882
9.76143 13.6849 18.8854
4.85991 11.0212 23.1487
7.85003 11.9052 17.8776
3.45452 10.4879 24.1881
9.5955 30.2995 70.4902
12.8604 20.7609 50.16
16.2504 31.7543 43.4742
5.13209 18.2812 61.2288
14.477 23.4073 53.8982
11.9515 14.1415 16.4899
10.3472 20.2131 31.302
11.3469 25.9878 52.3812
7.31021 11.9014 29.2808
11.0873 23.5413 46.3516
10.6788 19.3794 37.9291
12.0886 22.202 30.8859
6.5138 19.9595 46.7592
9.83606 19.5847 49.0338
13.8545 29.1924 54.1955
6.76942 14.5639 40.2341
6.3918 11.9867 41.4662
9.92444 17.3643 34.4141
9.02645 10.5274 22.0521
14.9109 30.832 53.8656
11.9631 21.0974 53.8266
16.809 31.7918 39.6798
5.08307 12.9268 20.697
5.36627 14.3497 34.0963
5.19867 14.5252 38.6847
6.34143 13.9472 40.9724
11.4571 17.3104 20.1228
5.70019 18.8833 44.6019
7.52382 9.19341 20.6549
8.74607 18.2489 28.0099
6.08611 14.0939 32.7477
6.96437 17.1844 28.0857
1.69566 2.88222 13.2018
8.35786 20.6104 36.8677
9.53342 18.4028 35.1121
13.1435 28.674 49.2579
11.9161 49.1758 137.402
19.8109 28.6722 48.3778
5.84123 12.141 30.7583
7.52612 23.2057 58.7241
7.84509 16.1044 47.435
7.80382 11.7401 28.2079
9.18267 14.3413 24.1863
8.79634 17.795 28.0933
2.29977 9.54252 44.8517
12.7246 30.7687 66.718
12.0836 23.4263 53.3718
13.4097 26.3088 35.6047
5.24093 17.7969 48.4585
6.64425 14.3061 41.225
10.2419 17.1821 29.3516
8.00488 18.1968 46.4875
9.96929 23.9403 38.5989
4.40991 18.0403 51.0576
9.13362 15.43 30.3069
6.09801 14.0167 25.8901
2.10235 6.92767 30.4606
6.66059 14.6223 37.9037
8.83147 15.2023 35.1231
5.79421 6.48992 20.5143
6.05379 8.15653 8.14277
7.35195 21.6106 47.2188
7.71977 15.8619 27.7755
4.86073 11.2308 27.8355
4.37522 13.8709 38.6105
8.6319 14.3386 23.9562
4.85217 12.2494 35.1915
5.40957 9.74511 20.7894
4.93092 8.83536 16.6407
7.36197 19.5598 40.1198
6.12366 19.3383 52.3863
4.8334 5.72306 17.56
7.00294 13.9729 25.6232
5.15574 12.818 34.4681
7.37166 13.43 25.6174
5.9485 15.8674 31.7505
6.32683 17.7233 47.112
3.94108 6.56872 27.0942
9.16204 21.1822 56.4477
10.6103 17.3749 27.4992
6.23374 20.2926 47.701
5.59801 15.2633 44.3111
6.57498 14.1654 23.9536
3.01582 12.7807 49.7086
9.64611 13.4793 20.4688
3.08545 6.52941 20.8389
6.25808 14.8346 34.1278
9.81077 30.8917 72.5328
8.22224 8.60462 13.8444
8.05375 20.2659 49.426
7.91742 17.1949 34.5838
3.25582 10.2613 33.151
7.23682 13.5675 37.488
9.12856 20.463 37.5009
7.52149 18.4953 39.8922
5.23745 15.1816 46.1912
9.04026 22.5721 64.1868
18.3296 48.4766 115.252
13.4885 28.2913 65.8223
9.7369 9.47711 19.2639
7.7962 13.6143 23.1473
5.80477 19.4698 51.5252
10.9611 22.5812 54.115
8.81004 15.8554 19.19
3.09255 8.99801 22.8216
5.62405 15.1266 29.8314
7.02539 21.2221 50.0947
6.27677 16.4915 36.4301
3.95135 13.1619 45.3212
5.36945 5.15971 19.4648
5.28077 8.05085 20.7917
7.33959 24.0157 75.7476
15.9539 36.2697 63.452
5.41048 12.8665 35.9847
4.61736 9.94843 32.0561
6.72275 16.3943 31.8683
2.98637 3.95393 14.4756
6.90983 13.7758 23.5859
9.37675 29.4237 49.5529
2.91676 11.1863 35.7234
3.83536 13.4825 46.0584
7.31041 11.7428 15.9243
2.65612 14.958 48.1795
7.41215 15.2416 34.356
4.93688 11.7642 30.6201
6.4367 23.0375 74.9959
6.12422 11.9335 56.6831
12.1143 22.3077 54.5756
10.058 18.4077 32.2226
9.57211 27.5207 59.7923
5.88839 17.0862 54.769
4.61521 5.43248 27.211
8.92422 25.7853 65.3213
8.58909 15.9246 30.9153
10.5785 27.7974 48.9314
5.53259 22.7541 74.8203
9.29598 12.9235 25.4177
11.7602 36.1958 57.1192
4.80762 19.5461 49.8974
5.71628 30.9761 115.341
10.2078 8.86214 42.5508
8.44093 12.1657 31.1385
9.88602 21.9002 38.8821
6.07406 15.559 27.893
3.43081 17.2081 57.7274
9.28398 16.0697 35.8851
5.33347 11.876 24.8365
4.04729 12.6427 39.2313
6.61364 22.1852 70.6173
8.69142 10.1333 24.0755
6.34647 15.0385 20.7461
1.74526 8.09711 31.3186
3.83048 7.77144 18.4074
4.62671 14.2866 37.1476
6.48724 21.3411 50.6167
6.15859 20.2775 51.5365
4.02414 4.76666 17.9587
3.32716 15.7422 63.2739
12.4683 19.5748 28.4182
5.04403 20.7446 66.428
6.0218 10.446 27.1847
5.09842 10.2984 17.4619
2.93332 7.81628 20.6326
3.83627 20.614 61.1228
7.75101 17.4203 49.1365
6.20308 11.983 23.8314
3.37817 8.343 18.8675
1.85993 10.2605 44.8417
6.58213 16.4522 44.0375
5.89917 19.138 48.9742
5.83875 12.1779 45.2701
7.55364 18.4609 27.666
1.66311 7.89409 35.6605
6.56876 22.1809 83.1545
10.0571 20.3199 43.7555
5.87445 13.4921 38.2591
5.90576 18.4003 35.8807
2.32884 4.13334 29.0651
8.44635 38.3164 115.668
12.5897 22.4632 33.4554
2.12576 7.68081 35.0611
3.57067 6.3279 30.7061
7.81195 23.4098 56.3533
8.17871 18.342 52.7566
5.42041 7.78842 12.2699
4.08133 15.1111 41.2463
5.79255 16.9559 35.9762
3.8403 12.0713 35.9877
5.00467 19.9556 61.178
6.2326 13.1767 48.5875
8.22181 26.3057 61.9091
5.76344 10.3225 29.4639
3.18537 10.9857 41.7667
4.43515 11.2158 26.0037
6.03733 19.1576 53.047
7.54487 23.6591 40.3594
5.25017 31.1827 114.522
7.95341 11.0872 43.9345
10.3833 32.2107 77.8888
5.7274 18.8151 92.8978
10.6634 10.6042 27.6132
8.07869 19.2892 27.4728
2.8631 6.85992 18.7771
3.72355 15.665 44.695
4.99343 13.0382 35.0294
3.78749 9.94097 27.8616
3.44524 9.6988 25.918
3.59734 9.19154 21.8895
1.31142 5.80031 32.0926
4.85979 12.5357 25.3075
4.68633 19.1996 69.4429
7.68546 19.4923 55.1515
6.22591 13.1342 38.6393
5.35189 11.6644 22.3893
1.64781 5.39956 19.9677
4.96173 17.1135 46.2004
4.14117 10.5232 26.2005
1.93029 3.53087 12.8973
2.76638 7.11655 16.371
2.93769 13.4276 46.9193
5.8186 13.2357 39.4242
4.78611 12.98 24.0006
3.7586 16.6018 51.6601
5.42932 13.3406 36.352
3.15016 4.75774 20.6398
3.94168 17.1455 53.7601
6.43409 12.541 47.7062
6.69337 13.464 16.1302
2.64193 19.2015 73.6891
7.31127 12.1239 23.5389
2.35201 9.10991 51.1505
9.3441 31.3666 72.9637
6.63716 13.6534 26.3369
3.0907 9.49482 27.0566
3.56335 19.5076 77.0072
7.89341 19.7148 64.4158
5.51028 16.277 64.212
7.6279 11.5323 30.207
7.85238 22.9865 41.391
4.65521 18.0188 44.8248
2.98708 9.63996 49.5348
5.00198 10.8954 35.6489
4.54029 12.1868 21.7125
2.39846 10.9184 28.6157
2.51532 14.0825 55.838
4.94041 10.2648 45.7027
5.00165 7.88814 10.9873
2.43872 8.286 14.2787
1.34919 8.24591 37.7066
3.5404 9.75135 26.1821
3.4519 9.5338 23.2531
2.52052 8.08146 32.8358
6.60991 17.8118 49.5385
5.31469 17.6145 50.2991
2.84043 6.3353 17.1847
1.65257 5.94669 24.6545
3.73226 10.1836 28.4757
1.89712 4.35254 26.0046
4.4334 12.9064 34.807
3.45233 8.91037 21.0322
2.38349 9.58678 29.8075
4.18301 14.6827 46.258
4.09917 10.9049 37.8752
4.32662 10.39 33.1981
4.22208 15.4385 42.6047
4.18604 13.5606 48.1593
4.56167 8.74792 20.1145
2.28014 9.44457 36.0734
3.49583 10.2128 44.4334
4.576 11.0826 18.8507
3.23063 19.2687 69.6104
5.4404 4.99462 15.7803
2.1265 5.61304 28.2367
5.52183 15.5197 39.1158
3.54794 6.95265 19.9647
3.23509 8.98547 14.925
1.1898 4.66614 34.1597
8.18029 22.4776 38.9835
2.20526 9.23996 46.6076
4.63871 12.5239 42.0123
4.54862 20.1196 74.5808
6.35876 10.3532 48.3637
6.93595 19.0259 45.0235
6.63745 21.5817 37.5015
2.20877 10.4859 50.8646
4.53283 9.57942 25.6589
2.65637 7.92246 29.6818
3.55414 11.7374 25.0524
1.96102 8.18222 28.225
4.29476 13.847 50.6625
4.23918 8.70869 36.2767
7.73961 32.0243 69.3932
3.82732 8.85938 44.3369
3.66292 7.08602 17.3587
2.16725 5.20707 26.4916
3.67395 11.1276 31.8447
5.55674 19.9867 37.7158
1.81096 10.6698 51.4739
4.61894 9.21434 27.8476
3.29276 10.1593 17.8084
1.31475 8.72064 33.2645
3.74877 11.0855 39.1889
2.49772 5.45935 21.4955
1.80673 4.79445 26.1546
3.46511 13.2426 36.3752
3.70993 7.17615 18.8257
2.57028 11.6478 43.3115
3.17411 11.8303 39.5773
3.13104 6.51517 37.9597
4.73017 19.0437 49.5403
3.85367 8.97874 20.1853
2.76192 9.09072 26.6433
3.41751 13.0785 31.0867
1.8487 6.59259 35.0511
2.79142 6.02256 43.0278
7.97217 20.6428 21.403
1.19179 13.4093 60.2934
4.6258 11.5537 39.2785
3.57179 9.67083 47.5276
4.36709 11.1014 37.3615
3.03717 4.41529 28.7926
4.57095 13.891 26.1808
2.82562 13.2748 44.0479
3.51714 11.2492 41.5427
4.61804 10.3702 18.3436
1.75246 9.24664 21.6358
1.86273 8.72134 41.0239
2.9158 4.86514 28.2133
3.09735 11.2417 49.6834
5.7541 17.7437 31.3384
2.37026 15.1991 48.0756
3.02804 3.22329 25.6697
3.90684 10.1723 24.3843
1.66571 5.12792 21.1271
2.22032 7.37488 43.4865
6.61972 24.8683 57.6143
3.92564 11.2418 61.1294
5.4972 10.5909 38.3428
3.69493 12.0541 23.8637
1.74811 6.54834 27.3041
3.22553 14.1802 41.0135
2.65617 7.14174 47.4544
4.88818 10.4321 26.0014
3.36204 10.1318 15.7478
0.824567 7.82602 39.8988
4.79371 12.8152 29.7137
2.42996 12.5829 41.2348
3.21122 8.74387 36.5351
3.59932 6.99909 21.4604
3.0359 8.44227 31.2129
3.77914 8.69341 23.4883
4.14097 24.705 73.1534
3.69938 10.0195 45.5522
4.01304 8.87458 16.679
1.54411 5.7375 21.7103
1.25649 4.87914 30.6815
2.76455 11.5446 52.1923
4.36168 11.1667 24.9984
3.56236 16.7559 37.93
2.2142 12.0211 52.6935
3.16495 10.5891 63.2556
5.03615 10.2192 48.4861
4.42361 10.1197 23.0637
2.4014 6.4831 46.6135
7.51017 30.4049 40.2499
2.02113 17.1984 74.199
4.55104 5.58859 29.607
3.3276 11.5239 22.3294
1.77663 7.32919 28.5133
2.6515 8.67931 31.3056
2.88542 12.4927 44.6078
3.09428 3.96047 10.119
1.3858 5.84235 29.8782
3.47896 20.0005 57.8749
3.46481 4.91539 15.9026
2.18991 6.84934 29.6102
2.61766 10.0098 42.2788
4.20318 15.6096 52.7077
4.30641 13.3402 38.7945
3.70665 10.0367 31.931
3.41516 23.0212 82.1287
6.17479 12.4335 37.3494
2.97809 8.15587 34.2119
2.9286 7.79502 14.5066
1.02498 7.1595 43.7646
4.42 13.2324 36.7216
2.31941 5.77351 34.3552
4.29743 10.5105 42.7326
4.34645 12.9133 28.4416
1.75044 9.04311 38.2036
2.85911 10.3427 35.7903
2.28385 4.03278 9.40595
1.1864 7.46841 43.0446
3.71969 9.83358 42.5276
4.89263 17.2374 53.6352
3.89135 17.6991 50.8364
3.11422 2.97729 31.5521
3.96093 15.9817 29.0181
1.71892 5.47178 28.9318
3.37228 14.0265 55.3419
4.43607 8.87762 9.99917
1.02367 9.39314 57.3652
4.7634 12.9774 46.2331
3.19646 5.65181 16.3953
1.90861 10.786 49.4024
4.20928 18.9622 74.1299
5.55275 9.05327 16.2967
1.73984 7.99912 27.0121
2.12056 6.26359 17.5444
1.58879 7.19043 23.7531
1.96392 6.27309 26.1116
3.1638 13.1875 50.3988
3.05826 12.0123 31.8421
1.9124 7.32749 36.1838
3.27295 11.8208 74.0864
7.49843 19.6928 41.2895
2.13453 8.00097 27.3374
2.54924 7.96539 39.299
4.22124 18.6945 49.7054
3.72567 10.1253 30.7437
2.27004 7.50271 34.3036
3.7806 12.6624 30.8944
2.59581 13.5032 32.7889
1.82625 5.39342 41.1417
4.45013 14.4393 25.4806
2.4262 14.519 48.8037
1.84067 5.20561 41.4437
3.16429 4.35164 25.9996
2.69178 9.72313 34.0044
3.31864 11.1777 37.0212
3.33848 14.2449 39.8196
3.0955 16.1535 55.2088
4.10814 18.4756 70.4716
3.87601 10.3592 52.3633
3.96891 17.0443 67.5133
3.85954 6.01141 55.768
6.29096 28.9244 38.9348
1.80401 14.7939 88.3632
5.77941 9.26327 18.9364
1.53338 4.32039 27.7653
2.93047 22.5322 81.4278
5.86208 17.4224 56.6431
2.71538 5.21248 27.2739
2.68517 9.80805 39.6203
4.06527 14.2947 33.1331
1.81533 7.53311 26.4685
2.00705 3.76958 20.259
2.6226 15.274 53.8916
4.03799 17.1248 47.4798
3.73418 8.58108 31.8607
3.02239 11.772 23.325
1.2621 12.1754 58.1598
3.45986 5.80296 23.3557
2.04135 7.53167 18.0388
1.7336 11.6112 57.6567
4.68359 7.82353 19.4431
2.20459 7.0709 23.5
1.93293 8.56524 10.286
1.16686 10.141 39.3166
2.63289 4.98382 8.2211
0.779395 5.4868 17.8546
1.54533 8.85408 25.0476
1.7888 10.2322 47.7356
3.25476 10.2979 37.1269
1.90281 7.97002 34.5181
2.16341 6.53309 23.8001
1.74415 5.22484 21.5072
1.34752 5.95868 38.0188
2.71013 4.31343 13.9287
1.04072 5.90896 40.5334
3.61876 10.7605 29.3229
1.58549 4.41277 38.6995
3.24278 10.8182 35.6385
2.87715 7.05781 26.852
2.71509 15.8005 63.5395
5.43476 11.3176 12.9653
1.15521 6.25633 16.3904
1.23403 6.95194 27.8048
2.30297 10.4973 44.3842
3.32375 15.7583 58.65
3.15987 9.60873 23.7204
1.4195 6.46617 42.0771
3.04265 12.2423 68.7157
5.12796 12.0136 40.3454
3.06136 5.71615 27.6952
2.68648 9.93709 40.5034
3.34149 6.87285 27.1121
2.55721 12.9177 43.7421
3.19071 10.7868 21.4254
1.46569 13.6649 48.8964
3.31303 17.7281 76.9871
4.35545 5.19713 18.8969
1.57835 9.6283 44.5432
3.03779 9.50628 43.8971
3.6761 8.13054 38.9725
3.79368 11.213 24.7187
1.83625 10.3445 40.0987
2.73142 10.9856 62.773
4.6366 12.9113 28.2055
1.43982 4.47754 22.4971
1.97076 4.34921 16.1302
1.28297 7.49237 45.3075
3.3514 9.53477 52.9867
4.65522 17.6911 49.4177
3.6745 15.6859 46.2331
2.97843 11.9368 46.2281
3.21766 18.7604 64.3638
3.90904 5.33704 50.4856
4.64987 17.3155 31.3774
2.01304 7.01431 25.9372
1.6206 2.91985 25.804
2.10618 7.84562 41.4933
3.60469 12.5467 21.5317
1.1962 4.99448 34.4996
3.13939 10.9324 38.7855
2.86946 13.9603 38.2141
2.63197 10.0644 33.964
2.93583 11.5915 25.9895
2.25372 14.6797 32.1275
1.59538 11.4275 62.2867
3.55262 7.22569 32.7591
1.85196 5.07814 30.2687
2.12551 7.04795 49.7211
3.98023 15.285 65.5014
4.71591 13.2822 30.4614
1.5817 5.1301 17.1878
0.970953 6.17402 43.4045
3.58485 10.6354 29.2194
2.23558 10.8839 36.7458
2.46921 13.1398 41.706
2.65664 5.97396 19.8133
1.30764 11.0019 54.3974
3.42416 8.83664 30.5071
2.23388 4.4303 34.9356
2.68806 11.857 34.7418
2.20014 8.19785 35.3196
2.76984 9.33461 41.1768
2.39873 5.35574 17.6471
1.70622 10.0984 45.0943
2.98253 14.1862 54.4761
4.08273 10.7012 35.5043
3.09198 17.149 51.7222
3.79453 6.97311 18.9944
1.38099 8.62809 29.0252
2.3386 5.73772 13.3541
1.02613 7.118 34.2228
2.26723 8.1896 29.7481
2.19518 9.13469 43.4338
2.73 7.15592 34.8618
2.81765 13.5249 59.2175
3.71788 8.48377 44.8582
3.35987 7.42823 17.343
1.5188 7.21418 30.3582
2.54419 13.5912 60.722
3.9587 15.4817 53.6588
3.68207 6.9302 29.9526
2.38903 6.5988 40.6659
3.73835 10.5166 29.2884
2.16958 10.1287 23.8581
1.92322 10.2872 31.5466
2.35701 5.92799 13.1347
0.857496 6.53725 28.0015
2.06747 7.30934 27.4341
2.41817 14.8893 44.6394
2.49904 16.8035 85.32
4.86639 8.4248 53.8926
2.98592 4.3193 73.7943
6.02855 22.3945 43.288
2.51775 8.41802 26.4628
1.99657 7.4709 23.0586
1.58157 9.33145 47.3921
3.49055 12.3101 47.4211
3.61161 14.0165 45.0086
3.05019 4.6342 12.9195
0.875346 4.88236 53.4832
4.339 12.9032 28.996
2.31633 9.16131 30.0146
2.09752 9.13835 36.5955
2.77901 8.23099 41.8275
3.80042 19.8342 59.1232
3.2709 9.42207 33.0378
2.6123 11.0526 44.2718
2.47098 15.7286 19.8254
1.36846 12.5043 57.0764
3.65312 9.58496 47.0192
2.60696 8.41045 32.7426
2.29032 7.83744 49.6648
3.708 10.6208 33.395
1.96892 8.92559 21.8416
1.42294 8.76382 43.9245
2.60496 2.69272 23.7769
1.43514 3.8442 32.7954
2.63186 14.2459 37.4325
2.14353 13.2754 23.9468
1.25934 7.03117 55.91
3.53004 9.73039 17.2726
0.908661 4.18362 32.4518
2.18907 7.92099 68.7998
5.4292 16.876 34.5774
2.10897 12.1924 26.8527
1.9817 13.2992 53.4028
3.09185 6.56242 22.775
1.55068 10.4544 50.1983
3.2408 2.13727 33.8657
2.37842 8.44133 19.1818
1.35246 7.67752 46.8535
3.25659 9.57828 43.1487
3.30527 13.8228 28.5688
1.72813 8.10534 23.8821
1.62956 3.60637 21.8975
1.20526 5.99364 13.761
0.756932 10.6059 29.999
1.83246 6.14021 47.1921
3.18432 5.08016 41.6798
3.23502 12.7614 38.2798
2.18413 11.3272 36.3428
1.79629 3.51452 8.69631
0.670868 2.00707 20.3532
1.3735 6.23927 19.8752
1.40037 5.65914 36.0233
2.30156 7.1948 64.6365
4.27682 15.5071 39.7446
3.1411 16.7186 59.1752
3.87698 10.5994 30.7336
1.76932 20.6106 117.448
7.20878 17.4234 50.5622
2.86917 9.16011 24.1234
1.55696 5.42683 19.4174
1.47821 11.4843 54.0913
4.13999 13.0526 31.1422
1.56128 8.43323 36.366
2.45104 6.03233 31.3407
2.08046 8.86658 15.0959
1.11478 5.50497 16.2669
1.32781 7.67955 56.7688
3.47094 10.2745 29.084
2.28869 6.13227 18.934
1.33517 7.88317 45.0346
3.33922 10.4843 21.0889
1.19396 9.44491 40.2482
2.71878 8.14132 26.4504
1.74331 11.495 43.4188
2.51019 12.7244 24.4985
1.70621 9.82515 43.022
2.60567 3.90102 20.304
1.61788 12.3859 55.6759
3.33099 8.26877 15.6813
1.05275 6.58647 20.3653
1.33946 17.3779 91.0255
5.16142 7.75434 46.4419
3.07266 15.5371 54.7504
3.09718 10.9832 50.824
3.10946 8.98882 24.26
1.52276 7.00436 38.0299
2.03849 10.4877 38.7196
2.05636 3.7888 46.3163
3.55486 17.1698 32.3448
1.80276 11.7014 42.5804
2.76428 7.96582 33.9988
1.78328 4.40833 38.4281
2.16092 8.07262 14.3763
0.852204 9.54967 39.0231
2.53853 8.01016 74.9414
4.99194 9.4437 26.4362
1.55619 8.35169 43.9706
2.8552 8.62405 42.8308
2.90324 8.39515 35.3163
2.2161 7.36822 35.7631
2.76203 14.9799 31.1429
2.04678 10.439 21.8239
1.42847 7.5435 25.8227
1.51527 11.9578 38.302
2.40638 5.95197 23.5814
1.34326 7.20279 34.876
2.59974 9.46605 24.4784
1.89902 12.6392 58.7348
4.16849 7.99545 14.0876
0.661045 3.93241 42.6117
3.09286 8.77918 31.9259
2.08306 7.64321 20.5789
1.4505 6.37124 52.1079
3.67194 14.689 27.5186
1.63319 7.24915 38.1737
2.85908 9.58341 16.5499
1.08477 7.68743 30.7408
1.91968 5.99933 66.8402
3.76588 17.7328 39.9127
2.22792 12.4192 53.2438
3.68893 10.8404 50.1003
2.85284 8.4991 27.6528
1.34917 3.47602 38.2913
2.65893 20.849 59.8308
3.95722 7.33608 36.8288
2.74379 10.1333 36.7067
2.58123 12.8549 67.7697
4.44583 11.6478 42.684
2.60987 14.0273 47.0425
3.14724 5.63169 41.6115
2.59194 6.66157 21.1818
1.5549 6.68754 14.1175
1.08673 14.9379 90.2467
6.46073 11.4864 31.5422
1.91094 8.95252 38.7149
2.76023 10.2158 38.8542
2.97156 14.3729 55.9827
3.4219 11.9339 40.7644
2.13892 10.596 30.921
2.12255 11.0236 38.1911
2.21427 14.6958 66.2684
4.60927 4.76724 11.4473
0.795859 6.93157 22.5624
1.56309 5.39884 29.5969
1.67293 9.47864 28.9475
1.4621 4.33354 34.0374
2.21094 7.37947 41.6584
2.84089 5.01868 38.7527
2.75928 10.6476 22.011
1.26445 7.1743 49.757
3.28045 14.1315 47.3109
3.16809 14.9593 52.3375
3.77395 29.4694 185.464
9.76731 0 0