# pn-170911/RbIIR-53-WTZR-1280-1959.psd
# Power spectrum* (dif=0,1,2) (really just |FT|^2)
# NOTE: only the first half! (symmetric)
# weeks: 1280-1959
# 14 clock-days, 5 excluded
# PSD: 1441
2800.94 0.0701852 0.0467806
27582.3 0.596071 0.0979582
178612 2.98726 0.131457
19825 0.817123 0.154089
49763.5 4.06471 0.113545
7437.87 0.592574 0.111957
5989.07 0.773235 0.115327
2682.88 0.476504 0.119012
2745.21 0.518639 0.13821
1977.39 0.532803 0.121261
2098.56 0.715402 0.0985826
1162.36 0.465223 0.142361
979.365 0.720359 0.12034
1628.23 0.954206 0.13405
584.48 0.469598 0.129205
722.075 0.384829 0.144086
840.155 0.857218 0.138444
1274.93 1.28161 0.140023
975.879 1.53846 0.0882915
962.444 1.22394 0.122533
860.036 1.28946 0.128892
565.1 1.03557 0.120103
595.263 1.17552 0.13235
675.032 1.73415 0.141441
885.873 2.36169 0.14392
589.395 2.29718 0.170682
1074.11 3.26538 0.0782264
770.839 2.4911 0.0912582
1191.48 4.35643 0.154776
836.97 2.94146 0.121665
442.513 1.78542 0.135144
1420.54 6.66016 0.124758
799.663 4.11109 0.123817
830.085 3.9317 0.205938
692.884 3.42743 0.141672
714.427 3.93391 0.134322
657.848 3.73761 0.188024
897.209 4.7697 0.121493
870.346 5.69096 0.218463
985.233 6.83255 0.239112
780.681 6.60921 0.169987
870.711 7.48071 0.25523
605.572 5.37156 0.188699
1083.39 8.80496 0.183643
1026.45 9.74776 0.189486
791.044 6.91184 0.136006
678.095 7.34769 0.184701
1135.47 11.705 0.242515
781.89 7.84596 0.17927
569.652 7.378 0.209329
992.381 11.2775 0.295499
568.696 7.46082 0.294743
746.176 8.97214 0.256631
810.468 10.1042 0.142525
749.401 10.8817 0.415433
579.099 7.9314 0.242689
367.811 6.03542 0.145283
445.972 7.57177 0.316413
508.409 7.56069 0.333487
897.031 14.572 0.313986
1096.86 18.2073 0.431161
1016.65 16.9354 0.398553
667.524 12.6487 0.483101
579.337 10.6828 0.254158
590.644 11.5906 0.364235
686.862 12.7904 0.280623
367.47 7.96805 0.321796
705.787 15.643 0.485503
419.075 9.3215 0.327294
794.949 17.2962 0.40576
708.647 16.345 0.502251
669.155 16.42 0.521558
594.888 15.0524 0.567899
497.158 12.9009 0.455759
561.207 15.2014 0.499151
410.958 10.6373 0.403634
706.075 19.1339 0.573447
755.85 21.5483 0.583556
779.596 22.5354 0.713382
408.396 13.2968 0.451625
620.147 19.1391 0.702687
443.962 13.8112 0.577825
495.564 14.4243 0.628471
408.906 12.5972 0.468321
256.019 8.28926 0.436808
236.501 8.54575 0.417173
405.034 13.0373 0.460792
501.211 17.8613 0.970073
564.952 18.9977 0.671382
300.618 11.2821 0.528237
280.325 10.5124 0.500934
422.964 18.8431 0.874199
704.992 25.8288 1.14657
495.483 20.2471 0.805225
425.679 17.1023 0.762798
379.174 15.2327 0.71162
500.784 23.5799 1.14727
343.794 14.8477 0.525055
450.443 19.8572 1.17236
392.112 19.9029 1.19142
395.252 18.2602 0.870447
471.063 21.0652 1.09806
318.862 15.9058 1.08201
228.554 10.8366 0.643128
335.574 18.0534 1.00378
268.25 14.3322 0.779813
398.109 22.1557 1.47309
387.55 18.8654 0.87855
303.664 17.6459 1.03315
292.99 16.8037 0.849669
351.221 18.5608 1.0385
403.432 22.3837 1.51294
322.115 17.5557 1.26627
196.253 11.2646 0.728613
147.709 9.22933 0.511187
211.075 14.3536 1.14359
289.484 18.1986 1.34348
280.116 17.4333 1.21735
265.572 17.3197 1.23968
174.026 11.8038 0.806014
222.656 14.6908 1.12278
128.704 9.23297 0.609847
166.737 12.386 0.979996
266.175 17.4743 1.49589
178.903 12.8029 1.09725
260.282 18.4461 1.32938
278.03 20.8659 1.75365
219.192 17.9231 1.53666
251.451 18.9001 1.7568
173.124 13.0558 1.20879
217.54 18.6954 1.54037
248.814 17.9181 1.65292
130.569 9.61394 1.12889
295.563 24.2707 2.42966
279.215 23.3123 2.02483
222.521 19.0419 1.63386
160.329 14.5476 1.25975
192.307 16.8803 1.77241
87.4875 8.05728 0.750499
187.545 17.4921 1.82261
116.252 10.5632 1.12012
177.749 17.0867 2.05637
207.089 20.5311 2.42205
198.515 18.1275 1.94277
206.058 21.0524 1.8615
245.032 24.1786 2.76148
171.44 16.5874 2.11744
119.698 11.8773 1.37631
209.016 22.3017 2.53965
208.763 21.2443 2.17883
110.996 11.2918 1.05343
111.35 11.379 1.45871
214.663 21.7277 2.35317
148.556 17.9715 2.33034
187.508 20.485 2.6054
166.1 17.5421 2.01124
135.392 15.1649 1.88255
90.463 12.4837 1.74704
159.339 18.7986 2.17954
136.124 16.2712 2.23304
220.644 24.9083 2.94961
177.119 21.3056 2.66094
191.948 24.1634 2.82515
185.279 26.2235 3.86992
233.535 28.6591 3.79777
172.062 19.8593 2.45739
113.916 16.239 2.20126
185.126 23.3225 2.84427
129.085 16.5548 2.1484
123.479 17.2035 2.53474
114.102 14.6484 2.34219
150.881 20.6444 2.70291
80.9534 9.89974 1.3119
79.4773 9.52254 1.15731
205.914 30.9575 4.18912
172.301 24.8512 3.74531
113.219 17.3553 2.62968
103.906 14.9899 2.31
170.356 24.9447 3.84012
70.0939 9.63976 1.70779
164.523 23.4876 3.67622
103.836 14.8394 2.31162
138.536 22.2755 3.78309
107.043 17.2756 2.8214
89.7486 15.682 2.28658
169.371 25.881 3.37
153.188 25.6273 4.56178
88.3276 14.1747 2.62783
115.81 19.9373 3.6413
118.107 19.4527 3.35404
133.006 19.3824 3.25971
84.0838 15.5676 2.97739
112.442 18.6935 3.0681
90.4548 15.9726 2.9558
101.723 19.6309 2.98538
86.2612 15.6079 2.70752
150.843 24.4755 3.91526
84.0636 17.3545 3.66953
110.807 18.922 3.31834
93.5895 17.1163 3.26499
138.114 26.9541 5.08737
88.9598 15.8662 3.12364
106.789 22.8695 4.65326
83.4692 15.3178 2.63836
97.2158 20.8624 3.99567
100.155 20.7971 4.56067
123.449 22.5005 4.34329
113.877 21.4208 4.1017
94.1466 22.0868 4.78165
165.699 34.885 6.98272
101.682 17.8062 3.10677
108.755 21.8455 4.73208
139.385 25.1082 4.4384
166.551 34.0223 7.31728
109.636 23.8736 5.36833
132.585 29.2098 6.08765
150 28.4249 5.21877
169.633 36.142 8.6996
127.699 27.9026 6.13892
91.1933 19.7714 4.12157
108.951 23.6947 5.82365
73.7517 15.7431 3.2365
105.627 22.7517 4.81751
93.9877 23.161 5.93345
93.3406 21.2105 5.10862
79.0495 19.3701 5.53608
126.393 26.6963 5.69298
117.509 25.8572 6.11665
93.8045 23.8247 5.86992
110.053 26.8934 6.58168
114.433 27.766 7.43592
122.518 29.4271 7.67461
137.955 35.5862 8.62844
61.8763 17.1834 4.66246
121.361 28.0536 6.52109
94.6911 24.4805 6.68399
69.3161 16.5716 3.66061
74.3975 21.2962 5.35047
157.001 43.041 11.7511
78.6437 20.4839 5.12269
96.8394 25.7294 7.01214
74.2876 18.3775 4.40252
57.7723 17.7464 5.0503
82.2841 23.8112 6.42874
93.7238 23.8101 6.86699
107.975 31.6093 8.81644
110.295 28.1977 7.54458
93.252 27.162 7.23586
74.7096 21.6894 6.15036
67.7344 21.7355 6.45012
60.4141 17.675 5.1849
76.738 23.1684 6.79049
62.4453 19.464 7.01512
97.0839 27.5892 7.52257
74.1346 19.5503 5.62488
82.1327 27.8984 9.33159
71.7137 22.3461 7.1073
117.687 38.3444 13.0257
70.3615 18.7697 4.80425
75.0209 25.4739 8.4355
86.4527 25.0056 8.02325
95.1252 27.1688 8.39231
63.0103 21.1102 7.76688
159.96 48.0798 13.1357
69.7114 23.098 7.9531
93.7557 34.1576 10.7887
94.0985 32.1349 10.3965
67.7174 23.6821 8.07008
69.0179 23.3545 8.5329
75.9531 25.9024 9.90994
131.35 36.931 10.8899
72.632 26.0946 8.67545
51.4395 17.1299 5.87801
81.6979 24.7286 8.04972
96.5856 33.5151 11.0693
44.6296 15.6583 5.92821
66.4612 22.9787 7.72554
84.3913 29.8558 10.8773
58.0294 20.3173 7.87417
64.3018 22.2368 7.92476
92.3006 30.6334 10.5652
67.4492 23.7336 8.93499
89.0243 31.0837 9.64049
68.2854 27.3945 11.0441
75.2478 28.0685 11.5521
62.3196 23.9424 8.92826
92.3832 36.5369 14.8371
53.7831 18.496 7.20699
120.45 43.9315 15.0263
74.5444 31.1885 12.2548
43.8957 21.1004 9.57941
81.9679 29.6195 10.5606
41.2359 13.2932 5.52558
78.8192 28.208 9.68788
55.6047 23.0885 9.53526
65.9264 28.6035 13.1853
30.1315 12.8387 6.82754
68.2123 25.4067 9.80221
96.8968 39.6194 15.8212
48.9058 18.155 7.4753
46.0846 18.63 6.82893
64.7623 27.5695 12.166
72.9091 30.3694 12.6318
42.0629 17.6816 7.16083
59.806 25.2612 10.6251
58.4438 26.0078 12.1827
60.3561 23.3479 9.41207
58.5544 22.193 8.56624
61.7542 25.4467 10.2505
49.2683 22.3239 10.064
49.4332 21.029 9.25175
83.424 38.9575 17.3587
70.1512 31.2667 13.266
65.1445 30.1969 14.8935
59.417 25.2677 11.0429
63.1097 33.1964 16.7579
68.9142 29.4956 12.3051
80.5836 35.6633 15.2981
62.5923 27.7096 13.6438
46.4323 24.4064 13.3006
57.1374 25.8824 13.1075
52.0762 23.2092 10.5924
54.8047 25.7495 12.2982
64.8326 30.5334 13.2109
51.9422 30.4175 15.8162
49.6227 22.6429 10.7247
67.4174 30.7266 14.0493
30.8713 16.7404 9.02023
64.306 35.2979 18.8871
70.8453 28.8824 12.784
65.025 30.0382 14.0837
70.3374 34.5679 16.9009
37.8875 15.4208 6.22243
40.8373 21.4779 11.2655
73.6067 38.1419 19.353
58.0174 25.4527 12.5012
78.8529 39.0908 17.981
37.6293 19.4652 10.4927
72.9721 37.6656 19.0601
44.8871 23.8188 12.8934
52.7882 27.9119 15.3356
59.4673 29.1292 14.5003
63.0764 35.2304 18.8246
87.6808 42.1426 20.7665
56.5601 28.8656 15.5182
61.4238 34.6671 19.369
49.9877 24.0288 10.6975
53.3136 31.6688 18.5053
55.7499 29.9795 15.0466
43.6514 25.4983 16.2942
44.8895 24.4143 13.8597
83.2436 43.4189 23.5034
34.8683 19.3891 11.4846
43.8097 27.8283 17.7722
32.696 17.919 9.5504
55.8502 34.7419 19.8389
52.6606 26.6843 14.235
50.3334 30.6957 19.1672
39.5851 19.753 10.9235
44.6404 27.8714 16.8536
27.2082 16.7456 11.8212
52.6482 29.9387 17.8
40.138 24.0694 14.3594
50.2324 29.3655 16.7782
48.3127 28.5942 17.6384
71.9526 44.0484 25.485
56.6567 28.7582 16.0424
50.1229 35.0465 24.306
62.1818 35.7448 19.3468
52.7474 33.6458 20.7087
44.7175 27.6596 18.445
44.6447 25.6458 14.4083
45.9632 33.4591 23.5784
53.9057 30.2666 18.2578
36.8368 23.007 13.8887
44.8426 28.6092 17.5541
29.7486 20.1542 14.6571
54.6424 32.0839 19.3194
45.5865 25.1246 13.5191
46.3394 35.1518 25.4281
48.5725 31.4589 20.5471
46.8726 25.5187 16.4797
63.1138 40.9709 27.4655
50.0403 29.5611 19.3902
50.407 31.3075 20.1005
68.7259 40.9054 23.522
53.1158 39.107 28.0889
39.8035 25.5284 19.0453
62.8473 40.7033 25.3595
59.5305 35.8609 20.7717
43.4436 32.4042 24.5354
51.4623 40.8769 30.443
58.8523 38.1614 24.1053
40.2316 31.3142 25.5546
39.895 20.4093 10.7591
33.0959 24.1489 17.4
26.6722 15.9578 10.1267
30.5944 19.7926 13.476
30.29 22.3124 17.3542
47.0348 33.0395 23.627
56.5216 40.4685 29.3472
66.7464 45.2061 30.3428
52.8517 39.9005 29.5013
28.3082 17.998 14.064
39.8084 28.3776 20.0842
39.3699 25.8869 17.1227
36.284 28.884 20.5788
34.2687 27.0111 22.7928
38.0189 27.2486 20.1382
38.042 29.0782 21.0404
38.0879 28.614 20.4618
33.2709 28.8448 24.9342
36.3309 27.1251 20.7823
26.7978 23.2514 21.273
44.2163 32.3898 25.3477
44.4527 31.8958 23.5546
39.4509 22.2498 14.6896
67.0902 51.3059 33.4984
25.4502 20.1276 18.2136
21.1152 14.7075 10.8497
24.2115 20.4797 16.4351
16.0995 13.6508 13.5448
43.7778 30.3028 20.5965
24.1348 22.7218 20.3628
26.3793 22.0247 18.0561
44.7352 34.9962 28.2288
29.9071 24.5562 20.4199
29.3557 18.8037 14.2097
31.1814 25.8203 21.674
17.084 14.7628 12.9805
15.6974 13.589 14.3389
26.1135 15.8476 11.0536
46.7106 34.6742 27.07
32.4503 27.1652 22.4364
42.7948 32.9605 24.026
26.042 23.3024 21.0511
42.8124 36.2988 30.4644
24.0198 22.9929 20.794
20.008 17.1429 17.7765
23.6026 19.0725 14.8738
31.9011 25.7231 20.1963
33.5987 28.5887 25.2447
28.9381 22.11 16.2024
35.5131 34.5281 29.0597
21.7803 20.7453 19.768
39.7852 30.843 22.6396
20.3471 21.8822 22.5017
33.5127 28.6025 29.5514
44.1516 33.5988 24.7449
32.7409 33.5562 34.6049
42.3456 35.7215 30.1396
30.2159 27.4028 26.2471
29.317 24.8272 24.3549
34.9347 22.3716 16.6165
32.2471 27.7923 22.6819
21.7848 19.7509 17.6883
27.2495 26.1506 24.0338
25.8449 23.53 19.9285
27.0552 26.4391 25.9941
21.435 16.4197 13.3198
24.9871 24.8333 23.4909
32.2709 36.3117 37.8561
30.2807 24.712 21.8066
23.8974 18.8301 15.0267
26.5709 26.9063 26.2129
18.7375 19.6844 20.8821
34.1854 30.6946 27.7282
23.3786 20.1391 18.5705
22.304 21.9223 21.8639
22.6986 21.7061 23.3872
49.759 42.747 35.7286
30.9926 32.261 30.795
19.1027 18.2708 19.3685
32.2533 29.4023 24.0084
26.3284 30.6988 32.6792
29.7484 28.4026 27.4332
36.5388 36.184 36.3766
33.1866 24.2504 21.7863
28.0058 27.8275 28.0971
30.4972 28.2837 26.4522
41.1591 46.6564 49.3003
34.4792 30.4737 27.6584
23.6034 22.5793 25.4785
31.7531 26.4322 18.8873
31.5832 37.7784 39.7372
28.5798 30.1962 32.4948
30.5093 27.9772 25.6776
19.0487 20.1427 21.9397
31.9842 30.3214 27.8758
25.568 25.3829 25.2498
33.6098 39.2837 38.9467
22.8443 20.3677 18.7723
21.7665 28.3479 34.5372
32.1942 29.9426 29.1503
27.4142 29.081 31.7755
25.3558 25.3617 24.524
36.1226 44.431 47.6502
32.465 33.7534 40.4342
26.8525 22.6635 22.8785
34.7487 36.5699 34.6983
33.5885 41.5133 46.4472
25.3502 22.7575 22.1699
33.0083 44.4379 53.8065
37.5643 33.3909 32.195
25.244 25.307 24.9524
22.774 24.5744 27.2808
31.6009 34.3237 33.3121
39.3062 46.2418 48.1853
29.2995 34.8275 37.4213
27.8612 36.0526 45.256
28.9558 29.9569 32.2942
20.8277 23.9728 30.1543
29.3099 31.9822 33.7259
23.988 31.4587 40.2367
28.8893 33.4062 40.5286
28.2536 32.6233 36.9801
20.1827 22.0614 27.6704
24.5846 28.8019 34.9424
28.7166 27.8922 32.8124
44.1102 52.0944 52.6773
22.885 25.8658 31.3836
18.4724 21.3002 27.3639
27.8854 31.6499 37.7845
32.6346 38.5877 44.3866
30.0528 31.776 35.5158
19.9156 23.5699 28.5774
20.4311 26.0201 29.9281
25.1229 27.8554 30.1823
23.8726 32.2075 41.4045
26.4343 30.7672 34.2861
24.8324 35.7105 47.5139
18.6205 15.9373 18.7515
20.3512 22.0551 26.2492
24.7559 28.422 30.0012
14.0879 25.3599 40.7197
26.8309 31.1071 37.4717
27.0577 27.2502 25.5729
12.8215 16.4526 22.6021
25.0624 28.9028 32.7834
19.2167 21.4209 21.4671
23.9821 39.0676 53.1114
22.07 28.7849 43.3409
26.9007 24.9316 26.787
17.5403 20.6764 28.9579
18.6369 18.7922 23.1432
15.5038 19.2786 27.7565
24.4543 27.7469 34.4208
29.761 35.4881 37.9023
20.3017 23.9381 29.7367
17.8118 21.4238 27.863
23.9729 29.4223 38.9578
27.1376 31.8371 40.4778
32.92 38.3785 42.2956
24.7374 33.6374 36.7888
14.6513 25.7028 43.9224
21.6375 28.0051 42.7711
24.3635 25.6407 28.4022
23.1134 33.1979 44.4883
30.8815 36.3862 41.9435
15.4424 15.7115 22.036
20.4634 20.0506 20.9507
28.5179 45.3137 60.8035
20.0673 23.3357 36.8688
31.4121 36.4794 40.2897
18.4261 27.9831 41.5424
28.6763 35.5453 40.654
15.6074 20.5638 25.5884
10.9939 18.0722 29.7428
17.1029 21.7724 26.8328
13.9376 20.1968 32.7766
17.3282 26.354 33.4469
20.1897 28.874 42.4147
25.8375 35.1111 51.2304
31.1768 39.2959 45.6474
20.6916 35.8136 57.6282
28.0566 38.0694 59.662
44.7667 48.4216 50.9393
19.5671 32.7361 47.406
16.178 25.3029 41.0849
24.1295 34.3572 51.5559
19.3451 22.6516 36.0485
23.0608 29.0166 38.4259
18.2264 23.2442 34.5215
20.8621 23.688 25.1032
11.7673 15.3813 21.191
20.1957 28.9887 35.6253
18.5707 29.7756 44.7489
15.2797 24.5748 38.4197
15.9443 24.0689 40.2921
20.1926 27.528 38.8523
18.8935 21.4009 24.8075
13.9002 19.3282 28.1965
22.8063 35.6717 56.7794
22.7733 29.3472 38.0709
15.5149 22.4421 36.3542
14.9164 16.6937 20.0303
16.2802 25.5098 34.991
13.1081 21.8853 41.3772
31.8344 38.0577 48.4389
18.895 27.4086 41.2111
23.5457 33.1769 43.1696
19.1291 33.2284 54.1303
23.1564 29.9255 45.7179
23.6027 32.8249 40.7664
20.0088 37.0424 58.962
18.0932 20.8238 27.8866
16.7818 24.5471 39.6065
14.7243 20.4126 33.69
17.5613 24.9628 35.8396
17.5823 31.9139 51.697
16.8854 26.5926 50.0301
21.7076 26.2427 33.33
22.2488 35.5129 55.792
17.1293 22.2724 35.1059
25.0831 39.5223 54.7614
14.3149 20.3125 32.5672
22.4288 40.2494 67.1393
17.5596 23.4573 42.3935
24.8137 32.2961 41.578
15.9753 24.6715 36.8772
20.3684 34.1327 48.3246
12.2903 21.617 39.504
11.4675 16.1069 31.4564
22.1435 34.672 42.6323
11.3172 28.5767 56.4332
14.9708 19.9165 34.3368
19.2318 33.8263 58.5275
23.8605 32.955 45.6934
18.0028 32.474 56.3415
16.8448 23.8567 40.64
18.3478 22.5568 32.0595
20.1212 35.7541 54.233
11.8599 18.9047 29.4851
10.6084 20.8553 48.546
19.2811 24.2636 31.2274
14.2042 26.5492 44.2384
14.4121 24.1185 40.1226
11.9861 22.0432 45.6995
23.3556 31.4619 43.654
20.6581 34.7949 51.5543
13.1688 17.6333 23.489
9.07029 16.9472 28.7352
17.1747 31.4647 51.7046
16.5037 32.1883 55.1373
15.7813 26.1378 46.9103
14.5598 24.9764 52.43
19.3535 23.3028 30.0083
11.8983 22.2959 41.6482
11.1248 17.8463 36.1887
19.5753 25.1957 36.2302
13.3407 20.4779 37.8089
17.1513 27.5165 42.7724
17.8098 29.4678 42.2075
15.3809 30.0701 49.8214
15.8015 29.484 53.4004
14.5203 23.2034 42.0339
20.5528 30.033 40.5463
20.1225 51.5046 97.5921
11.0425 10.9964 23.9627
10.4045 14.3252 30.5827
15.5176 23.2169 33.8511
12.3888 26.7212 47.726
11.2988 17.6259 32.8432
12.3258 20.8016 40.9631
19.1561 30.1081 45.8942
12.5481 18.6302 30.2307
15.2815 29.7034 48.8734
10.8286 22.8327 51.9702
17.9584 22.0157 31.2834
17.0264 38.0735 69.9291
15.7367 26.1 51.164
12.3591 20.4568 47.7539
15.9798 19.0876 29.2462
21.6938 42.8604 70.6223
15.1477 24.0408 44.4038
12.5306 18.5152 22.4188
9.85575 26.6205 64.278
18.8374 25.5048 39.079
10.841 22.5616 48.4408
14.7895 23.4455 36.6915
10.94 19.1876 41.924
15.0889 23.1202 40.6767
19.6171 33.9118 51.0169
13.6143 23.0375 38.8531
10.8834 23.7075 45.7186
12.099 20.3245 42.2731
15.1233 33.4148 59.6359
12.734 23.6351 50.7427
20.0797 34.8558 61.2616
18.0378 30.0688 54.1236
14.1209 21.2663 36.2819
17.9044 34.6464 65.3405
13.0828 25.7744 52.4098
19.1633 30.5292 52.1964
13.2534 19.0211 36.345
10.1122 19.5139 36.3486
13.3286 24.7971 41.0029
11.9517 23.2086 50.2423
11.5234 18.2016 29.8715
14.0903 26.7824 39.736
11.8221 29.3762 58.2767
11.4145 21.6695 35.211
5.24135 11.1058 27.9851
7.53761 15.9344 44.3067
14.2152 23.9851 47.2064
14.5276 25.7224 51.1037
12.8367 23.0743 41.201
9.98074 20.3053 51.016
18.3153 35.5886 58.9887
13.9703 30.522 61.2302
9.92046 15.8901 33.6021
11.3478 19.5862 34.6224
13.8191 29.149 52.6367
7.04866 14.3167 42.2251
13.0394 19.8899 30.2971
10.597 26.5015 61.777
13.696 23.4304 43.6748
9.34707 24.1324 64.9942
17.2334 18.6116 33.8953
17.6251 33.2258 61.3287
12.9869 16.3503 29.2605
16.1358 35.9559 69.2329
11.7568 26.3192 73.9444
25.2462 36.8465 54.9025
21.5145 44.2378 76.3451
11.6201 19.4051 37.1646
7.33537 15.4754 41.6968
15.604 27.1415 53.4716
18.0199 39.9301 79.9802
15.3431 22.8361 39.1361
11.5735 22.131 44.164
11.2592 18.4466 30.7534
8.72783 21.5043 45.0903
11.1888 16.3342 29.2481
8.92509 20.6438 42.8256
10.3847 21.9131 47.7611
8.02179 19.3106 51.106
14.3704 28.6395 53.0604
11.3041 25.173 51.1266
11.456 22.5175 56.2957
19.6133 38.2316 71.8134
13.4524 27.5426 66.6155
12.392 20.9867 32.1194
6.003 14.934 37.3066
10.7105 22.851 48.9936
12.2224 23.1228 41.2604
8.12204 19.2218 43.6302
15.9154 34.5435 59.9828
8.07401 21.2603 59.1145
15.0534 26.0655 49.9555
13.7815 34.3902 65.1164
7.5952 15.6501 39.7434
7.2334 12.1428 24.4709
7.69073 22.9608 63.9905
12.8384 20.6685 30.2588
5.70036 19.8125 56.3425
11.159 20.3818 47.3681
15.1059 25.3809 50.9539
14.0039 30.9928 62.8136
11.2144 22.9069 39.4787
9.66459 28.4154 79.2323
16.0073 26.1802 44.7612
7.68467 16.5175 36.386
9.77251 25.9117 65.0904
10.0614 18.6547 48.2595
12.1037 22.8037 41.2255
10.2151 23.2675 47.777
9.18398 21.5653 47.8799
10.6901 26.5093 62.6385
10.593 18.7992 36.9306
7.23815 17.3144 40.9327
10.4464 23.2146 38.3216
8.42932 30.2923 88.2369
16.5497 36.3763 80.2989
13.1905 29.444 71.1157
10.9168 19.4237 51.0742
13.2779 22.5295 45.8861
9.59916 21.318 52.15
11.6982 20.605 38.1014
8.67738 18.9056 42.1686
10.3101 21.9525 53.4458
14.208 31.5961 61.0231
7.73865 20.2967 56.7155
8.16789 13.3104 23.9604
8.76803 28.4564 77.7606
14.8708 25.6246 49.5503
10.0359 23.3944 53.7538
7.87262 16.3672 36.4116
9.16674 26.8827 62.1847
7.51073 13.407 43.5082
14.1006 35.055 85.7664
14.7738 21.9731 32.5507
5.29661 11.577 29.9075
9.26861 24.7102 68.7656
14.3698 26.3718 42.9216
8.20881 20.2725 38.4816
7.45886 24.7167 71.2747
13.5911 23.0379 40.4273
5.28138 12.0622 34.5553
5.48064 7.82459 23.3415
8.99339 22.3341 53.9445
8.25288 12.9746 24.1633
8.7101 25.7248 58.9807
8.57483 19.0811 50.0313
10.5876 19.9582 43.9548
10.7051 25.5186 41.9216
7.32966 30.7384 91.6342
13.4558 29.7905 67.9753
9.75753 26.7558 67.7698
7.14587 15.9453 60.069
13.486 26.5267 68.1533
10.9252 24.7361 59.2764
9.18555 15.5254 49.2715
15.3516 31.4824 59.1241
8.79497 20.9929 44.2954
10.8669 27.5253 53.0788
7.02163 16.9942 36.3069
4.26806 12.1205 37.9828
7.43533 15.025 37.24
8.50534 16.7544 38.3912
8.85411 19.4368 39.8283
5.33736 14.4194 40.2724
6.34876 17.1601 48.0654
10.6011 21.1684 48.1161
9.11371 22.3172 52.2626
9.6799 28.1629 83.698
12.0689 19.8902 43.9947
10.3002 23.0716 46.9941
10.0673 24.8889 54.6637
7.56134 19.1885 54.0473
9.13214 21.3049 55.3907
10.9087 21.9797 43.089
7.95338 22.2833 49.6751
4.94676 15.4867 57.0021
9.98861 22.7608 58.7766
10.6935 24.7138 56.0791
8.09482 19.7289 51.2777
10.7409 29.3661 62.9729
7.3922 21.3798 61.9897
10.1762 30.3734 88.8383
14.3238 30.9229 71.917
9.76995 18.2173 42.7169
10.0719 22.62 43.0182
7.92455 21.6825 47.2532
6.89872 19.0337 42.8527
4.75807 15.1658 53.1916
7.57689 11.7471 27.0808
6.70453 20.6963 54.3201
8.8243 29.1216 82.5033
12.3294 29.5108 59.1568
5.7397 14.9263 48.8483
8.16519 21.1803 64.2366
10.0182 21.849 55.2263
10.7195 30.3581 65.5367
7.41641 14.9893 33.0985
5.1653 19.0385 68.5131
7.51353 16.0327 56.3658
11.7822 32.733 86.4796
12.2863 21.8432 60.5071
14.8016 36.1067 74.2203
10.0494 27.5895 67.5834
9.73177 26.6513 56.6082
6.41723 17.7424 60.173
12.5659 33.6407 84.5853
13.1183 31.1005 70.8908
9.86804 27.6366 62.8547
9.09104 27.1583 85.8321
9.3795 18.6745 49.2142
8.57691 26.5818 77.2648
10.1754 19.3334 42.8233
7.81229 24.4532 64.5959
8.16634 26.1808 70.3744
9.73951 22.1188 54.2652
7.01603 18.5826 56.5526
7.35948 16.3986 39.5169
5.1494 18.2526 66.8245
9.77683 28.0503 81.5148
10.2574 19.8134 55.1565
8.99669 18.7458 46.3648
7.86882 19.2431 52.5207
9.7018 31.8201 76.7811
9.38373 22.5963 69.1349
9.11961 18.406 37.8394
6.08176 17.9065 37.8738
4.1316 14.7049 55.0201
7.13184 17.4224 42.4702
6.33666 14.1904 44.5529
7.54397 21.5425 46.1173
4.81654 13.9635 44.7717
9.53341 26.5395 61.5865
5.21994 13.0506 45.3899
8.49362 23.358 65.5805
7.4648 16.1227 36.8513
6.01261 20.4504 74.5259
8.38658 9.8674 33.6502
9.00957 26.1098 55.5843
7.35579 20.2438 51.3018
8.6428 25.2674 58.8383
6.01253 17.0723 55.7383
5.74047 10.7916 39.0988
9.4733 24.9848 61.922
6.0033 14.6049 49.6442
8.56182 22.6207 55.4797
8.49066 21.6121 54.5184
6.7446 18.7559 67.1749
9.07331 17.5023 47.4085
8.31062 21.7609 64.4911
9.12882 16.6973 38.1733
8.38126 26.0759 57.9423
5.7316 17.0949 61.2269
11.8601 31.5977 58.8578
4.83921 17.5715 63.3596
9.02518 23.2987 55.0723
7.81405 20.3933 46.6636
5.51278 16.4613 41.3313
4.74446 16.3732 51.4652
6.41164 14.3538 33.0638
4.22073 19.4597 71.1196
7.63463 12.1511 45.9451
8.65679 24.7885 65.6179
8.2003 22.2128 58.0354
5.97312 18.0878 55.7843
7.59125 16.6831 33.7257
4.28183 12.7425 43.2957
5.23267 15.0392 43.7096
5.38351 18.8397 56.4541
6.01102 21.0434 80.007
8.08167 14.2314 35.9434
7.6637 22.2088 50.7189
5.82252 17.1274 46.4772
5.09282 18.874 66.3612
7.52521 17.9951 54.2665
7.7642 13.6883 31.6427
4.80608 12.5368 36.7533
4.23728 12.5909 48.6033
11.3331 38.4408 80.1719
6.48443 17.899 59.5693
5.86207 14.7895 48.5295
7.44292 20.9759 47.7829
3.29413 9.06651 29.6228
4.59154 16.7266 58.0316
6.71143 20.6154 60.195
5.94461 10.1658 42.3301
6.28547 17.2767 40.7828
5.54823 15.2867 38.9833
4.88635 14.6214 44.4908
5.4879 11.9927 39.6918
5.6108 15.8802 48.506
5.74316 16.1083 53.7845
7.01173 16.2434 39.8256
6.13414 16.6652 35.7834
5.07767 19.0562 43.614
4.49418 13.2198 54.2555
6.98759 20.506 46.7731
4.27356 13.0011 44.7084
4.75098 15.9071 52.795
6.89487 21.5769 62.2389
5.00445 16.5355 65.0532
9.03737 24.0375 50.9772
3.99466 14.4573 51.4099
5.85008 13.7891 47.4366
4.36525 13.7079 61.9503
9.60899 29.6622 66.7494
5.57522 13.6842 36.1814
4.25378 15.9476 59.1915
4.86401 9.66832 39.8659
6.03044 19.7162 53.9663
6.9954 15.4717 36.5345
3.48107 10.9427 31.0505
4.98038 18.833 58.4356
6.68329 21.5307 65.7624
7.5196 21.0758 68.652
7.85753 24.2873 54.8957
4.7109 13.2944 37.6067
4.15961 14.1723 50.2636
4.63758 13.6391 47.399
6.12095 17.2778 52.2609
5.24701 15.4717 55.311
5.23118 11.104 70.7913
11.3423 25.288 37.2138
3.66902 11.5829 46.0624
6.73009 19.156 51.963
5.63055 14.3299 37.5317
5.00032 17.596 43.9769
4.7324 22.5905 101.529
11.5845 27.0683 51.9955
4.903 20.2192 71.6859
6.39324 18.1777 47.96
3.49497 9.34159 65.1631
9.34984 22.8122 56.6264
6.60808 14.3824 38.4387
6.59577 27.9703 79.8746
7.96809 24.5527 59.2089
5.01774 17.9543 51.6507
4.71979 16.0237 50.2552
5.96379 22.5995 60.3802
3.89366 7.73809 29.6431
5.04639 16.3139 52.2352
4.97994 11.5787 37.6219
5.53602 20.8964 66.5547
6.93675 20.6097 53.0849
5.30669 18.2662 56.1662
5.19285 23.8402 84.7006
7.63144 14.4465 47.1789
6.80908 19.9298 50.6047
5.67425 23.3087 74.8855
6.98376 15.3067 50.7158
6.92535 21.8404 39.9444
4.95271 23.5757 67.3958
4.93553 18.4058 50.5233
4.5289 19.8052 88.2163
8.5165 24.8916 63.3631
3.52192 12.1093 54.7093
3.58513 13.3359 90.1311
10.0511 19.4539 42.1178
5.73346 17.589 56.3977
5.69548 14.5042 30.7415
3.81562 15.961 49.1544
4.66006 17.4647 66.2636
5.16945 17.5424 78.8805
8.27617 22.0832 63.0033
6.11492 22.0216 71.0404
5.9719 12.634 60.1539
7.32765 25.6132 67.3102
5.83512 16.0452 61.1675
6.86292 17.1754 52.4323
4.68411 18.1319 53.971
4.23559 8.41639 35.748
5.13549 18.3787 50.2077
6.75882 23.4381 75.9493
6.20255 16.455 43.7669
3.90381 11.134 42.6628
4.79067 15.5287 54.2783
5.19813 15.807 47.0439
5.13649 20.8731 71.3578
5.75201 13.5713 55.2673
5.05941 8.4549 31.3429
5.1019 13.12 38.2301
4.97602 14.131 32.1446
3.34631 15.005 54.4279
4.48726 17.115 47.2116
4.07679 17.5429 83.1231
8.92791 21.8456 77.6976
9.99731 27.7156 67.5388
5.5297 17.4367 50.9004
4.32731 11.7728 52.7744
5.32519 13.7053 42.6537
3.81573 13.5547 59.5754
7.3677 21.343 57.5131
5.94389 22.5052 47.9423
2.8953 16.323 71.8187
5.51752 11.8289 52.6874
5.82283 14.0839 50.1673
6.54453 17.9772 48.7989
3.86667 8.42778 29.4614
4.13743 15.3215 56.7772
4.42007 14.7457 38.0211
2.72403 11.8732 55.4208
4.92997 11.9149 41.7994
4.60988 17.729 60.6319
5.13655 15.0268 53.7671
4.38752 24.9703 98.641
7.27995 18.3 64.8273
6.10946 8.92691 46.1926
6.86774 25.2859 42.2427
2.52517 13.1063 70.5982
6.83577 17.6879 36.5896
4.18478 18.4355 53.064
3.28736 9.96865 33.9308
3.30396 8.98537 36.879
4.69552 18.135 50.0333
3.41536 8.63238 37.6712
3.13248 11.5115 48.0199
4.3034 12.0596 46.1443
4.58555 11.4257 29.4912
3.56571 13.7374 55.8405
6.52049 22.2632 65.9214
4.59169 9.45547 32.4223
3.77423 12.9195 47.8756
4.58509 19.501 78.2303
6.64977 16.2068 41.2525
3.66549 10.0776 42.3537
4.49403 13.2498 29.8462
2.62835 9.36724 43.9017
5.00825 16.0714 39.3011
2.90375 11.3982 53.4028
5.98608 15.8217 36.3253
3.48766 20.6702 92.3622
7.58181 17.2975 59.7805
5.38997 19.6974 57.2445
5.79383 20.6654 57.4615
4.71966 17.75 72.2392
5.66463 16.9657 57.9895
3.9491 9.87925 38.9761
3.32976 11.5267 27.4197
2.50329 15.8108 69.2737
5.5988 13.5779 55.0593
6.31044 18.6158 51.6956
2.87498 10.3281 39.4704
2.90899 8.98464 43.4564
4.71027 15.5875 54.5413
4.89393 12.9866 32.4968
3.40175 14.3945 52.3659
4.50135 14.5336 38.0177
3.07511 13.8556 68.708
5.85476 20.1644 40.3389
2.91963 17.2367 83.9173
6.36182 18.7189 42.1077
2.46025 9.43735 57.8776
4.56971 11.7492 36.1329
4.4233 16.7306 50.2327
4.93561 13.7277 36.8413
3.44471 18.6707 53.5704
3.82315 15.9137 64.4516
5.41233 16.1864 59.8666
4.6036 10.3615 49.5023
4.95551 18.9538 61.5129
3.9572 11.2418 64.6205
5.60861 13.9629 27.7508
2.95088 14.799 52.3362
4.76324 17.7086 66.4196
5.16201 13.9317 34.3576
3.2814 6.69906 29.091
3.05106 13.1881 52.4014
5.10969 12.0727 39.1231
3.3668 14.457 49.5869
3.87852 16.8244 51.2109
4.80829 19.6879 80.9639
6.28642 19.3181 60.7398
3.63285 9.51305 32.1731
2.99622 14.0508 53.0153
5.00131 16.6241 55.8712
4.61874 20.0516 49.2938
2.99676 9.31436 50.2382
3.35675 15.6212 63.2855
5.99536 14.9792 52.7595
3.6003 12.6815 60.1175
3.84721 13.0518 54.2772
4.85805 15.912 46.9898
4.55944 16.2827 44.8802
3.30661 11.9492 51.4347
4.7225 20.4841 81.4131
7.35678 18.9987 71.7292
6.59087 14.1771 30.3556
3.12169 15.0013 49.8004
3.78378 11.1097 41.4682
3.91464 18.4894 69.2701
5.4141 19.0868 54.4142
3.61927 10.5274 58.8809
5.45321 12.3844 42.9908
4.47336 18.3158 70.1519
6.06678 18.5204 57.874
4.09224 10.9155 41.2086
4.30735 12.0329 31.3759
3.01504 14.5363 48.7882
3.71445 16.7491 69.0617
6.3274 19.124 46.8431
3.99254 12.4451 40.0486
3.23226 12.5233 55.1367
3.29074 13.8072 50.7285
3.96677 16.6744 67.8955
4.50514 16.4568 80.3554
5.70331 9.80562 83.0749
8.98505 26.3933 44.6082
3.53646 9.41917 40.4375
3.51647 19.5808 54.2977
4.46669 14.9269 36.8244
2.2672 9.86266 35.106
1.7471 5.27081 42.1577
2.7929 14.4343 56.5742
4.48871 13.8699 36.741
2.65375 9.77891 43.321
3.23139 17.67 92.5071
7.29152 15.3351 44.2312
3.87339 14.0517 39.1953
3.05153 11.4559 59.5941
4.68238 18.8893 56.1477
3.40352 10.447 30.5622
2.73215 14.8175 70.0874
5.41688 9.79953 35.361
3.63878 17.8375 53.6271
4.67749 20.3988 73.2883
5.54668 15.8055 52.9265
3.99799 11.4236 36.037
3.19146 12.9477 53.5468
3.72466 16.5105 79.9685
5.62911 14.5761 32.5778
3.07695 13.7382 56.4835
4.51317 8.91637 27.6864
2.30724 10.1462 43.8733
3.92507 26.6006 85.8027
5.22922 14.1956 54.8169
4.08507 15.976 82.3058
6.48235 16.5428 52.3141
3.96865 15.2437 53.3319
3.63948 10.2255 28.8554
2.99089 9.24432 21.3407
1.37695 8.87849 36.6966
2.29485 7.21874 50.4283
4.90424 19.2229 46.0472
2.41791 7.09981 57.0928
5.32678 19.0081 42.8178
2.78073 17.034 62.2166
4.11522 16.4236 71.4781
4.63051 11.6869 36.9096
2.34445 6.64346 27.8709
2.52381 15.3234 65.2059
5.10286 16.1145 65.3453
5.51686 15.5284 56.8148
4.04607 8.16396 29.5122
2.53192 9.61667 31.9067
1.90709 7.71573 36.2238
3.21223 14.7049 53.9483
3.7946 11.4881 49.7781
4.92917 16.6018 45.7075
3.22574 10.0843 49.7736
4.80686 14.8254 40.4491
2.83461 8.74625 32.9519
2.70252 10.4762 47.544
3.62573 11.2359 50.0464
4.60991 11.2782 34.6141
2.88481 18.2007 64.204
4.3535 14.2554 65.1127
5.56548 16.85 47.3129
2.89746 9.1167 49.3038
3.31016 11.8355 43.1727
3.59247 11.094 44.6785
3.63986 15.0326 52.2803
4.22773 13.2754 40.8167
2.88594 10.672 47.3155
3.26266 16.2169 60.3091
4.17566 12.0742 33.8165
3.01417 9.00025 20.205
1.78893 12.9091 51.6958
3.8134 13.2456 54.0771
4.07588 18.2703 81.633
5.61489 13.7335 45.6548
2.9514 15.5475 55.0458
4.31867 11.3063 49.7812
2.99263 11.5227 61.3077
4.78248 17.7393 76.447
6.34765 16.998 42.4713
2.23459 13.5492 45.8385
3.43866 6.54369 32.4137
2.56784 13.0967 37.2494
2.6517 9.45191 52.5858
3.56535 10.4541 50.2602
4.13842 11.2962 51.088
3.5082 14.4288 51.6626
3.45026 16.6551 50.2132
3.62288 11.9285 31.7712
2.22379 6.35344 35.2193
2.9562 10.344 39.2726
3.14327 8.4939 42.0062
2.98476 16.3954 51.4513
3.23779 13.1001 49.7519
3.61011 14.5883 53.2173
4.41813 14.735 50.4821
3.78159 12.458 42.5387
2.78564 15.4058 53.7572
3.02613 10.258 52.9109
4.54037 12.2803 50.3554
3.7841 15.7449 61.8416
4.4825 17.9295 66.8211
3.88518 11.2238 44.281
3.34915 13.8474 64.7337
4.70779 17.7165 41.8386
2.90607 14.3048 49.1125
2.94696 7.70712 58.7413
4.49165 14.0649 41.7772
2.90067 9.10263 50.6779
4.09892 11.1884 33.063
2.40383 12.9288 67.9684
4.66583 9.86347 48.5809
3.99025 16.6363 68.7382
5.39562 18.7743 55.2066
4.36916 14.4075 59.1814
4.35622 12.9769 37.8037
2.95347 12.9191 55.1899
4.49166 15.9028 48.2471
3.19353 12.1355 52.3018
3.40642 9.67494 40.0876
3.12121 10.4147 35.7567
3.27739 8.92166 31.6966
2.27111 16.2419 92.04
7.63775 16.8865 48.544
2.95398 11.6794 38.2876
2.34045 9.16391 39.8594
3.35278 9.37886 29.4106
1.86613 9.67662 77.0756
5.91045 16.2694 49.8771
4.17406 12.0422 53.1483
4.07008 18.4188 55.791
3.40458 11.6972 62.1653
4.2598 15.1818 39.1604
2.34707 12.4503 66.575
4.57163 13.7967 40.021
3.14448 14.2865 54.697
4.07749 16.0757 57.3412
3.93846 8.32286 42.6745
3.55703 21.1358 68.2073
4.4032 19.0085 57.205
3.84277 10.6788 48.5575
2.96124 9.02288 43.637
3.75082 13.321 35.8143
2.69476 8.789 38.719
2.53234 8.21811 39.0727
2.71063 13.6817 65.4189
4.72414 15.2437 44.81
3.35692 11.8095 39.5143
2.30489 8.67218 44.2871
3.47637 9.49805 35.6444
2.15219 11.29 38.2397
2.77178 9.4496 47.2599
3.76921 12.271 29.8184
1.94286 8.65212 39.2193
2.51664 6.3568 41.2649
4.05446 10.9585 45.4963
3.50324 14.1687 50.5882
2.92192 14.4274 65.288
4.60991 11.6406 32.3668
2.13338 9.22178 45.2862
3.46919 14.7756 63.6148
4.51266 8.31987 20.8905
2.15887 8.65049 44.3296
3.13594 10.0761 45.9171
3.99516 13.7758 52.304
3.66519 12.4656 35.6033
2.00301 6.68571 36.9247
3.32355 14.1097 31.9739
2.09406 10.957 66.8821
4.83489 12.1122 36.5577
2.74863 7.62624 56.2389
3.9323 13.1064 31.3367
1.68816 7.5122 25.4898
2.52013 15.1533 77.8618
4.88479 13.7005 46.6982
2.97661 10.395 38.7934
3.14564 15.3711 56.2737
4.07765 8.00413 36.2956
2.96704 14.014 53.5401
4.26525 11.9934 39.0672
2.4197 8.92339 34.0186
2.07984 6.11239 24.8886
2.21628 13.3485 35.027
2.13247 6.56897 45.3768
3.30181 13.7163 38.8379
2.7723 7.48729 45.7487
3.21385 10.1631 51.3004
3.51036 9.22284 43.4452
2.97864 12.9843 36.0813
2.36537 9.54403 48.6338
3.04455 8.16499 56.32
4.51316 13.5896 34.7783
2.28668 12.139 50.5053
3.30108 7.34348 34.5656
2.60988 12.6571 45.48
3.31971 12.0682 38.4545
2.49056 9.00879 41.5145
2.82229 11.4679 48.1303
3.8855 9.18215 16.1918
1.17511 10.4937 46.5183
3.61738 7.26877 49.1717
3.30967 13.1478 38.0205
3.13655 10.8662 44.0953
3.67553 15.1184 69.4804
4.90079 16.5308 59.2647
3.74331 14.3503 43.6282
3.23715 13.394 47.6263
3.24715 11.4051 52.6657
3.66196 12.2522 42.309
3.36492 11.5195 42.2891
2.98023 16.68 70.2784
4.66781 10.8536 38.3016
2.51347 10.3697 36.4549
2.66612 8.3776 30.5819
2.01177 11.6477 46.6564
2.938 12.6403 58.5097
4.10669 10.7828 35.1916
2.66917 7.77767 38.3003
2.96377 8.73273 44.1032
3.70414 16.9667 55.6039
3.61724 12.5295 30.6738
1.94403 8.77463 35.3413
2.50821 6.54662 56.3236
4.18262 18.4888 55.7861
3.3865 9.63475 42.8524
3.01761 13.6439 50.9175
3.44516 14.1668 74.0765
5.1091 12.9224 28.2172
2.17312 14.0622 54.0569
3.41059 7.24289 24.8034
1.46747 13.2207 43.2766
2.20609 5.25383 24.8338
1.91416 10.2487 37.0255
2.7806 11.2946 42.0507
2.99496 11.0956 58.6442
3.86402 17.6773 64.8181
4.22218 14.815 44.5984
3.02454 8.82275 61.3241
3.76562 17.7844 56.9726
3.02629 9.94729 43.9769
2.92305 15.3667 52.0911
4.06475 7.30937 43.1632
2.45676 16.2932 43.1821
2.91802 12.1362 54.15
3.81054 6.65049 57.1584
3.40356 11.4204 36.6036
1.93324 8.63666 18.4476
1.41622 7.24165 45.8986
3.28298 14.9353 39.6748
2.44422 13.5228 79.906
5.92305 12.9243 39.2956
2.93632 7.71691 26.7483
1.71587 8.58265 40.3233
2.95653 10.7434 53.8089
3.22241 13.5669 41.8471
2.93045 12.4043 48.9555
2.82182 10.0605 53.7944
3.50996 10.8368 28.3364
2.19127 9.97283 40.0588
2.61649 9.09682 32.0622
2.15538 7.77516 46.6505
3.14194 13.6169 56.1968
4.1059 15.8628 32.8154
2.27027 7.02934 42.2736
2.85963 15.0356 60.3882
3.91031 14.4922 53.429
3.05359 11.6131 29.6462
1.97073 8.42454 51.9545
3.42635 10.6673 37.0917
2.3343 10.0679 37.6162
3.0684 12.4041 77.1127
4.70007 18.5622 23.6856
1.65179 7.79356 72.1934
5.5214 18.8817 71.7056
4.34095 9.71541 23.6088
1.84012 7.36823 27.0071
2.28615 13.1535 53.9388
4.19488 9.56537 34.8764
1.9312 0 0