# pn-170911/RbIIR-45-PTBB-1280-1959.psd
# Power spectrum* (dif=0,1,2) (really just |FT|^2)
# NOTE: only the first half! (symmetric)
# weeks: 1280-1959
# 6 clock-days, 2 excluded
# PSD: 1441
470.583 0.275272 0.057943
25994.4 0.861814 0.0377326
42867.9 0.96257 0.0381606
21357.1 0.736423 0.0370417
29993 1.77085 0.0365837
6782.52 0.623055 0.0392689
6565.61 0.735761 0.0391214
1530.92 1.02081 0.0373388
2853.92 0.998464 0.0369322
1924.99 0.358214 0.0363156
7144.84 3.08597 0.0460362
823.868 0.846804 0.038875
4887.42 3.61121 0.0384401
900.217 1.15628 0.0415829
2335.88 2.66833 0.0485479
1713.41 1.63856 0.0312436
5954.84 6.16076 0.056108
601.898 1.4114 0.0428141
5144.49 9.37178 0.0353115
446.185 1.42609 0.0389298
3190.55 4.39205 0.0549983
746.056 2.01514 0.0388176
5802.1 12.8892 0.0388051
1502.68 4.54724 0.0328224
1745.55 5.05168 0.0615626
667.87 2.24425 0.0404874
1998.37 7.01298 0.0561831
1378.63 3.85884 0.0631502
1448.08 5.15581 0.0519227
685.091 3.23838 0.0397168
1216.12 6.55165 0.0884598
1457.93 6.05878 0.0622949
3054.32 17.1838 0.0882491
832.078 4.76417 0.0878133
4012.49 21.6023 0.181982
863.452 4.47165 0.0454559
1781.74 10.8999 0.0970466
632.784 4.89186 0.100992
1828.85 10.1716 0.107685
577.096 3.18548 0.0971384
2301.33 19.6527 0.155307
829.526 6.90788 0.0866038
2923.54 23.8216 0.167011
1549.84 12.1423 0.131387
819.883 7.13755 0.0883095
721.874 7.72238 0.124845
2268.94 22.4653 0.240461
417.668 4.14296 0.0756503
1031.49 12.9212 0.167719
1625.95 18.6487 0.210165
1144.2 12.7356 0.132047
554.08 6.95318 0.132577
812.202 10.1292 0.149103
823.818 11.8573 0.169049
1689.04 23.9083 0.397785
226.214 3.66109 0.114353
1444.02 22.7503 0.429867
461.33 6.8829 0.104493
1188.31 17.5772 0.237411
583.514 10.1132 0.21657
1215.62 18.8907 0.390454
375.816 7.25088 0.202641
1159.53 19.7443 0.318839
741.104 14.0705 0.285621
1481.47 28.963 0.546571
814.842 17.1807 0.382378
2145.63 44.7818 0.730856
632.732 14.6115 0.395061
2039.71 41.5062 0.730962
531.498 13.5228 0.221563
735.643 17.0025 0.323593
774.282 21.1598 0.486174
1521.92 42.2417 0.844724
470.582 11.6021 0.267373
707.964 16.4771 0.482818
198.386 6.19272 0.234849
514.981 14.1059 0.446704
657.348 15.9452 0.487525
643.567 18.4195 0.524454
866.272 28.0815 0.848425
1314.83 40.0771 1.52214
614.494 19.911 0.480123
391.031 12.7162 0.452188
809.143 24.1974 0.71313
406.894 13.6656 0.412406
220.617 6.44146 0.291329
543.181 17.9641 0.747347
652.975 21.0098 0.81311
383.526 17.0119 0.809829
229.611 7.34127 0.297576
409.13 14.3317 0.467332
464.35 16.8531 0.75595
513.523 18.5896 0.833759
392.948 13.7844 0.509399
404.169 17.0221 0.689193
390.004 17.0917 0.679477
641.883 25.4032 1.35911
267.477 12.7221 0.512887
808.448 34.163 1.61753
259.017 11.9225 0.525494
532.085 24.049 1.35013
502.586 24.9251 1.21249
662.338 33.5282 1.65
226.899 13.3895 0.672508
474.324 27.0668 1.44395
292.437 12.6607 0.597471
304.832 16.9014 0.74274
253.546 17.5261 0.848364
701.671 40.4019 2.14546
611.494 35.8339 1.79824
467.836 24.8931 1.48567
394.5 23.0678 1.4124
288.983 16.8996 0.985682
212.781 14.1968 0.800005
348.229 22.9638 1.60052
211.392 12.8103 0.608015
477.646 25.8559 1.66049
307.091 21.231 1.35731
370.019 25.8627 1.90107
289.095 17.9863 1.11204
446.888 31.1862 2.04943
234.178 17.5475 1.19121
396.789 23.335 1.81318
162.291 12.2288 0.994113
322.29 23.1661 1.69943
320.526 23.8326 1.59448
110.96 7.66328 0.558205
347.779 27.4684 2.42551
381.447 28.7748 2.22001
213.283 18.9284 1.52821
57.7981 3.99093 0.303579
400.039 31.5905 3.09893
130.551 10.6713 0.845014
139.622 11.2968 1.14804
365.929 30.3849 2.26743
215.941 19.6318 1.74879
319.915 24.8395 2.32645
329.191 27.5147 2.62267
358.744 32.1629 2.67562
135.77 13.0493 1.20037
381.399 40.393 3.82161
184.643 15.9133 1.38395
119.063 11.0621 1.15875
288.4 28.6971 3.02399
257.788 24.0763 2.60229
104.229 10.549 1.12238
237.05 25.0831 2.62498
172.269 18.704 2.27249
132.985 14.4688 1.6498
68.973 7.53393 0.992538
130.323 13.208 1.23832
212.727 26.2171 2.65358
287.908 32.7987 3.97082
185.089 16.4624 1.85134
273.682 28.7428 3.40028
229.036 28.3731 3.01214
251.986 30.5552 3.61506
129.877 13.8903 1.67587
241.827 29.3781 4.04742
185.356 19.8667 2.36516
317.303 39.4436 5.17748
315.146 42.59 5.41862
174.617 22.2402 3.46763
222.114 27.7423 3.16165
220.804 32.2465 4.45433
215.656 29.7059 4.26917
245.169 28.1114 3.39682
183.006 21.626 2.98768
86.7778 11.7946 1.9704
203.26 30.1414 4.85243
295.565 40.4975 5.88527
150.684 18.6171 2.12294
234.675 30.1523 4.1829
222.96 29.5349 3.7806
136.601 18.3395 2.81708
235.926 38.4737 6.43933
325.984 45.6338 6.14786
288.697 43.922 6.09379
164.979 28.1821 3.65599
140.374 26.4778 4.07662
168.264 29.0323 4.56003
230.851 40.6096 7.29404
326.426 47.0502 7.10064
137.163 21.3163 2.87261
153.7 22.1482 2.70648
199.583 32.4078 5.0217
126.564 18.55 2.86993
140.294 23.997 4.22527
386.957 62.3728 10.1821
278.787 43.5941 6.70559
64.4299 12.1207 1.94481
93.6574 18.6388 3.73105
188.914 29.2824 5.54258
253.501 41.419 7.30922
92.2893 17.1619 2.85107
182.252 27.6567 4.79451
267.16 43.4301 7.8459
277.701 53.988 10.5531
178.435 29.2676 5.38444
327.934 59.307 11.0581
109.04 17.1662 3.54824
129.852 27.3007 5.58704
422.719 87.9344 18.3144
147.515 23.654 4.45189
127.467 26.4437 6.17072
214.293 31.5886 4.34444
174.312 30.7944 5.70941
172.573 32.4409 6.73225
195.798 39.983 9.22506
229.909 40.3287 7.61469
152.034 35.0341 7.79629
167.037 30.9752 5.56555
141.261 35.8597 7.50051
218.758 45.9177 9.61519
111.784 21.6303 4.24875
314.21 71.3367 16.6878
87.712 15.5512 2.7276
98.4303 21.3539 3.63391
161.185 38.314 8.75058
156.079 37.9054 8.15127
218.273 47.6686 9.64909
81.9385 26.7955 6.66626
138.532 33.6229 8.70341
105.263 19.5676 3.64466
94.4168 21.7175 5.52696
120.448 23.992 5.08266
71.7397 16.3891 4.37091
245.929 63.5294 13.7251
106.654 34.726 10.3249
135.738 30.7737 6.46888
115.129 24.3016 6.12835
148.956 41.4182 10.3579
203.838 38.8117 8.06017
145.131 37.4825 9.39694
188.256 47.2982 13.0266
123.853 35.0296 9.30614
125.673 28.9432 6.74459
129.083 34.3925 8.35892
169.157 38.0193 9.78186
78.105 20.5467 5.94499
75.399 18.1377 4.7121
24.2918 7.73533 3.06085
121.711 35.4752 9.39232
116.074 31.3296 7.45173
146.223 42.5227 11.8573
74.4306 27.3011 8.08734
57.7854 18.8157 6.01789
127.061 29.8798 7.54706
150.107 48.0207 13.7602
107.009 25.2653 7.32916
85.3367 23.6026 6.85753
63.8408 16.4784 4.98116
88.3296 21.8053 6.05935
125.378 35.1637 9.6522
112.681 31.9558 9.34494
86.982 29.5773 10.2121
26.2926 11.254 5.16691
114.053 28.6309 8.19996
82.0245 24.7605 7.7609
94.5132 28.4719 7.68472
126.527 43.0404 14.8047
142.148 37.2087 11.8063
114.251 36.4713 11.8488
100.648 28.7955 9.20717
46.9161 14.098 4.97361
42.3249 15.4283 6.05208
88.5906 25.9688 8.05987
60.799 21.9069 7.33883
112.038 34.8059 11.7504
24.9733 12.114 6.51645
106.017 40.6107 14.4218
144.179 42.0632 11.0745
50.3523 14.6675 4.52169
109.28 35.1849 10.9606
126.911 43.3325 15.4911
49.3458 19.4266 5.45265
143.691 59.2045 20.1967
55.8605 25.1432 10.5708
26.6327 8.59489 3.50752
63.7334 21.3206 8.11719
133.588 43.0487 13.8643
120.467 41.5462 15.8916
69.4592 25.9507 9.76822
61.6397 25.0004 9.19493
37.652 17.771 8.09283
69.8867 21.3978 8.10992
64.5736 26.874 10.9046
79.4693 28.9072 12.0006
138.819 51.1726 16.5996
76.4709 32.8679 11.7758
86.8644 36.9496 15.4462
58.4057 18.7179 7.63712
55.8357 17.6187 5.65346
82.3708 32.2936 12.9308
150.44 61.2591 23.9389
40.9152 18.0888 7.44139
61.741 27.3935 11.8233
65.9913 24.8851 10.83
81.7138 31.5337 12.1611
110.78 48.4357 19.6745
76.1008 26.8286 10.091
66.313 24.785 9.42862
91.6412 37.1253 16.5858
50.3653 20.38 10.2321
100.319 38.6021 15.5638
21.4628 6.58072 2.62773
123.227 50.6483 21.2329
88.1492 43.9508 19.5722
66.0436 29.3437 14.0557
55.529 23.9907 10.3883
64.3252 28.0819 12.8284
79.9455 30.3646 10.1367
117.338 58.0264 26.7809
70.8915 33.5461 14.7473
68.7786 30.9542 13.5571
68.2643 33.6953 16.2476
76.8798 31.7838 13.9872
74.515 34.9381 15.9898
58.8482 24.3498 9.75773
41.9004 18.5271 8.43276
48.2475 23.8604 10.1636
59.0922 28.3435 12.6714
43.7705 24.384 12.842
32.5185 15.3907 7.08337
108.416 59.8282 29.7942
53.295 26.5774 13.469
92.4062 35.7106 16.0764
71.34 39.9478 20.4852
103.065 54.1239 27.3831
165.508 73.4455 34.3949
86.4499 37.2693 20.4582
77.7298 33.479 15.1808
61.1054 28.9979 13.051
39.354 23.705 15.328
12.6527 9.7993 7.47841
107.55 50.3514 20.7754
41.4697 23.1008 11.2317
73.6769 47.0224 28.2331
107.448 48.0968 21.0773
93.0484 49.7133 25.5257
48.5317 25.4494 13.829
55.9366 34.0973 20.3771
28.2779 11.4798 7.3949
115.658 58.3338 31.7699
68.2066 29.769 13.8365
62.5862 36.5602 20.5614
32.2002 14.2272 8.52361
32.601 17.7772 9.21186
56.8314 24.8397 10.2575
57.7885 32.5576 18.1777
34.5765 15.414 7.53094
57.6073 39.3718 24.7705
120.666 60.7739 32.7205
96.4143 52.6508 32.2515
121.235 66.2213 34.9849
76.0817 43.7182 25.9848
106.02 60.1627 34.1162
63.3495 34.8317 20.2239
78.743 44.6874 24.2069
70.0423 48.5588 32.3502
37.8099 19.6258 12.3423
46.8863 33.2407 23.6708
75.7291 38.7232 18.111
30.016 26.6708 22.7481
117.016 64.3543 36.2197
61.4586 35.9128 18.7565
48.4134 28.6545 16.0044
44.9398 25.5137 14.7216
34.7067 20.9639 14.4128
67.1146 46.9749 29.3867
53.7045 38.7533 29.0164
76.5041 49.1449 28.4755
78.4095 56.3276 35.0547
41.9255 19.5189 11.1969
25.8493 12.8813 8.40127
47.7554 31.6145 19.2742
20.2227 11.6133 9.10988
24.1011 11.1125 6.53864
19.9797 15.5039 13.4733
78.3081 42.3618 21.3336
39.8032 26.4691 14.7283
68.5353 44.8015 27.3503
35.2257 19.9378 13.415
57.1782 33.2489 19.1917
84.9714 63.2722 39.8385
52.9167 39.8192 32.1521
46.8704 25.7567 13.9972
48.9874 38.3448 24.2751
24.4368 14.2933 9.64168
38.9173 25.0785 15.9066
25.5688 19.2719 14.4233
45.0991 42.7683 37.4704
79.1686 56.6642 40.9889
49.7124 24.5703 12.6666
30.0332 22.6138 17.5201
54.5598 36.3029 22.1347
52.9954 38.7703 27.5182
57.7019 38.0684 20.7098
29.902 25.2454 19.4263
59.502 49.0442 39.007
48.1199 22.8768 12.4715
59.6708 40.2528 27.8244
52.7854 41.3213 30.2578
47.2262 26.0473 14.2781
23.8429 21.6272 16.9938
33.2405 23.7371 15.4015
42.5147 48.6517 47.9867
68.2725 31.5487 16.2371
58.2218 43.3481 32.4992
19.9953 13.2817 10.7362
34.966 29.0144 24.2839
33.2224 16.7898 11.5972
86.079 71.1569 58.6778
56.088 36.5302 23.0632
50.616 41.6854 31.7262
78.5217 54.6643 38.6745
33.0034 28.6757 24.5344
52.1874 49.1875 42.0123
69.7001 44.4674 31.6045
35.9581 30.8752 29.2046
67.3866 44.081 30.3906
24.1586 19.567 16.6055
44.6691 42.3149 37.8838
29.3002 16.241 13.0704
61.6407 52.4194 38.3807
43.7328 44.1173 48.8876
64.9521 35.4013 20.8623
52.3593 33.7319 19.046
33.4321 21.7507 12.3835
65.684 65.3208 62.9288
53.3158 37.978 26.8907
30.405 25.9197 19.0513
30.6296 28.7688 25.4347
45.419 37.1524 32.0587
34.7173 28.6208 21.3011
20.8622 17.9843 12.984
34.5548 33.5145 34.4924
61.1459 48.4662 38.111
36.5379 33.0783 28.5218
26.1292 21.3012 19.308
35.6824 32.013 32.4696
44.2932 34.6289 26.6843
20.4096 24.4885 26.925
59.8766 40.7486 27.6406
68.334 65.8521 61.1513
59.6698 41.3711 27.6328
26.8466 29.1164 28.4442
27.6893 33.9221 42.673
84.7087 61.0044 41.7575
78.8581 72.1629 61.1691
26.0944 21.6606 19.9842
40.6963 46.17 50.5667
63.3158 50.0155 44.3114
40.3388 30.0316 20.5209
52.2688 50.3011 42.4669
17.4629 33.6423 51.8383
49.5527 37.107 28.8214
30.67 18.5205 12.522
39.4523 34.3965 27.4187
12.0203 12.7618 15.1873
33.8929 34.2514 30.2022
20.6457 27.7178 33.3568
57.5977 49.4211 42.3395
50.1956 46.2728 35.3532
10.9333 14.244 22.3669
74.8405 66.5968 53.4289
18.0465 21.696 26.2361
32.4792 30.2292 33.2027
15.7401 11.1955 8.60032
38.3764 38.2641 37.2527
39.3177 34.9159 28.0457
39.5976 45.7678 46.8825
43.5861 40.0662 41.1312
40.3551 41.4184 46.9464
38.7723 41.6571 42.3611
45.8339 48.4939 43.4891
27.0539 21.4641 23.305
32.2562 32.2571 29.6589
35.1139 27.8258 26.0224
19.5639 16.5758 20.834
67.6681 64.35 49.4882
19.2173 36.1149 49.9097
46.1138 35.4587 28.5335
25.7879 24.8186 25.1993
28.1838 27.6005 33.0536
34.2269 30.6856 21.2253
48.5169 66.2017 69.7588
39.9383 34.8367 30.3793
23.2094 33.3131 41.4025
38.8583 41.202 41.6356
18.8441 22.8206 36.6907
36.9669 32.0547 27.1693
21.458 22.2644 29.1464
48.4443 38.5499 27.4252
32.9336 36.9204 40.4274
39.2584 40.4082 48.3254
24.6941 22.1882 25.2456
33.2172 24.7988 17.3745
22.6417 26.0222 25.1212
20.3253 22.3532 28.5719
42.6113 41.8731 36.4211
40.9847 52.7611 63.5356
44.6422 43.2956 40.161
40.2033 43.6739 44.583
13.9758 26.6458 48.5295
26.1423 23.0187 23.8304
27.8045 23.3527 21.3329
22.9078 21.525 22.5651
54.0805 72.8804 90.9522
34.6812 36.9167 45.5467
40.275 35.2244 32.2974
23.6634 25.0586 21.1189
17.6908 24.5857 27.9639
30.4941 42.7954 56.2404
18.835 16.6956 21.2608
44.5483 42.8545 37.7473
24.8233 32.2621 36.6462
24.7118 26.2798 22.9306
36.4566 46.1555 48.5393
18.1354 35.9038 56.4123
23.1634 18.1987 18.732
28.8809 36.6581 41.7969
56.3629 72.545 85.1289
32.6761 29.4199 34.3476
27.3857 29.9867 30.5266
11.3136 11.7236 16.2508
26.7099 30.6245 38.8665
31.9531 33.2765 29.1362
24.8181 39.7245 59.1531
57.2544 65.8604 72.8997
25.7308 22.4945 16.954
8.92672 10.4301 11.8331
18.6265 33.3068 48.1077
43.9124 51.927 64.2863
14.7608 17.7427 28.2451
18.7641 20.8006 39.3565
38.7879 37.495 34.8759
29.881 44.1656 59.348
32.3345 28.4833 28.2843
23.9106 24.917 23.1382
13.965 23.7857 37.9068
42.9047 58.399 69.9988
30.3619 41.6257 59.6889
29.6834 28.0624 24.0565
11.4706 24.5247 48.1647
47.5262 47.0962 52.5864
26.5382 20.8411 14.0059
19.3282 33.0233 49.8298
16.9567 23.0912 37.0069
52.3285 73.5524 81.2911
21.7942 22.2886 27.5186
20.7063 32.6195 49.2422
21.5392 20.7896 29.6304
20.6211 26.182 35.7678
25.8428 18.6557 13.8509
36.0798 61.3584 89.5798
29.3505 25.0315 37.3214
32.8145 28.1454 18.238
29.8538 39.8554 36.2407
29.9987 54.0697 66.2801
6.58244 14.5391 31.2786
28.3579 44.662 69.1581
21.0735 15.9029 19.6526
18.5097 19.0537 32.5575
42.1979 47.3895 53.0056
27.0914 38.5904 61.7993
41.3264 54.7364 71.5489
26.087 27.1229 26.8028
25.3798 29.0444 25.4967
21.6767 29.3105 34.9714
25.5586 37.0764 48.6355
16.1478 24.7659 37.3734
26.9825 35.8552 49.7413
17.8098 19.3719 15.9684
28.4943 49.9339 55.9248
10.7415 22.0729 42.9891
64.1552 97.6769 120.57
22.4819 20.8848 31.3052
27.3671 40.2218 48.2464
22.57 26.959 24.0832
5.34221 18.8486 39.7091
30.0552 39.0747 45.1884
11.1316 19.0442 27.5653
11.8969 35.0784 70.7559
32.7832 37.8769 49.7962
13.3919 19.8064 28.0016
29.5405 55.2382 82.9279
20.0827 24.7808 43.4718
28.6511 31.1809 40.179
17.8068 23.8806 44.8812
30.4884 31.8124 33.7263
18.2012 36.4475 70.2433
20.4813 23.0244 36.8273
25.8255 35.3527 49.7458
21.4171 27.2711 43.554
26.9081 34.2949 49.2762
22.1541 27.2873 32.3354
16.5159 28.8233 46.2236
25.6592 36.6789 46.4344
28.1293 49.6692 83.2734
37.2723 46.5433 62.9157
14.7951 11.996 18.4504
33.0798 49.5634 69.2972
12.5736 10.8893 15.2182
8.79728 10.6461 13.863
21.3735 32.4239 43.3268
14.8778 26.7134 45.5416
19.7558 26.9723 37.4337
24.6063 44.2984 76.7682
25.6432 31.5567 36.8606
19.3387 37.1434 80.894
33.052 43.173 49.1063
37.2566 65.0566 89.8965
18.1402 30.6947 54.0077
17.8453 29.6373 59.0416
19.0083 21.3265 36.4634
21.9526 21.4417 23.9377
17.5245 31.2561 52.9136
22.4787 40.5279 92.5951
41.2965 49.7614 55.288
29.8617 56.392 104.581
18.6986 18.2798 29.0957
22.816 33.4323 51.4009
21.3822 28.4604 40.7327
17.3625 25.4848 37.0659
23.085 35.9581 39.5074
22.9616 44.2828 76.1905
20.7307 31.3633 45.7284
12.2164 23.21 44.8004
13.6249 24.2733 50.16
26.5074 39.9349 47.736
10.2867 20.1235 38.6644
12.8974 20.3452 30.1509
5.44828 4.98919 11.8876
19.9019 37.523 52.743
15.9002 37.0175 59.4288
11.1063 16.1654 32.0624
16.7355 30.6787 57.2993
29.604 55.8034 99.5898
32.911 34.6106 42.8383
20.3363 33.5538 57.1443
28.162 48.2879 61.0104
17.4466 30.0168 50.2624
19.9547 30.9701 49.0141
22.5525 37.1318 57.4353
16.6737 34.7679 67.9673
16.0408 17.0969 21.376
17.2999 25.6536 27.9475
12.093 33.457 72.0182
19.3508 30.8555 48.0447
6.0242 14.8808 43.5568
18.4106 32.9626 74.6766
25.1089 37.79 63.1734
19.63 29.6491 47.7549
24.2546 39.0318 52.2702
24.4832 49.804 84.9325
10.5657 19.2172 55.8638
44.0471 62.1919 79.2877
38.7006 68.7512 96.766
9.94946 20.02 40.8006
20.76 53.0255 109.889
15.1859 22.0923 43.4112
12.0216 25.0432 59.0562
26.9319 31.2316 41.0106
16.9885 34.1317 53.1437
14.4455 35.5609 66.745
14.799 27.1624 64.5109
18.584 27.7125 54.0642
15.1987 26.8407 51.2428
21.6019 26.7115 34.1015
13.3192 24.237 38.0281
8.87537 10.3897 13.4196
22.6254 52.3795 95.1832
14.6087 28.8495 87.3863
33.2363 45.8783 52.0048
10.8915 18.5826 27.778
9.48448 19.09 35.9093
12.7332 20.9365 49.216
26.9922 51.1955 76.8314
12.9617 15.1078 22.4778
12.6586 24.0219 39.1356
12.9038 26.3327 49.1419
16.0989 30.923 67.5249
16.0541 21.8007 25.5322
10.2488 24.1891 42.3489
16.158 36.5999 53.3489
9.40709 33.6875 89.6306
19.2151 21.0482 32.7494
16.3234 38.3719 96.368
20.9457 23.3123 25.7623
9.77055 21.0393 36.7503
14.3375 28.3268 54.6851
15.6984 32.0493 71.1272
16.2066 26.3659 44.2498
16.4982 34.775 59.8198
10.4402 11.9035 15.9904
12.1249 30.3404 59.2045
11.552 20.0283 39.7602
13.0301 21.2454 44.3256
17.143 31.8925 54.0602
11.5273 24.3494 36.3153
5.51101 12.0009 26.7216
10.5014 25.2641 56.7165
7.92656 15.1528 31.5532
17.2186 32.1707 53.9007
10.5641 26.2966 44.3112
5.49585 13.5625 33.3489
8.47637 10.4825 15.497
8.89442 26.065 60.5957
16.9056 32.1737 52.9363
10.5663 20.0677 32.4419
7.0219 19.7564 43.5231
7.63468 19.7952 55.2067
5.92977 8.97946 50.3577
26.0135 41.2977 73.4652
22.1319 35.1759 57.9063
20.1673 44.2722 85.444
14.5693 15.8123 19.4329
14.9638 35.8121 63.7609
5.29317 13.5809 51.3087
15.7356 22.5106 30.933
10.0427 16.1267 21.8468
7.54532 23.8888 45.2868
7.34858 13.5736 25.6528
4.90905 15.2851 42.7435
9.44907 20.8084 47.4218
8.69785 19.4342 50.505
13.4495 20.7784 43.3401
13.7278 24.0354 43.4713
9.69525 16.2534 30.3644
6.47587 13.1768 30.0489
11.8062 23.778 55.3648
16.8266 34.7751 64.4279
8.57734 13.376 37.1598
11.8861 22.3345 34.5718
6.12137 8.60462 18.2579
11.5687 21.731 44.498
15.2993 26.7614 39.4359
14.3525 48.9191 125.747
20.0758 33.2881 57.445
6.56995 10.6391 35.1854
19.5149 42.6653 102.239
24.3124 40.3547 50.219
7.44636 18.929 51.3973
10.263 20.8738 54.8124
14.3413 30.9922 70.4955
11.8467 17.804 34.4156
12.8635 31.2706 47.3248
6.20197 12.1215 25.0797
6.56551 13.6693 34.4092
10.8005 25.6168 37.9155
8.25865 29.5618 68.7968
12.4808 21.9456 53.1196
14.7808 26.9699 36.2186
3.99725 17.1349 46.8876
5.79743 13.8653 41.7575
9.83475 12.475 15.6662
2.7014 7.08106 21.5286
7.54443 22.7649 68.727
17.355 24.5554 45.7482
12.8615 26.1018 36.8934
7.6785 25.0152 65.1517
15.5533 39.3578 76.75
5.60955 4.29183 26.8423
12.504 20.237 37.2411
14.4423 30.6379 66.1831
14.6625 28.7958 47.1717
10.5849 32.7695 83.0097
12.637 26.229 63.1356
13.8137 33.5482 78.3468
10.3891 10.1861 17.0195
5.04261 11.105 27.0375
7.45379 15.0071 45.6129
12.0881 18.1395 22.8906
12.4016 46.424 119.053
13.0136 20.8308 44.436
11.7363 24.8785 49.5233
6.9769 14.4122 41.1133
8.70424 16.2897 35.7211
4.52097 11.1916 37.1137
11.6515 26.1346 75.731
13.6422 16.5545 20.6867
8.00893 21.7836 46.0724
10.559 20.1145 37.7914
7.01312 19.5413 35.6628
7.30835 21.4929 46.7965
3.98685 7.77398 26.5279
7.89196 22.1862 51.9666
9.35376 21.2793 55.054
13.8508 27.0244 44.2101
7.49107 19.1397 47.9957
10.1537 21.4507 39.3565
7.65623 23.1232 49.2049
5.30078 16.9408 38.8761
4.89388 17.0757 63.4791
13.6578 23.5882 61.8204
15.4831 29.9525 57.947
8.62326 25.8866 85.0084
14.1583 26.0135 63.8147
12.2042 20.8279 38.7654
7.84932 16.9947 29.9722
5.36519 10.8083 19.2554
5.68003 15.483 72.1605
24.1226 51.6563 79.363
9.99402 18.2769 30.4553
5.30079 16.8253 26.5966
3.60446 15.1881 45.103
5.31195 7.83777 18.7597
5.92788 23.8657 59.537
6.85656 15.7667 36.7466
7.51794 20.8341 51.5574
10.9909 27.498 50.1402
7.25008 23.2952 65.8713
16.2143 38.9624 68.908
7.4686 22.5395 75.7195
12.8318 17.3492 42.4299
12.4212 34.7986 72.5659
6.80269 15.4083 55.0184
8.90242 16.2405 34.0212
6.1538 12.3157 21.9802
7.12275 18.9694 44.8297
6.86444 15.1492 45.2157
8.91509 23.5531 53.9956
13.784 43.1636 139.579
22.9594 33.1682 33.338
10.629 39.6301 108.7
14.8329 37.3158 82.3897
5.44613 11.5545 53.0024
11.2317 21.6971 33.4638
6.07486 20.6297 50.7017
8.53485 30.5305 96.1324
9.74856 13.4315 30.2056
4.72883 10.3141 32.1586
8.58414 21.3832 62.6405
10.8646 23.9581 35.1888
3.09383 12.2587 44.764
9.20278 21.251 48.9922
8.00517 29.1792 87.0261
14.5211 25.933 60.3144
11.9308 36.2446 104.43
8.52864 11.5977 43.9614
15.7652 41.1858 98.6198
11.8834 22.9193 43.9849
8.47862 27.6758 56.8913
6.44489 15.2123 38.4601
8.77349 24.2415 63.0922
7.67676 22.6871 42.1686
1.64846 6.60957 35.7291
6.5015 14.8454 53.4759
11.3117 24.7342 47.9098
6.88826 16.7658 36.9947
5.73761 18.491 50.6981
3.82148 3.78274 15.7714
5.56148 18.2354 73.0985
13.4433 24.8395 49.7015
5.71432 11.636 45.1947
12.8364 40.8865 100.916
13.6244 39.2004 83.5818
8.31366 17.0847 49.4009
6.30813 17.9657 60.7252
9.80142 16.0163 19.8948
7.35656 27.0668 62.0864
9.08864 23.218 48.3177
7.65537 27.3724 86.4916
10.2949 22.7596 69.6658
7.50693 16.9876 43.9709
7.69205 16.9752 49.666
13.2562 41.4198 79.4362
5.35447 12.7662 48.7535
7.03067 13.9549 38.7546
8.9241 26.1552 75.3477
8.46394 14.2173 40.551
7.46627 30.1706 77.1636
6.68316 12.9304 46.2277
10.3806 22.8496 49.8039
6.03861 18.1215 60.1282
8.52662 13.0864 33.775
7.80721 20.7375 43.8104
4.43837 15.4704 39.9401
5.60569 16.1013 58.9593
9.27824 18.7738 53.7243
10.1792 33.5629 86.67
14.1855 43.2964 96.635
6.86893 11.629 52.8074
6.61303 11.6201 24.7755
4.93177 17.5913 59.2269
11.5894 30.3316 77.6692
9.62743 14.8805 34.3663
8.10821 24.9185 68.6012
6.86747 18.83 46.033
3.40185 8.91842 45.2735
6.31996 14.3697 61.5191
11.4285 22.2997 50.5944
7.27447 21.0714 78.4463
16.8915 39.5705 83.7823
8.70393 24.496 50.3091
6.26563 17.1444 27.5297
5.18558 24.7131 60.9984
8.82305 30.96 79.6134
6.3173 21.0064 65.05
5.69258 16.5644 62.2247
6.51683 9.84662 40.8541
6.90841 9.82281 26.453
5.20379 13.0877 63.6162
12.6137 19.4964 24.9742
4.30782 12.5411 39.8783
9.72474 24.5924 71.2146
9.30216 26.0697 52.6554
5.29804 17.0044 50.647
7.06355 23.9936 62.2929
7.22532 24.7554 69.751
5.15369 12.2277 41.1402
5.21261 12.513 21.8711
4.3294 18.4197 64.1124
5.13638 12.2822 50.3086
9.29425 17.6718 43.4143
5.59941 16.2717 42.8732
5.9998 15.8925 52.5986
6.403 8.68402 27.1475
6.0811 18.1211 52.715
9.21259 25.3612 45.2794
6.2658 20.2407 50.7298
4.8531 16.018 46.6876
4.27995 18.6394 69.2152
7.79262 22.0878 61.7196
3.7055 8.45102 70.113
9.56203 15.2814 27.3385
7.10199 16.0369 24.2424
4.57324 15.3775 20.337
2.26451 13.1277 38.7654
6.50068 27.0964 71.9333
6.16858 13.9738 44.4137
4.42562 12.0174 40.6976
8.25635 33.3134 76.452
5.32234 10.191 36.3597
4.78222 14.3499 36.3339
3.88974 13.9659 47.4675
5.51796 12.6147 50.47
5.53016 5.97338 16.8667
5.67312 19.5238 39.6675
3.83291 8.96815 25.7602
3.34433 13.0631 34.6449
2.03302 6.05805 23.7758
2.65394 9.29451 40.3524
6.26333 17.5434 67.4903
7.67578 11.5502 44.8564
8.94294 20.6833 21.9996
1.79539 11.7613 48.8424
9.06422 38.5268 84.0639
4.9052 13.8328 50.0419
6.43427 18.7836 82.2993
11.2785 25.7693 64.6877
6.6175 14.8959 28.4218
2.0027 11.8235 65.5395
7.83932 17.776 38.3434
2.44379 11.6716 56.1831
6.06996 9.70935 22.4856
4.75947 19.7578 65.4381
6.88615 15.8411 56.5086
8.15808 23.5687 71.9496
6.22285 6.95467 16.0355
5.26608 19.5984 52.0999
5.70006 14.9428 44.7432
4.27106 10.7154 36.5041
6.24394 17.7828 39.069
4.35932 21.6813 50.6146
1.76254 11.0792 77.0091
8.82132 17.6458 50.2036
4.28578 8.93605 47.8153
8.52697 18.6814 24.6816
4.7734 19.9515 67.2883
7.48325 20.868 63.0861
8.27328 18.6689 46.9296
7.15671 21.221 46.1056
1.91637 8.69576 22.2401
2.89945 18.5665 91.9163
11.1689 26.0963 66.9945
7.27475 21.6564 72.4933
6.98913 17.2374 36.0461
3.49566 13.802 45.5122
4.51877 11.8349 73.3044
13.3431 28.4333 29.0122
1.1595 7.66814 36.9348
4.85064 23.0643 85.682
8.8672 13.7467 29.9137
2.68381 7.47576 26.8597
4.7344 17.6349 40.4012
2.9827 10.4697 70.5697
7.8784 14.6006 26.8927
3.08022 9.68539 29.23
5.29306 15.8031 53.9798
4.71248 8.07583 35.9262
6.39828 19.958 51.0228
5.99531 22.4708 62.3847
7.09166 15.0109 25.7866
2.7035 19.2436 49.3412
3.21463 16.4181 86.0812
9.68898 23.5757 77.7295
7.91568 25.7067 66.347
5.90137 10.6585 22.4924
2.2141 17.4863 74.3683
6.59206 10.9623 51.117
6.95523 15.9099 52.8132
8.63861 19.1826 32.3875
3.68578 14.9889 57.869
5.25346 15.1667 37.6736
5.84101 27.7721 92.1635
7.79107 15.0338 27.7951
3.37142 18.2727 61.3673
5.11253 8.80645 21.5397
3.53577 10.1799 43.2583
6.83964 23.537 60.5628
5.73938 17.6303 40.0978
4.88979 23.3724 68.661
5.04064 18.8107 77.8087
6.40348 16.8392 56.9907
5.25394 21.2399 75.557
5.75985 9.86679 55.7562
6.98075 23.8383 62.9859
7.1013 23.376 63.1142
4.79454 15.991 53.8983
4.7467 16.1649 76.9091
9.1266 18.4724 60.8674
5.58331 14.2964 33.9444
4.3338 13.2312 34.4273
4.02366 15.6601 67.5803
7.78932 27.7496 81.4471
8.56171 27.1612 66.6431
5.33698 15.6906 75.7848
7.57885 20.5247 61.356
6.34139 10.917 16.7907
1.93423 11.6631 65.8759
6.45354 20.0444 71.0194
5.98643 9.92131 32.6288
6.02896 34.2547 113.266
10.317 26.1574 79.0726
7.50727 14.2586 41.2098
6.31962 17.6447 33.9491
3.05399 19.5666 83.5108
6.75095 16.287 56.453
8.40051 24.6396 48.3429
3.00136 11.0516 33.3178
1.69291 16.9738 88.3119
7.04925 22.4244 79.6729
4.95861 4.74331 47.126
7.34827 18.5023 28.2612
2.44262 14.4193 74.1331
5.69262 12.0436 42.2466
4.41279 10.3185 44.7733
3.54392 5.49217 20.2511
3.72266 13.3683 29.3532
3.33402 8.00481 25.9574
5.38744 29.2068 101.361
7.70606 21.0447 38.1686
3.02621 10.904 43.5633
4.10835 16.7259 56.1541
3.87663 9.71465 59.1016
7.45555 21.7895 58.8425
5.12794 10.2765 27.0592
4.11226 12.911 64.694
8.66577 34.2111 91.1476
5.77186 17.1936 52.7117
3.1707 8.96672 41.2431
5.09745 16.5114 62.8028
6.36554 24.0385 36.1459
1.67004 9.35465 41.8465
4.06856 11.2901 46.1058
4.21554 9.70765 27.5415
2.35583 5.59538 24.1325
4.62933 23.7998 65.3775
3.52236 10.8531 59.3033
5.45745 19.5783 78.3018
6.3876 20.5488 68.7265
7.05953 15.024 41.5761
5.23142 25.8584 65.9416
4.22456 9.72407 48.257
4.01002 7.81571 22.607
2.85752 6.70961 25.7317
4.09965 16.2946 39.7717
2.52599 9.63651 54.7037
6.02851 26.0036 67.5128
3.7724 11.8612 49.1484
5.36986 22.062 51.1146
3.18592 13.7562 53.7123
3.70344 7.943 38.0324
5.22978 16.8047 51.2022
3.92391 9.7523 24.4526
2.35712 11.9752 81.9719
8.6462 31.1882 71.4606
3.59196 11.9815 66.4283
5.76869 19.9869 48.761
3.43164 5.26329 32.3291
5.02178 25.3872 77.4317
6.60998 16.1636 33.1053
2.57263 14.6837 80.8561
6.97483 16.2395 37.3245
3.4031 18.8389 56.4918
4.14415 9.79866 54.5463
5.97455 17.9534 49.7579
3.97588 12.4042 78.2827
7.96521 28.5832 45.5494
3.21536 18.3513 55.4141
3.14891 8.12216 58.0519
5.34998 13.3017 41.416
4.27739 9.51252 22.879
2.89622 16.2931 39.6322
2.83115 14.5058 50.7129
4.33543 14.3056 48.881
2.54232 5.64567 24.4604
2.70365 11.4709 43.9705
3.45483 7.68831 40.329
4.09204 14.3337 58.0527
5.66871 21.1491 69.3458
4.63037 14.2815 41.8531
3.93566 10.2186 19.6119
1.52093 4.40042 26.7329
3.39718 14.7313 29.2497
1.5468 11.2029 55.6102
5.2423 15.0545 47.3955
3.32357 7.96005 34.1394
2.77524 10.0799 57.4738
4.25684 10.866 26.6307
2.51893 7.76928 20.6143
2.33268 10.1238 29.9004
2.67974 10.3215 45.8011
3.00928 13.2856 25.2139
1.73582 9.12328 56.0141
4.83441 15.4688 64.9776
5.08272 12.0438 36.458
2.73085 7.40603 26.4788
2.23738 6.74871 38.3199
3.7874 13.4274 31.9556
3.4363 15.0008 34.1899
2.06023 6.98751 33.3176
4.062 14.6358 40.0062
2.56982 11.1285 74.5423
6.88286 17.4519 51.5467
4.08162 11.6409 65.1416
6.34171 19.2854 61.7638
4.60577 15.962 55.1744
4.47038 9.44565 56.8269
7.11339 33.8234 76.3706
5.8498 16.648 40.5312
2.92147 13.1889 55.0017
4.61614 17.814 67.7647
4.87164 22.2243 78.3993
5.53596 11.9903 27.1247
2.30015 13.7679 66.7083
4.29952 9.80677 37.7799
4.17354 20.9713 65.8313
3.29357 11.9995 78.881
7.24635 17.3004 73.029
7.9124 22.8083 65.7241
4.61133 13.4748 61.2628
4.47139 10.6943 61.9605
7.055 24.0704 59.2642
4.86562 12.5191 31.6348
3.36429 19.6724 43.7046
2.46689 15.8673 85.422
6.19113 22.1485 75.341
4.47895 6.14838 15.8742
1.16074 4.31041 35.3234
3.2971 18.171 46.7605
2.62551 9.98749 51.0559
5.12216 21.6011 97.0197
6.14502 13.9454 54.9401
4.69798 11.3779 20.0065
1.86678 8.86285 27.6472
2.77345 14.2344 47.4895
3.44638 17.2799 69.0636
5.7908 12.8605 48.6338
4.71424 28.3962 66.4456
4.26832 13.1306 83.0149
5.46686 14.213 39.1175
3.20493 14.1634 45.6869
2.71532 12.3247 58.5812
4.68675 16.8998 57.5316
4.85504 18.3929 68.8475
6.06433 20.4096 108.295
8.46246 17.8001 47.0024
4.44477 33.5028 114.321
6.9199 14.4127 46.7053
3.30659 22.3383 107.342
7.26292 11.8316 39.9609
2.54505 8.66646 19.2866
1.6713 9.98575 41.0091
2.62085 3.75221 23.5007
2.86173 14.6879 39.8598
2.79321 13.2501 67.1233
3.88053 3.70885 65.8929
6.69716 28.007 58.7205
3.70453 13.6431 82.5478
6.61651 16.71 50.774
4.10935 6.12862 31.6684
3.70036 15.5031 48.3116
3.93523 9.19243 26.4794
1.59239 9.04411 37.7001
2.74351 14.9297 104.997
9.12845 29.4099 65.3126
3.96962 12.2737 60.8169
5.56926 16.99 47.873
3.62757 12.6518 44.6731
3.70013 8.15699 22.5431
1.2944 6.1091 31.7197
2.95576 11.6232 26.5632
1.36947 5.71827 41.0396
3.15821 7.66352 21.371
1.34421 8.4925 36.7323
2.70863 7.97937 37.5875
2.88923 12.056 47.576
2.97097 14.0812 37.4621
1.92999 5.63175 27.6538
1.94182 9.18832 98.991
6.93229 13.6443 44.8478
3.82578 11.2059 41.5823
3.61428 12.5255 30.2491
2.85228 11.1146 35.1565
2.3967 4.87426 15.8144
1.69726 9.11621 65.2351
4.38544 11.7075 44.1772
4.78086 27.2838 48.5258
2.10722 4.02674 19.4199
1.76031 12.8064 66.1367
5.12696 28.8597 104.603
7.44116 17.1117 71.7025
5.44661 23.9138 73.1259
4.84792 8.71487 41.9068
4.86211 19.3418 57.0869
3.42879 10.4121 58.81
4.73989 9.81483 14.502
1.72958 14.7077 72.5108
5.01505 10.2941 43.5722
3.46118 13.1217 38.5475
2.66058 6.78474 40.3604
4.45384 16.8634 42.0704
2.26549 8.60918 44.6683
2.5884 6.46657 34.1201
3.83396 15.4206 32.9715
3.22391 19.6076 63.4046
3.50429 8.4206 52.7026
3.86035 18.2224 35.4805
2.68278 18.9569 74.6559
4.20141 6.249 21.7564
1.50903 5.10688 22.7358
2.08504 10.5327 40.0091
2.85548 7.62735 37.9149
2.84961 9.85003 43.7129
3.917 16.3783 50.551
3.4495 12.3292 39.79
3.36808 17.8532 81.0445
4.60437 11.9489 55.7906
4.295 15.4703 47.3113
3.65044 7.66997 45.1058
4.67991 17.4982 68.5621
3.93189 12.9376 45.9025
4.00376 19.6365 38.7124
2.23295 5.76337 45.7074
3.82218 11.2878 33.9798
2.95583 12.2425 35.0782
3.00646 16.1325 68.6094
4.24333 14.932 44.1929
2.34825 15.1514 57.7188
4.08014 14.1279 42.0941
2.96278 9.42181 30.6853
1.89166 10.2031 60.8584
3.72378 9.41928 35.7079
1.92278 7.18257 25.2494
1.52857 4.19443 25.0927
2.08216 14.1284 56.532
2.92533 11.1157 32.2829
2.84824 11.3036 50.2946
3.53235 9.581 28.6169
1.98694 7.96005 36.5413
2.1774 6.49063 22.9047
1.57816 11.6373 50.0446
2.33808 6.38393 60.8695
4.33336 16.4207 35.3364
2.33472 10.58 39.1348
2.85758 6.22815 28.7868
2.11023 7.41235 45.6286
3.46193 11.5452 45.7486
2.99155 11.373 34.2177
2.90065 23.7865 68.7759
3.85714 8.79555 51.8859
4.24369 8.13844 25.9572
2.32953 12.5922 30.8445
2.01788 21.5733 84.0648
4.19639 14.8747 74.2004
4.9203 8.22605 31.0699
2.23577 8.29803 27.0278
1.46155 6.87726 40.0828
3.04711 9.83174 33.0199
3.35887 17.1443 42.9042
2.64679 8.82999 56.6476
3.1317 9.55265 45.878
2.98058 9.66599 34.2882
1.85143 12.6826 49.9609
3.47551 10.5122 52.7545
3.78908 12.207 38.7857
3.15389 16.9295 31.4191
2.61674 13.5116 67.5534
4.19954 8.44449 17.8191
1.90666 18.3494 64.3777
4.11918 7.99071 40.9152
2.56345 12.8478 34.1337
2.01513 3.82104 38.2499
2.39794 7.39371 21.1066
1.47125 11.1606 27.0596
1.80243 6.63389 18.381
1.44975 11.5966 60.2876
4.03314 9.32101 29.0026
1.91065 14.8552 56.4081
3.21022 10.2212 38.2962
2.98092 8.73735 26.8768
1.92519 5.05312 33.1397
2.70019 13.8573 65.6942
4.43699 9.90281 61.9083
4.79702 13.4654 45.2437
2.63645 9.45133 49.2757
2.9937 7.13066 26.6956
1.82013 15.987 103.979
7.34509 25.4214 37.3459
2.92479 16.5369 41.3848
2.29546 11.7095 100.511
6.09932 13.5366 32.9821
2.02816 11.4278 20.7698
1.54184 8.6828 60.5091
4.26522 8.89407 27.3922
1.7025 10.131 62.7415
4.35719 8.46528 39.8975
3.68703 14.3413 50.9612
2.85249 12.716 59.1375
3.80621 12.0229 30.5394
2.26805 5.10763 32.3266
3.03468 16.7369 44.4737
2.90532 12.4834 47.4584
3.16841 6.44213 26.2356
1.933 11.6364 70.2018
4.3708 11.0485 28.1063
2.10506 6.3623 18.7268
1.37756 7.52769 34.0016
2.45732 10.8176 75.0882
4.23307 17.7467 33.9094
1.51688 10.3988 51.7976
3.82563 11.5781 19.644
1.57998 5.29252 19.7276
1.71146 9.6962 49.2515
3.07431 5.15431 38.7328
3.00217 12.057 37.2728
2.50568 9.24703 49.4864
3.0003 12.3451 72.8157
5.09932 17.7763 42.3937
2.60276 5.38533 14.2813
0.860251 5.49932 30.2448
2.70511 15.7422 51.0383
3.32328 7.80198 53.8982
4.18792 20.8921 54.1312
2.65667 8.30081 67.3795
5.35644 18.214 39.4539
1.86206 9.06937 53.9906
3.61093 7.24266 26.6854
2.0085 5.1233 48.9653
2.57971 8.31116 56.8239
4.31063 13.6217 30.5701
2.14439 8.07119 48.9414
2.73384 8.57495 26.9571
2.21668 10.1138 42.3435
3.01084 9.35224 16.8173
1.25626 8.35195 37.7281
2.14883 12.1718 48.1358
3.40754 5.39305 39.1338
2.72558 13.2877 55.6489
4.01562 17.3471 46.4893
2.61226 9.85522 38.5859
2.14936 7.40133 15.7546
0.992147 14.445 46.1961
3.20678 12.3572 32.2163
2.58711 7.23717 44.2693
3.42972 6.5727 45.6651
3.35498 8.32168 17.5057
1.60741 13.0986 53.4857
3.00667 4.64715 53.1186
2.84747 11.3959 18.9087
0.884034 5.87455 29.1525
2.16359 7.81754 41.4873
2.62204 17.855 54.5965
3.22592 7.59843 50.8226
2.8598 15.4348 56.5608
3.62621 10.9331 33.3223
2.37892 13.0885 39.9141
2.38714 11.9363 63.2123
4.19057 8.93955 33.278
2.7224 5.24815 43.5386
2.64196 18.6803 57.5028
4.05021 14.4973 35.0567
1.92162 7.40271 31.2355
1.669 10.0731 26.1485
2.10734 6.96482 31.6925
2.21456 5.15009 42.3829
2.38856 11.0605 65.1367
3.67121 20.8469 55.976
4.42749 12.8483 55.3789
4.31125 16.3386 58.2584
3.9341 10.7687 21.5352
1.4294 12.6395 22.6508
1.6848 8.76143 39.816
2.32664 12.3803 54.9326
3.54342 8.96859 45.8828
3.44647 11.2273 23.1825
1.54048 5.55342 23.6892
1.79635 5.83176 45.64
3.39739 9.19753 67.6223
4.20286 22.6053 58.0138
4.20208 8.58646 46.2403
2.76626 4.3592 43.8163
3.58609 10.8094 50.8526
3.45316 19.1037 52.144
2.78686 16.3069 71.4483
4.28116 10.9401 61.7211
3.64206 16.3597 55.1486
4.32495 11.509 29.0527
1.78705 8.20484 70.2299
4.56889 24.7782 49.3309
3.73531 10.6119 63.1922
4.40193 15.5399 80.0997
5.47225 15.5843 43.888
2.45379 14.7316 73.9328
4.09298 14.4947 51.8595
3.42355 7.55297 49.177
3.27513 16.8988 25.3822
1.74169 14.1258 60.8117
4.63355 13.0606 44.5666
2.96308 13.7998 46.3172
3.21553 6.62304 20.3866
1.33025 8.20133 59.6973
3.82017 7.14304 45.9573
3.01825 12.0187 16.5438
1.44418 11.8899 46.6713
2.91429 17.4747 83.0931
5.33721 14.025 66.8213
4.99279 0 0