# pn-170911/RbIIR-45-KOKB-1280-1959.psd
# Power spectrum* (dif=0,1,2) (really just |FT|^2)
# NOTE: only the first half! (symmetric)
# weeks: 1280-1959
# 7 clock-days, 0 excluded
# PSD: 1441
1920.2 0.185257 0.0657502
28162.7 1.01203 0.320901
110405 2.41117 0.34675
14839.6 0.495981 0.456463
34833.9 2.25052 0.470673
8112.75 0.749586 0.359068
10750.7 1.50053 0.462609
4778.15 0.963557 0.370106
11880.8 3.20481 0.508804
1669.67 0.62631 0.37569
8000.11 3.05396 0.413686
2961.61 1.17439 0.484113
7020.1 3.55078 0.307415
1428.58 0.546279 0.45997
9229.66 7.9707 0.649412
1275.76 1.07919 0.270195
9765.51 11.934 0.408555
1153.41 1.22868 0.614628
10065.1 15.2501 0.343376
891.601 1.54177 0.440675
6064.33 12.2748 0.280832
841.175 1.62661 0.585034
5410.63 11.8003 0.409704
567.798 1.55435 0.190901
4404.77 12.7616 0.51949
832.44 2.74991 0.65975
2719.52 8.38932 0.207034
1047.05 3.79595 0.578594
4072.9 12.6993 0.419814
950.539 4.2975 0.501368
6170.65 23.9013 0.407566
693.687 3.26475 0.418146
2314.03 11.5993 0.707201
1273.56 6.76495 0.298328
1487.37 6.98569 0.252973
625.928 3.28249 0.686671
4773.78 32.6661 0.448929
1277.81 6.46126 0.242782
948.523 7.62128 0.376191
1251.23 7.83352 0.517074
2116.41 15.0951 0.476086
979.221 6.54542 0.237378
1904.79 14.1503 0.537981
981.286 7.5887 0.740433
1676.51 13.4163 0.257094
1255.73 9.97936 0.42551
2301.81 22.4245 0.830291
689.76 5.81595 0.653574
3135.44 33.6176 0.671658
476.692 5.05508 0.458999
1334.01 15.0057 0.735359
815.02 8.10844 0.326066
1673.31 20.3195 0.947524
535.437 6.48411 0.373192
2049.83 29.6573 0.682797
385.245 5.09326 0.306482
2684.81 39.9815 0.967312
1372.11 20.104 1.1802
2484.97 40.1016 1.12397
524.739 6.54697 0.142176
1066.06 17.4929 0.850102
818.31 12.8911 0.376574
1516.73 28.8897 0.811296
286.675 5.72226 0.460476
1011.56 17.5807 0.651976
552.616 10.5355 0.48371
1944.01 39.8371 0.822416
267.535 5.09158 0.545925
1832.47 46.9996 0.988432
707.329 13.3265 0.613842
512.376 9.66385 0.425067
936.336 21.5348 0.731351
594.37 14.0511 0.707543
402.492 10.6093 0.67837
381.453 11.3337 0.257046
624.792 16.94 0.70149
1169.34 33.1043 0.72256
536.194 13.8247 0.797422
452.34 13.6699 1.15531
775.317 25.9884 0.885691
1453.76 41.0029 0.860389
242.055 8.30314 0.765614
917.134 27.9053 1.9959
422.561 13.7525 0.836814
485.62 17.7098 0.613336
493.793 17.2826 0.995768
998.496 39.2773 1.85379
283.193 9.50463 0.770354
680.875 26.4843 1.15113
303.611 10.2251 1.3116
752.248 29.5818 0.898089
309.914 12.7052 0.658438
1142.13 43.764 2.3819
405.182 15.825 1.63298
503.454 21.0662 1.60778
645.012 27.49 1.6342
443.188 22.8633 1.20046
408.799 19.0733 1.27775
752.82 34.0856 2.10664
306.311 14.5608 1.21367
599.42 31.7383 1.77458
360.333 16.5046 0.678744
1065.23 55.7804 3.19086
425.803 18.6286 1.28962
873.947 52.6044 3.50072
332.654 13.9873 0.603001
1020.76 52.6671 4.42756
192.192 9.02906 0.867947
330.916 17.1388 1.03511
308.974 17.3733 1.67874
531.274 31.7512 2.39688
273.049 13.0721 0.892801
359.811 20.3535 2.65087
239.018 13.5169 1.16833
413.142 21.7633 1.97362
209.331 12.4994 0.757126
606.234 36.9108 3.91846
312.77 21.8317 1.81529
542.01 33.4111 2.40084
183.272 12.0263 0.756254
383.931 28.878 2.27918
144.115 10.3797 1.03206
211.974 13.5962 1.34685
322.534 22.8147 1.96462
290.902 19.9049 1.96314
283.203 20.8019 1.32289
517.663 36.5754 2.47073
314.203 25.0464 1.81741
212.849 13.9264 1.7012
489.824 36.4011 2.38425
144.434 11.8098 1.3075
227.071 21.1955 1.70715
487.143 37.1228 2.70085
489.086 39.9808 4.06686
253.54 19.248 1.7198
312.258 27.8229 2.32908
488.879 45.8058 5.94284
374.472 30.203 2.85345
551.048 52.9128 5.75142
173.981 15.4432 2.1295
300.631 25.1035 2.18438
293.842 27.0766 3.3869
357.687 31.4422 3.84399
304.676 31.0841 3.90574
344.82 32.8706 3.07912
209.473 20.5871 2.80972
546.608 56.0623 5.21871
197.668 18.7103 2.14987
193.051 16.9961 2.13694
342.797 36.0649 3.03239
579.165 64.7506 6.66137
174.494 18.625 1.89954
377.634 38.4377 3.57321
310.008 31.1732 4.11789
172.903 19.2846 2.10797
475.746 54.8759 5.15072
383.236 48.3213 4.78459
320.753 35.6103 4.44451
267.641 33.9142 3.35722
213.272 23.5255 3.09037
201.397 22.3885 3.1137
199.766 26.8291 3.79748
272.654 33.6443 4.99835
201.228 27.3833 4.46583
153.505 24.7295 3.99064
176.881 23.8927 3.45309
149.463 18.0652 3.40148
201.656 24.5025 3.21257
171.989 23.3584 3.19153
182.632 23.8853 2.67423
236.561 30.8483 4.06208
307.423 48.435 6.71346
233.276 37.0451 6.55664
186.719 26.7208 3.40128
96.9099 15.2595 2.02828
219.982 34.785 6.56652
92.5059 11.6901 1.52875
242.586 36.099 4.62298
149.396 22.177 3.22796
155.184 22.3348 2.38499
174.83 28.2923 3.60662
105.535 17.3706 2.71562
165.695 28.2026 5.16851
308.554 48.4249 6.89498
316.315 48.3862 6.58405
115.326 24.9274 5.15348
270.993 47.1306 6.46389
234.033 31.4198 5.416
377.572 70.8595 12.8293
188.351 26.7046 4.30351
196.247 34.0978 5.71542
157.102 31.789 5.97691
258.05 42.2496 5.16978
138.205 24.1142 4.58136
194.314 38.1078 5.41056
173.185 30.2868 6.52086
157.283 34.5441 7.20813
91.4336 19.2108 3.16315
126.489 24.5903 4.82601
266.674 44.6723 8.11034
414.281 79.3026 13.9656
321.956 58.8168 11.0235
140.214 32.7543 5.81256
165.627 30.0676 6.21775
124.312 21.564 3.63164
230.988 47.9977 10.8363
112.364 29.778 6.0214
167.038 29.6458 6.55894
158.643 35.5364 7.84996
209.997 38.9085 9.89241
144.691 32.127 5.34558
249.03 48.3937 10.5276
104.66 20.8305 4.48471
189.833 36.5499 9.12356
109.84 26.5009 7.08749
254.632 50.2515 9.79304
133.8 28.811 6.10812
177.867 37.0085 5.99251
101.586 26.855 6.81024
124.945 28.7447 5.34231
157.09 34.3396 9.50379
129.316 31.1548 6.98872
198.069 42.7388 10.004
345.732 76.5069 15.921
159.99 37.4465 6.07497
108.2 26.5642 6.88982
134.855 25.9367 6.44757
90.7383 21.3966 5.44538
185.952 48.4872 10.4967
120.481 30.5059 8.32525
123.924 32.361 9.52239
185.879 49.9469 13.4975
88.137 29.6672 10.2715
114.506 30.2247 8.38632
183.517 38.1992 9.3636
155.454 38.3228 9.81589
188.502 51.225 12.8646
151.986 35.6781 7.96191
80.1907 20.3889 6.21835
96.5728 23.8723 6.14131
123.773 29.6865 7.02744
206.338 61.0724 14.1166
169.754 41.861 9.40633
67.1126 18.2675 5.02772
169.018 43.4758 10.2687
78.3788 21.2704 7.19725
166.508 44.687 9.23772
104.6 31.9861 10.0506
154.123 40.3336 10.7153
106.079 31.8258 9.73808
81.9742 28.8617 7.34963
65.2632 16.4342 4.35152
99.9782 33.297 11.7603
220.524 65.504 18.9992
98.1686 23.511 4.5322
76.8583 24.9196 7.00091
93.4832 27.4982 8.15348
176.292 55.1109 16.0488
48.8081 21.8189 7.50543
87.8257 29.5099 10.0051
62.6104 25.4496 7.86007
85.2406 25.3261 9.55443
173.661 45.7939 10.595
121.274 40.571 14.9454
112.897 36.097 12.4066
80.1031 24.5034 10.8909
67.0484 23.9415 6.26062
106.067 39.0425 14.1298
111.532 44.8411 14.8772
171.523 47.0696 13.531
86.5187 31.2006 10.0587
157.938 48.7502 13.5138
153.856 56.2455 19.4076
110.901 40.0237 16.6474
59.6231 22.943 9.27418
69.61 20.4175 6.13671
126.588 51.9165 17.3306
86.4856 39.4831 15.8624
172.769 55.6396 16.4582
180.326 57.1677 21.4674
70.8058 34.6943 14.8289
156.86 56.1115 18.8588
40.4622 17.7432 7.86164
109.277 41.8107 13.6078
66.0684 23.6092 9.21472
164.794 64.7868 27.243
69.5329 29.5987 14.3881
93.8221 34.5365 16.2286
96.3886 34.7366 14.1894
73.222 23.3188 7.27186
73.2701 25.5274 9.7912
115.825 45.08 15.8455
60.0636 20.3562 9.39027
93.5566 31.19 10.8975
59.3476 22.3876 6.88828
67.8047 21.0647 7.19407
76.5303 25.5456 10.0985
105.368 43.9398 16.2349
61.2931 23.4097 12.0245
111.435 38.5964 12.8893
91.1281 38.2906 15.5458
28.2521 15.4134 9.23565
94.6772 45.6263 21.2935
97.8769 35.5001 13.6961
61.3373 27.6397 14.7938
142.082 61.5451 25.6502
98.5354 34.9577 12.7003
87.8738 38.962 17.6151
87.3969 36.8718 18.1069
60.6337 25.1518 9.81657
76.1885 37.0974 18.3179
110.363 46.0647 17.857
49.8723 20.3961 9.82798
44.3353 22.1069 10.8345
69.6611 29.4193 13.1887
32.6694 24.0201 13.0353
84.4972 38.9608 20.7752
85.0474 31.6834 11.0488
68.0728 33.1739 14.9744
93.6529 42.2141 18.1394
82.9736 41.9636 23.097
82.3698 26.9065 10.1276
74.5663 41.2881 25.3534
127.92 53.7436 23.0271
36.8358 21.0918 11.6225
61.5891 28.7992 13.8978
99.9778 47.8767 26.1555
135.127 62.5095 25.9513
52.1763 29.0936 13.9226
77.1296 45.3827 23.1832
50.8537 25.4484 13.273
48.7541 30.0813 19.5761
107.257 48.9874 24.0847
118.765 59.7352 30.6114
56.9787 23.5924 7.98851
128.253 66.4234 31.0135
20.4178 15.0744 11.3565
95.4681 45.6904 21.918
37.4497 20.3679 11.5352
74.1851 37.6558 21.855
68.7341 29.2256 13.0023
69.079 43.3869 22.8461
68.0921 35.2639 15.4869
75.1903 39.6312 18.6021
56.8397 28.7845 15.0627
47.7957 31.454 18.362
55.4641 30.8135 17.7706
66.0643 35.6374 20.8067
91.4162 39.058 15.9743
81.8977 47.2517 29.5167
54.1364 30.7862 15.0637
39.277 18.2315 9.19481
43.4575 21.7826 13.9553
77.8009 41.1807 26.8328
73.8316 38.6583 18.3742
96.0035 57.1418 36.2886
27.5779 19.3056 13.0443
37.342 19.0316 10.1458
86.5286 47.4335 27.529
58.1414 30.6227 15.6211
40.4678 29.7469 25.9938
94.4896 51.8488 25.0994
108.371 55.2811 26.6696
28.4978 24.407 18.6822
64.6049 38.6233 23.6913
67.8869 46.5427 26.3129
46.2953 36.7602 28.6242
66.367 34.755 21.3222
60.3704 29.0629 12.3515
47.2166 32.5255 20.8594
55.7005 27.8818 11.2152
46.6427 33.4648 20.0955
43.1349 32.0353 18.1321
119.962 84.7077 52.5994
64.4989 45.5454 32.5305
74.3092 42.1584 28.6877
47.6103 23.3097 12.4393
84.6538 64.9594 42.5371
44.3962 22.8828 15.2329
37.7462 25.9905 19.5554
74.1597 47.5668 24.8976
40.4649 29.8599 25.2528
70.3913 35.2516 18.5671
40.4944 26.5936 20.3162
41.7977 22.9309 14.1361
36.6396 21.4384 15.1634
47.2776 22.4808 17.5112
79.5113 45.7504 28.0868
45.9708 24.2636 12.8915
109.041 63.9427 38.7504
28.8814 20.7177 14.9595
53.8871 34.6112 25.128
45.0719 23.0063 13.8301
83.6377 60.4884 39.2539
23.7201 17.7143 16.7305
35.8222 20.8663 13.6142
44.6323 30.4462 20.0615
43.9271 35.8366 27.5546
39.082 26.2078 20.1801
72.9176 49.3592 32.3718
53.0943 39.428 31.8803
42.9888 33.3833 22.8978
45.9859 24.879 16.5761
74.044 60.0366 46.2689
10.6529 7.96723 8.56426
33.1567 23.5413 20.8795
59.4578 39.6715 29.9291
63.8677 51.78 41.2434
60.3831 51.0553 39.7095
43.9403 29.6165 18.1308
37.6257 30.7078 24.1725
43.5178 28.7876 21.68
68.7882 42.208 29.7983
61.5886 52.7888 37.3774
34.3654 19.977 13.7906
34.9832 23.0861 15.2903
37.6882 25.4228 16.8692
50.0273 50.0374 43.3492
52.6369 35.521 28.4079
59.3746 39.2066 23.6012
53.7581 36.8596 25.0989
14.2072 15.5513 15.989
46.9447 38.4522 32.9159
36.5496 21.9288 16.4339
49.3702 46.0339 39.0492
43.622 30.1895 15.4375
26.9184 28.0326 26.2144
26.2148 26.3804 21.6321
56.0415 43.5441 27.922
38.244 31.3071 23.0571
20.7697 19.7479 17.6104
28.7104 21.3434 16.228
29.3573 24.2648 17.7735
19.9799 16.5998 15.6936
43.4886 32.6912 20.4602
27.911 30.9157 26.4166
54.0457 52.47 46.3606
36.3383 33.2895 34.973
33.1791 20.8245 20.0873
47.1254 34.7552 27.7578
25.4961 16.7572 14.6473
51.7247 38.2042 24.9787
53.3068 39.9773 25.3307
50.678 47.7714 37.7502
28.0843 32.9872 28.412
23.7002 28.5527 31.1345
43.5072 43.8827 41.2957
33.7847 27.2743 22.8524
37.9995 32.524 22.3655
31.6825 33.1352 29.7002
23.1483 23.8323 31.7959
57.1127 42.7992 31.86
53.2626 41.404 33.0176
24.5861 29.7056 32.0886
16.2363 20.8917 31.7808
72.6436 57.9996 44.4139
43.5549 42.0145 36.8083
34.6789 23.3175 16.0744
29.5994 28.4752 33.8621
79.9551 72.976 56.1951
31.016 31.1843 30.9281
39.13 30.2902 25.5342
56.3663 49.1798 34.0665
24.4242 30.4119 32.1612
58.1973 55.7226 52.3879
35.9353 39.3774 32.1273
29.6046 26.2461 21.2189
39.1922 41.4672 40.8683
45.5948 41.341 35.6595
63.772 68.8143 59.0691
38.1203 50.1377 56.0659
32.3061 39.5877 47.5048
22.2318 16.1381 22.0147
48.6734 52.6339 53.1004
69.3941 63.3559 55.5098
52.365 51.7103 46.8758
26.7816 31.1393 31.214
18.6675 21.6033 27.1068
31.7462 33.4196 38.3302
25.2763 15.6431 12.5377
33.4245 29.6951 31.0546
30.2494 24.9844 21.6868
25.3807 27.4606 34.3073
39.4377 44.1115 48.2173
16.2378 12.004 23.3795
77.5214 68.4275 56.0589
53.2042 55.4574 57.6463
46.6137 47.8868 40.2801
17.3698 28.8346 42.9876
28.2681 21.6754 20.7633
35.3506 34.2357 32.7135
20.6318 13.6801 9.93032
19.2107 18.7701 19.8355
24.9349 23.9228 19.1614
39.6471 50.5948 53.0451
41.2961 41.7157 41.0047
43.7808 48.491 50.0562
31.5278 33.7353 38.7696
26.7688 20.8428 14.8308
39.8072 47.4102 44.9659
20.9051 29.1214 41.1504
40.9055 26.8754 23.4659
35.1546 42.9143 49.4749
28.7972 34.8623 36.1704
24.8316 29.15 40.8806
48.7653 37.5621 24.374
20.8159 31.6438 41.6286
47.5076 52.51 54.6881
32.3105 41.7044 50.4204
20.7237 26.5646 28.9235
31.5803 31.8578 27.5726
30.0464 43.0879 44.3698
16.6989 22.2481 30.7008
37.758 48.2847 52.4457
41.2534 44.2722 46.0844
36.4359 39.872 44.3416
21.2422 25.6744 36.8361
46.2323 50.1795 45.8744
28.1238 29.7494 30.175
23.668 32.1178 34.6655
25.7302 40.7359 50.9589
58.1726 78.3884 86.5052
15.4431 19.7322 36.0167
49.1804 47.4906 43.5126
25.3529 32.6302 40.1884
13.3037 17.4593 22.3109
8.04196 12.0603 22.6618
30.4346 38.7157 44.7426
20.9755 17.2917 23.6026
23.5791 25.7234 28.3137
31.2757 36.1768 35.9997
15.6979 28.9248 53.2056
40.5358 42.9552 46.5993
41.0477 50.8341 65.9004
30.227 24.7255 25.8968
14.1724 19.085 30.0953
38.7192 41.5832 36.3967
21.3594 26.2448 31.2926
27.7252 31.7059 39.861
30.1849 43.3825 45.2184
44.9573 61.0802 72.6172
28.5497 30.4913 38.9429
28.978 37.4319 40.7183
23.1973 26.6636 32.705
14.1079 17.4091 24.309
9.84887 14.1703 28.5227
30.051 30.2291 34.9689
32.3617 33.8886 43.1036
29.5147 37.7356 41.0515
25.382 34.0624 35.791
22.9389 36.7948 53.5937
22.9011 31.5862 48.1129
25.3496 30.1902 47.7745
37.4192 36.8242 30.0324
21.9885 30.7713 34.8202
32.868 43.3728 47.3163
21.0556 38.8099 53.8768
26.5272 38.2347 58.0077
14.4775 13.4278 25.9649
32.9908 43.8431 54.9172
33.7077 30.7708 30.8253
19.1315 26.2214 37.2721
20.8293 21.7593 25.9534
18.4305 23.9763 35.2819
50.3803 69.715 86.5521
39.7276 38.2524 33.6208
30.8897 54.9598 80.3654
30.2791 40.7892 57.8339
17.5721 25.1742 43.2379
30.5283 27.0286 26.1107
26.3053 31.3361 35.0228
26.7304 39.1185 54.2034
15.6116 26.761 40.0074
27.691 43.9736 57.3097
13.0568 21.432 39.715
26.6033 31.919 40.3218
14.9087 17.9183 27.4654
25.5137 45.5892 82.8436
26.7419 14.4922 7.17972
20.8934 24.6013 31.4274
35.3036 46.4227 51.6502
16.1264 21.2403 26.0086
10.0432 20.3284 42.6099
40.7866 35.581 32.4573
24.2232 42.391 63.1744
29.2119 44.6908 63.378
18.7501 23.162 39.667
26.9211 36.9811 50.9082
13.97 22.4709 34.9982
20.2806 21.623 29.51
18.9196 21.8802 35.1376
20.2553 29.8068 45.6532
23.1363 32.5904 47.1519
31.1929 53.674 78.6528
13.9083 11.1684 14.9548
6.19664 12.4505 33.4376
27.2365 27.4976 31.1659
19.7171 27.0222 42.7579
39.7017 52.5282 54.6801
3.65038 7.27198 18.5905
19.5342 35.0288 57.0709
15.2671 10.8675 14.5041
12.6623 16.6882 25.2975
16.3374 22.9817 29.5893
12.0334 17.1144 27.074
38.5843 57.7096 75.8916
18.6247 31.702 59.2943
23.6557 36.7772 51.665
12.7516 24.6544 50.6292
29.6484 36.613 43.6234
19.2952 29.3013 48.3882
7.83148 10.0769 20.3396
11.12 16.4839 34.758
11 22.4168 43.6687
22.6006 30.7229 46.5369
23.2113 30.0309 39.9846
20.3673 25.0449 15.0821
17.8194 37.9686 58.0335
17.5469 36.9216 63.2969
22.9394 31.8283 47.5708
20.5608 28.1306 34.5162
9.50777 14.2418 23.632
16.5853 30.6997 48.9511
13.3261 24.3748 55.0052
35.462 38.4696 40.7024
27.7934 51.7426 73.8509
17.1308 28.6062 58.0545
15.3523 24.3187 32.895
11.4158 17.3755 27.4196
13.8235 26.6048 47.1386
17.0194 25.0271 38.2256
24.84 42.0726 77.3978
22.2782 35.2526 57.2753
13.0595 16.3703 47.5707
40.411 57.2546 75.8998
24.9283 27.719 39.1262
15.6127 29.0033 49.3828
24.8578 36.7481 61.2209
31.3019 50.4985 70.8156
17.5579 27.2686 47.0866
16.0506 35.3596 61.6512
20.5078 37.1311 74.4587
27.3174 24.4161 25.4625
12.4403 28.0334 57.2409
23.794 27.4035 46.6664
17.9666 26.5725 36.7557
11.038 16.5555 44.4917
31.3361 38.404 41.0383
23.3995 39.6005 66.6037
25.1673 39.4081 64.7416
19.9873 27.5568 40.9153
15.2553 24.9109 39.7312
10.2227 15.2215 23.1073
9.35904 17.5286 36.5893
17.929 38.3307 54.2477
24.4155 47.186 75.9196
14.9826 20.856 39.1877
15.3574 29.9652 44.6091
13.45 30.0042 54.1776
9.404 20.6655 49.4142
11.0599 12.4964 27.4806
15.6671 30.0743 63.9772
15.1942 20.7208 30.9802
8.47356 25.2551 75.5202
42.9057 55.389 60.9418
16.7785 26.4843 50.5742
12.1089 13.7076 25.8689
14.3938 32.4861 53.5224
17.0673 27.4109 52.4485
24.1755 57.5031 123.875
17.1098 12.8248 22.9594
16.319 31.9649 73.5809
16.2007 19.7633 50.9437
31.1609 40.811 39.0553
18.6959 39.3579 59.531
10.1296 26.18 50.8089
8.83242 25.4459 83.2643
22.6465 21.1891 29.0456
17.7857 25.4449 51.4723
25.4929 39.8985 59.4538
14.4832 31.4502 73.2786
34.8341 58.7223 68.7919
11.1221 25.9204 52.6464
7.94917 28.7445 93.4499
32.6956 38.188 39.4289
13.8194 27.3661 55.9093
23.0829 24.9688 27.5585
8.90521 28.936 59.3868
17.6836 23.3524 35.2919
16.0847 28.9995 53.0638
18.5848 36.8465 79.5643
15.8906 25.407 45.5205
12.3457 28.9151 68.2767
11.1206 17.4626 39.0589
14.4213 37.4402 82.9607
11.4518 15.3171 47.1569
26.9002 49.0853 77.8797
15.2457 26.6391 43.2933
18.6235 29.003 40.1786
8.3958 25.6601 63.8489
11.8463 14.7904 31.7955
13.1576 21.7288 25.6204
15.8925 42.8489 82.3621
11.4676 17.0174 40.8131
7.85381 11.7245 48.8855
24.8468 35.8437 48.8242
15.8166 30.7458 50.4721
14.5773 27.2586 53.3051
13.2545 22.5845 45.6886
12.2968 13.5096 23.1804
9.79221 17.0329 32.7841
10.6197 15.3484 30.587
12.5656 21.9105 46.1459
14.0504 22.8588 39.9471
13.7873 24.8737 47.4892
11.9652 27.949 59.6804
18.3459 35.5835 56.3015
12.3777 24.1951 48.7598
4.86178 7.98221 24.8306
6.36906 17.6303 46.607
18.0303 28.4796 41.5237
9.06417 33.5581 84.9482
10.3366 14.7459 51.6301
23.7343 40.235 58.6232
8.05883 11.2971 27.9259
17.0497 28.498 58.346
15.4347 25.1075 32.8902
4.71799 16.9043 58.8446
18.7276 38.5494 44.9719
18.0026 39.2199 66.4349
10.2753 30.8561 80.2016
20.0509 39.8402 93.1559
15.2429 12.9976 28.727
15.9212 24.9354 36.0315
13.1656 29.399 65.4542
13.7883 18.5586 34.5268
14.7865 17.3781 19.713
10.7332 28.6128 51.1909
15.5292 34.8738 80.4572
12.5847 29.7742 62.3602
14.2762 38.6152 63.7605
10.6677 25.1925 68.6048
16.8998 27.0543 50.7193
10.1403 20.8861 50.0206
13.8917 32.9254 86.2385
16.8068 18.7651 27.9167
11.4405 28.7917 83.3071
17.6354 23.738 37.0138
17.2361 31.7301 46.0841
6.34831 12.406 21.625
9.51776 21.7733 46.9427
12.6499 18.0828 30.5302
19.908 44.5468 93.6767
15.9215 36.3526 57.7124
4.45097 11.69 29.9436
6.79306 18.0166 41.0043
11.0792 32.1962 74.8591
15.4814 38.5369 83.9552
16.7545 30.6735 70.8309
11.5013 31.1862 106.059
27.9515 27.7539 27.3295
12.3767 17.0667 28.5164
7.09879 23.3352 63.6925
6.68318 14.7748 48.1
11.8465 21.7556 42.027
11.1867 19.9789 35.5851
9.94098 22.653 51.0882
11.2953 26.8255 60.3529
17.2775 45.5979 112.328
13.8051 21.6546 36.3944
9.64739 26.2239 57.5446
11.7299 17.1008 57.3154
9.9819 25.4832 47.1481
11.8987 20.6174 47.2548
10.0242 22.0805 45.9576
18.0114 43.8502 90.0806
10.5075 11.1314 19.2787
8.13699 24.0129 62.4178
16.4016 41.3474 102.288
12.6604 12.5 26.9815
11.5075 18.6659 30.0613
10.4374 22.4597 48.8733
8.43334 11.9546 25.5532
9.11837 15.309 39.9726
10.1377 18.0688 43.3534
15.3903 30.2289 56.7447
6.82421 17.139 42.7523
4.2564 8.4112 27.1694
9.77108 22.7271 53.7326
9.55485 16.2265 26.6525
6.41383 31.7123 106.723
16.9949 25.8305 55.7308
14.837 25.104 48.55
16.9188 46.6347 84.9842
6.12371 14.9962 51.8887
13.2119 38.7632 96.7836
11.585 21.1825 71.681
19.2091 37.6889 95.7436
20.8064 32.4536 45.3072
13.305 37.2793 77.1958
13.3098 33.5125 80.7863
14.058 27.2007 62.8129
15.6634 42.442 109.019
11.2238 12.2511 49.7184
17.5289 36.1387 65.2883
13.8193 25.0904 60.55
9.69226 21.8448 52.8756
7.43383 18.4088 66.1199
12.1736 31.5201 103.94
18.0678 31.1564 58.1889
17.9306 43.1329 57.7773
6.21968 11.7858 23.9289
9.57265 33.3882 75.1534
10.3196 16.6586 39.8445
7.52411 14.3479 50.3164
12.7871 24.3082 49.4314
9.97283 11.1656 34.4638
9.4954 28.1218 86.819
15.12 34.5474 77.8867
13.0921 19.397 32.6999
9.35749 25.9381 50.6065
2.74501 9.62745 42.5141
11.3886 27.0218 56.1806
6.49354 10.2933 31.5763
5.30097 15.1032 51.7859
12.1543 16.7732 46.3807
4.70067 10.9446 26.8146
13.8295 33.6673 69.5494
6.98989 14.6815 56.9696
12.3946 32.2696 67.9329
10.2487 28.1047 60.1193
9.53433 21.1992 40.3928
2.93731 9.48972 34.3301
8.85763 9.38494 27.2821
11.6134 25.9661 66.1736
12.7684 17.7544 23.7601
7.32836 23.8392 58.4149
10.7135 24.8228 67.7888
9.21992 17.4439 57.7982
11.3278 24.0998 60.7238
11.9234 19.5113 43.8256
8.68183 13.0918 22.701
5.47781 16.0957 41.9523
7.15203 14.904 38.1568
12.3815 35.3042 68.3741
7.46858 14.1546 43.7086
9.56853 23.6268 71.0081
6.81675 19.5396 96.8577
18.8283 26.0646 27.2931
5.31313 17.0682 47.6836
6.9055 15.8243 42.3693
5.66528 14.3365 19.9044
4.76258 23.0406 93.265
10.4483 33.1836 129.04
22.9454 37.0951 71.7971
9.71273 20.0012 33.9898
17.4464 44.7976 102.675
13.262 32.7308 85.6384
12.2878 29.3777 82.3147
11.0972 13.909 23.5732
2.35753 15.1949 58.9255
9.17227 14.4262 33.0238
6.26448 15.0592 34.612
12.7496 45.5288 109.799
11.6964 28.1159 67.5352
10.7526 22.7854 83.853
15.6763 23.5376 53.7888
11.2834 24.03 45.5349
12.2295 23.9656 39.8151
5.87002 20.8 72.8447
9.02231 16.0579 38.7682
6.00228 22.2919 76.1069
8.60318 11.4069 41.3718
14.2939 34.831 75.7614
5.66582 13.8128 36.9308
9.80483 17.9813 51.8101
10.3052 18.67 68.883
8.30662 25.231 94.999
18.8575 30.4906 53.0213
14.8708 28.4013 56.3474
6.56324 19.9009 51.7998
6.18223 17.3801 64.9565
9.27154 23.0033 52.368
11.0968 24.8554 73.9988
9.03874 27.7373 70.8363
6.66315 16.2205 47.6826
8.51958 32.2281 94.2345
13.1934 22.7885 39.2865
4.84594 10.5148 22.4627
3.67399 10.5621 52.9285
9.84497 20.5205 63.0486
6.46844 23.8471 73.6925
11.0399 18.6914 48.3152
9.26231 28.0392 63.7635
5.92868 16.8919 60.1594
4.64755 9.47265 64.7586
15.0786 27.8789 37.7766
5.96998 19.3331 53.1303
8.96884 16.5241 41.7181
5.02118 13.6199 31.4487
7.80348 15.4599 46.2053
7.09927 21.7614 62.0215
8.9828 16.0494 35.1453
7.85812 23.824 73.8876
7.37962 10.8714 27.7313
7.02786 29.3024 92.6367
16.1093 30.4922 79.7449
12.9301 26.365 55.5276
8.56799 22.33 71.6918
12.2284 28.2103 67.4661
10.8001 16.8306 35.3478
8.52234 37.9572 108.363
13.8293 25.2908 68.5713
7.8915 16.4502 35.3338
7.38386 26.7925 80.0215
4.37554 11.0403 61.7457
10.4383 19.8311 48.923
8.46571 14.4775 41.9921
6.09551 25.6461 81.1735
8.10594 10.1248 27.0966
9.26923 20.4813 45.9039
4.60383 18.8884 85.7477
8.26813 16.1312 27.9996
3.09569 13.9844 40.7864
6.13423 14.1715 27.7536
2.32861 12.7121 50.9119
6.39153 15.1904 54.1661
6.55716 22.3107 98.947
12.945 13.7054 73.8695
19.9192 41.2084 51.7684
7.7408 41.2279 118.897
11.4069 24.3957 44.5152
8.53363 22.6708 63.3456
6.01021 17.7891 47.7601
5.75585 19.7502 78.0667
12.4099 28.1281 39.696
7.54561 46.6953 142.839
12.3951 26.4182 79.6601
12.3804 23.5149 70.4731
10.0601 18.0668 51.163
5.68496 20.6444 82.8518
6.56229 19.5341 52.8861
11.719 13.1758 25.9373
3.95108 10.0144 38.6224
8.18529 14.2413 54.8419
8.97263 27.1916 52.9928
4.72775 21.1403 73.6913
5.98385 18.8311 61.6285
11.2294 19.6306 40.0577
8.09884 23.271 70.2147
10.2531 14.6453 48.5683
9.12323 24.3125 50.987
6.96024 12.6141 34.6688
5.21649 22.7748 111.494
14.244 21.6861 42.3014
4.68877 14.2335 23.7411
3.09308 9.55258 45.0585
5.86292 19.2122 41.2824
6.25805 15.4319 41.8134
6.12976 34.6742 106.232
11.1067 15.9674 66.634
11.6788 15.908 70.6497
12.7186 28.2188 44.929
6.06576 14.938 59.2496
9.20825 18.7575 51.6409
6.50815 26.374 82.6105
7.92894 17.6653 29.2109
2.85575 20.3194 85.8518
9.66197 20.995 41.1831
2.77506 21.5748 90.7858
11.6586 28.6665 96.9431
7.42246 15.1159 32.3171
7.26578 17.9267 57.293
6.8633 33.7426 137.763
14.9168 18.8608 31.1939
4.29283 8.47339 19.811
6.27827 16.735 28.2115
4.88327 20.5625 48.3938
3.23961 17.7687 87.7561
12.5215 25.1821 58.9174
9.10488 17.062 29.4959
5.05256 15.28 53.8188
5.32822 12.3511 59.7506
4.22795 14.4777 33.4361
2.5512 18.4956 67.1348
9.2083 28.2906 106.135
14.1274 10.7706 17.4788
4.80939 24.58 75.4143
5.18344 14.3129 54.0277
6.37644 13.5643 35.9186
7.63925 19.8554 66.8878
7.68962 24.8204 77.7203
12.3747 26.6231 62.499
4.1703 10.8076 45.3596
9.1631 19.7673 81.335
9.05998 13.8671 41.0004
8.24107 20.9255 64.8524
12.2125 27.4219 57.5366
3.35795 9.48707 43.0274
3.658 13.5939 54.7549
7.27194 14.9244 40.4611
7.9885 23.8324 54.7858
2.82758 8.42658 38.1376
3.00986 15.7467 57.0456
6.38419 21.4726 47.6126
5.58472 10.5349 33.582
6.01976 12.9852 63.9516
9.04723 20.6508 65.2557
9.37773 25.268 75.1325
5.68825 12.4126 62.8356
7.79668 16.4098 72.4119
9.05693 18.9103 50.2016
6.92188 11.6954 47.9402
7.55232 17.1864 53.2999
7.24808 20.4868 49.9588
7.85169 17.6147 54.382
11.9117 11.8648 28.5195
5.94259 18.4501 45.7763
6.24728 17.2469 52.6704
7.82934 21.5504 45.7271
2.76611 22.5772 74.8551
7.8105 12.348 44.9802
4.1144 8.75584 44.384
7.06819 27.9653 89.3525
8.80278 24.6379 87.2907
6.40871 7.87026 57.1928
12.6327 17.8316 46.1343
9.48738 19.2383 58.6621
6.58898 16.3783 40.3971
5.18059 11.1384 40.68
5.71362 15.9858 42.7433
4.27584 14.2642 67.0274
12.0899 23.353 38.5464
2.82583 15.1256 41.8298
6.58462 20.6074 84.683
3.34763 15.4449 84.2057
8.76083 19.9812 66.3811
5.288 22.9667 57.5896
6.53025 12.1895 67.5118
6.80396 21.901 38.5147
3.88469 15.2533 55.5593
5.00471 14.2194 26.0294
2.30763 4.98135 22.3309
3.41463 21.8962 68.9917
4.90543 11.6676 35.2192
6.98759 19.647 82.7635
11.2167 23.8484 90.1675
10.1986 19.5228 45.3753
5.615 17.2501 67.1754
5.81764 12.7596 57.7638
5.98869 22.2264 44.4254
4.69792 5.20172 40.8227
7.57795 32.0625 74.4045
4.13662 8.99302 41.0326
5.1173 9.07481 43.0431
8.88294 34.9928 109.088
7.10834 12.5756 55.9265
10.8187 15.1627 52.063
7.14321 21.1761 80.7984
5.56602 20.7018 54.3514
7.22814 15.1826 53.5295
7.7933 26.7034 70.9465
2.6778 6.35095 18.3413
3.43326 15.5945 86.158
9.89436 22.2444 55.4441
4.08448 23.3453 79.7397
3.7747 8.17286 42.9981
6.67219 18.7775 43.3862
4.09788 21.2544 88.8961
8.58108 16.6314 39.5257
4.16458 17.2405 50.5342
4.72428 17.7396 96.5136
10.2009 24.7796 39.2984
4.37132 25.6782 106.344
6.3839 8.842 31.8604
4.67807 18.2464 46.5762
4.01648 22.4512 86.3371
12.8138 29.1934 67.3613
4.74869 13.2196 60.6646
8.52097 13.5593 44.4462
6.48259 33.7422 95.1047
7.62316 17.0736 62.7079
4.37873 19.2533 80.1475
7.50141 32.5372 86.7588
5.22754 11.854 64.74
4.45631 14.1675 77.1334
9.49132 19.6295 42.5333
5.83544 9.67297 50.1342
7.17651 17.5202 39.5265
4.8259 7.91071 48.5271
5.79103 11.9473 56.52
9.74835 29.8973 103.019
8.05732 14.5284 14.9894
3.33254 17.1636 79.1176
8.21472 30.2969 112.013
12.1159 25.4696 51.4641
4.83205 15.3726 41.9068
8.41343 30.9514 82.4239
7.02686 20.0238 61.0049
6.13101 19.1372 56.0924
5.61783 7.48638 53.6131
8.77493 15.4862 39.836
5.03284 26.1366 142.804
11.453 24.1575 63.2311
4.27761 7.96506 23.6755
2.46119 17.4352 95.4218
9.2584 23.5917 63.9641
5.17327 15.5084 66.0319
7.73122 12.985 24.0968
6.08091 13.4536 44.6908
7.47466 20.8209 42.5583
4.0719 17.2545 57.3139
4.74433 14.6012 87.2604
8.95081 28.6849 70.4075
3.07441 12.5433 103.999
10.1201 26.8618 57.5824
2.5582 8.36696 62.9911
7.36211 16.8302 72.1272
6.35616 16.9561 53.361
3.52179 12.5016 34.957
8.00955 15.1637 42.0679
3.41171 10.7082 62.4598
3.96218 12.3015 37.6147
5.35496 11.2787 63.1872
6.27264 17.9975 47.4275
4.18217 9.24746 27.8412
4.62135 19.545 52.3614
3.20789 8.10375 34.1653
5.40522 13.8132 61.7108
7.39607 23.4517 61.4735
5.06942 6.26803 40.0917
9.06623 20.69 82.8852
8.12349 14.3948 29.1464
3.62929 13.981 60.4194
6.32792 22.8717 56.7055
3.01338 12.4917 82.7012
9.44294 10.3704 43.2739
5.61995 26.1559 109.589
9.73009 24.7361 56.2546
5.58833 13.6152 51.3257
7.46403 10.1787 70.1987
12.5263 26.8609 45.5923
5.19448 9.72661 46.5803
4.19217 24.298 84.8195
8.18515 16.0346 41.6876
3.89082 11.8266 37.8571
3.17814 12.2477 70.7757
8.67903 23.4653 50.9957
4.19252 9.75054 28.8099
3.80875 19.5269 78.0354
4.61396 9.45861 30.5643
4.76707 11.3039 67.1975
5.33622 12.4223 42.649
5.12386 16.1104 107.211
8.36477 27.3847 49.8859
3.25374 10.4956 34.2673
5.40082 19.1248 56.481
4.95395 13.2811 29.9242
3.72904 14.4137 40.44
3.60055 15.7662 77.6349
6.60376 19.4674 93.3187
7.37832 14.6259 38.8973
4.03003 11.7149 65.6693
4.80562 29.0755 71.8736
9.43182 14.1864 28.4717
3.89709 26.8879 87.9263
5.57876 17.0893 81.0741
5.03688 15.7796 57.8812
3.91114 16.8502 65.0485
7.30389 13.9585 77.2361
5.83426 13.6711 34.665
3.63313 8.12667 62.4145
5.03064 20.5722 72.7511
6.11362 19.6611 43.1856
5.11553 11.157 74.3123
7.15174 19.5979 62.215
6.66397 14.3343 85.8754
9.20817 37.9168 50.981
2.94841 11.7283 65.5788
5.23666 38.0442 109.238
10.806 16.5733 58.2826
6.41807 12.9073 60.7051
3.75285 8.44114 56.7695
5.98255 12.6161 70.7244
5.42187 15.948 68.5979
4.56199 18.2055 59.2282
4.2763 12.1951 29.9271
3.21194 10.866 34.2446
2.36657 16.752 66.0307
3.98057 10.1858 19.4434
2.109 9.44246 41.5108
5.02501 25.1434 61.0256
5.40012 6.12639 25.3531
1.90347 9.16446 42.1598
2.41409 13.4393 49.9597
3.05698 6.3705 45.1312
4.94176 13.5519 26.3011
3.04135 16.3045 54.6644
4.16417 12.689 28.1656
1.7264 4.14035 19.9017
1.78393 6.4893 38.236
3.92673 7.20375 35.2125
5.87323 13.6158 50.384
5.84229 7.5188 42.6798
4.35754 19.7836 40.0159
5.79464 9.43423 28.9038
2.01629 14.1671 73.9159
5.90912 12.8077 43.5852
3.31669 12.4673 38.198
2.32888 9.80143 61.6117
4.93995 16.1612 40.483
3.20686 11.1518 24.421
2.7654 21.9662 44.6736
2.5449 7.98101 39.1234
3.48831 15.1099 102.408
10.3091 15.0238 48.4667
2.02223 8.0752 46.6855
3.18688 8.55727 38.6466
1.94672 5.68413 60.4246
6.14208 19.948 53.3698
5.10986 17.9973 49.7484
5.03324 16.7439 78.3706
6.22729 18.6448 35.6425
4.16326 6.45782 42.7041
6.14191 19.0742 47.1243
3.74166 18.2634 69.3145
4.39658 8.29105 46.9107
4.71116 13.0503 46.964
4.05477 8.35885 48.1839
4.7146 18.1547 21.8763
2.23109 15.256 72.3564
5.94029 10.7458 22.5916
2.64448 17.3262 54.156
2.44376 10.001 51.5487
2.90493 11.6376 35.6665
6.22612 11.4877 59.823
6.79931 15.9087 50.1694
4.1309 15.7762 61.8557
6.9324 12.0547 46.8099
3.28982 12.108 61.9684
4.2869 9.22552 65.5785
5.50236 15.7757 49.8312
5.22009 28.6169 129.71
13.4882 23.2536 42.0585
2.45736 5.46252 23.589
5.57087 21.9685 67.8773
7.01324 17.2262 60.8596
5.59835 25.9196 99.4146
7.84805 14.3671 69.8861
3.86353 16.6444 87.5985
6.9956 18.336 39.7058
2.46687 9.89601 34.3316
1.80246 6.91049 45.5483
3.51196 13.0951 56.1131
4.28821 13.3506 31.8455
3.08105 11.2519 62.2199
6.35289 22.5225 75.663
7.04413 15.3706 61.7982
7.1625 11.622 35.2879
2.46022 4.87354 37.9818
6.41756 17.2211 51.6872
3.45427 10.5422 29.7262
2.84899 11.5758 42.6021
2.01807 8.95961 56.2905
4.72998 8.29018 27.9971
4.87503 22.9293 49.8468
2.07277 10.1591 36.3678
2.53463 17.2722 80.624
10.2593 13.6908 61.2603
3.98553 11.1057 42.8883
3.7924 15.0642 71.3743
6.89606 13.1715 27.3164
2.23489 11.0798 85.3157
6.52611 18.0161 74.2455
5.51767 20.8102 59.8325
8.17064 21.1369 82.0818
5.30037 24.5729 101.753
7.78001 23.884 41.0189
3.52984 19.4451 66.1086
6.76489 17.0148 62.8149
3.29539 5.7372 41.1627
2.53804 21.4102 74.9758
6.37554 16.3888 50.8548
3.81984 15.1723 118.036
7.75254 22.7753 43.3817
2.99296 5.97119 34.3739
3.96397 19.5691 51.4396
4.98885 8.95114 46.7244
4.6606 15.8486 41.0844
2.23752 12.3472 78.2977
4.99026 10.9321 41.4876
3.06023 11.8588 50.3539
3.88475 15.7518 67.9613
3.79364 28.2812 70.0123
4.11778 6.81971 50.7356
4.22266 15.9413 65.1794
4.69964 21.233 46.9877
5.21447 11.3484 67.7331
4.49555 12.75 50.9711
4.46319 7.22335 33.2166
3.95616 17.6173 56.748
6.01615 17.3915 38.4067
2.49132 14.0484 67.3049
5.15109 12.4621 65.6581
4.68452 14.2314 42.5777
3.11307 15.3171 41.4174
4.16736 24.8736 102.191
7.06252 10.0121 41.9531
4.94742 9.5769 45.3395
5.46618 11.0823 68.3005
7.28703 19.1589 35.7783
3.40441 9.3223 48.8946
3.09112 11.573 45.2205
3.9297 6.18335 56.9938
4.02964 17.207 53.4949
4.8583 7.40244 23.7349
2.90373 15.0483 63.6386
6.49672 17.0614 40.2307
2.47398 3.65497 18.5373
2.57441 5.41133 40.5772
3.02002 7.65159 16.2337
1.20698 8.36085 47.8683
2.8399 8.26971 37.3288
4.03727 11.7869 50.8477
4.21697 14.2111 38.5118
2.69997 9.14371 40.5097
3.13893 13.8901 41.9454
3.34535 9.99179 66.4214
5.05101 11.7123 24.1162
2.88974 20.8675 90.2092
5.25963 8.81412 40.9601
2.525 15.1706 39.6131
3.30644 3.93309 20.3523
1.71313 6.03933 54.9225
5.29509 19.5436 68.984
4.59835 18.1067 53.385
3.17087 15.0971 40.3682
1.5726 8.75763 68.6878
5.54874 15.861 31.8617
3.59147 12.0282 92.4949
7.52807 18.2587 35.84
2.16731 8.82158 32.7885
5.0308 11.468 37.3205
3.82355 6.717 40.977
3.32861 16.6743 33.878
2.74579 16.4563 77.3331
6.53677 16.845 53.9519
4.26006 13.4874 54.9703
3.15118 18.1701 72.5652
7.30499 11.7865 44.9084
6.42073 15.5507 47.635
2.64412 8.81598 72.5164
4.70147 22.9994 37.037
2.86806 7.76436 55.8427
3.95047 21.0955 100.537
6.11189 14.6884 42.7556
4.56573 15.8608 51.2675
3.31679 11.1925 43.5684
3.75495 12.4198 35.786
2.25332 9.51397 52.834
3.16104 9.9921 17.6223
2.49837 9.77675 47.0047
4.2633 15.3066 71.8314
5.86837 29.5177 103.995
9.20398 15.4462 32.9741
3.83173 11.8072 43.3979
3.21696 9.3956 23.4172
1.96787 20.0534 96.7884
6.92998 8.14047 47.7175
3.88894 14.8018 52.5775
3.89603 11.5755 29.7642
3.9157 12.3687 44.7778
3.78548 9.87595 26.9495
1.55212 4.66231 20.8652
3.05363 16.7256 43.8463
5.34141 10.8376 59.1987
4.18701 8.45541 45.4717
2.89048 9.83124 45.9948
2.99721 20.195 146.454
11.5052 21.581 22.2765
2.70285 22.8694 83.9062
6.37104 7.74508 47.307
4.77785 21.6107 81.4215
7.18213 14.6472 69.9668
5.03108 11.5279 74.8389
5.68758 14.3034 38.2701
4.32269 18.7646 81.2648
7.09645 14.4001 27.3824
2.6118 6.65669 40.8471
3.95527 12.2765 18.6967
2.93097 9.01581 22.1478
2.57396 7.48546 37.6825
3.02035 9.89164 28.7344
3.30606 14.0491 29.7263
3.08134 7.36287 51.8044
4.12973 15.0483 47.0477
4.63844 12.3015 83.1482
6.01923 15.7621 50.7048
3.93055 8.69334 41.4082
3.32375 21.6009 63.0692
4.42479 11.0093 75.7208
6.75737 23.5166 32.9242
3.37056 4.97914 36.2064
3.38961 10.7456 25.0282
1.69274 12.9933 42.548
4.92543 13.7384 89.311
6.67229 16.17 32.2467
2.29626 12.3904 31.9578
2.88837 8.27582 39.7347
3.54857 12.8144 86.9262
7.81537 10.4041 38.1184
2.34481 10.0168 25.3843
1.22401 13.1285 44.7392
4.82818 9.2618 38.5248
3.4638 8.03659 56.4466
3.72623 10.454 30.858
2.45233 9.00726 39.6578
2.96969 12.3121 60.3028
4.81314 14.6154 70.7654
6.46526 16.165 47.816
2.86462 15.9909 89.4225
4.65235 17.2732 65.7591
5.09023 6.16308 23.0345
3.34896 16.0533 56.986
5.87619 8.08978 63.8848
3.97172 5.9102 71.5108
3.98775 22.9851 88.9278
8.40149 26.0721 51.3664
4.7366 19.8133 67.0307
5.27095 19.9282 47.2855
3.60511 7.62356 28.7218
2.76401 5.88304 18.1972
1.19302 2.80728 19.2341
2.14869 11.3859 52.2918
4.32299 5.79056 80.3033
6.98349 10.6027 27.502
2.07807 18.9394 65.2204
5.72322 18.185 39.7481
3.99971 12.8789 32.9119
2.92781 22.8163 136.707
8.58733 0 0