# pn-170911/RbIIR-55-RbIIA-1280-1959.psd
# Power spectrum* (dif=0,1,2) (really just |FT|^2)
# NOTE: only the first half! (symmetric)
# weeks: 1280-1959
# 2996 clock-days, 33 excluded
# PSD: 1441
6030.44 0.243388 0.0328387
628355 13.315 0.0244213
1.7411e+06 31.33 0.0248479
376392 12.1666 0.0251981
255955 15.1402 0.025059
114906 8.37897 0.0250054
77764.3 8.81158 0.0258951
50911.6 7.5472 0.0260915
41407.2 7.78647 0.0270672
30052.7 7.10169 0.0268406
25238.4 7.0656 0.0275791
20406.3 6.81044 0.0284659
17019.9 6.87464 0.0290716
14304.8 6.78307 0.0298058
12463.1 6.83995 0.029712
10664 6.6501 0.0305938
9577.17 6.78003 0.0337419
8323.87 6.73243 0.0342503
7511.95 6.71787 0.0340811
6426.1 6.34335 0.0351163
6119.8 6.77324 0.037496
5594.34 6.84669 0.0388907
5006.53 6.8596 0.0414033
4541.77 6.70563 0.041335
4282.22 6.75645 0.0440598
3881.99 6.73541 0.0436988
3573.19 6.60564 0.0471341
3271.96 6.71463 0.0485497
3144.39 6.96641 0.0506282
2931.26 7.08049 0.0522022
2864.2 7.06067 0.0560082
2647.15 7.11194 0.0575971
2444.07 7.24548 0.061024
2355.76 7.41105 0.0623242
2257.07 7.44347 0.0656988
2175.76 7.71256 0.0708979
1980.41 7.55532 0.0717654
1970.14 7.9363 0.077601
1820.43 7.76318 0.0765432
1785.45 7.93439 0.0837646
1676.05 7.96654 0.0871022
1637.04 8.13452 0.0897436
1540.65 8.21617 0.0938824
1554.74 8.64578 0.100732
1435.87 8.3854 0.0984684
1399.29 8.6719 0.108615
1335.37 8.75203 0.113189
1307.36 8.96342 0.120928
1276.88 9.15942 0.124826
1237.1 9.23427 0.130865
1175.56 9.25743 0.135999
1181.88 9.65515 0.144789
1133.33 9.52685 0.146006
1112.06 10.0676 0.159181
1064.25 9.9159 0.160865
1066.77 10.4818 0.173606
1045.83 10.6111 0.182403
979.418 10.2946 0.183621
936.121 10.1545 0.188628
920.19 10.6207 0.20106
930.008 11.2146 0.216513
881.221 10.6963 0.21514
866.563 10.9998 0.226161
836.32 10.9588 0.230098
837.939 11.4022 0.247069
806.579 11.2764 0.253072
794.648 11.5906 0.266647
769.202 11.6736 0.267846
734.9 11.5004 0.279644
756.269 12.4141 0.305571
735.155 11.9848 0.306207
708.062 12.0806 0.318879
707.577 12.4538 0.33398
675.956 12.3967 0.337618
670.685 12.5407 0.34914
669.734 12.9122 0.368453
653.298 12.8044 0.374022
627.847 13.0533 0.391143
610.367 13.218 0.406911
587.228 12.6756 0.402375
596.927 12.9717 0.420207
567.398 12.6732 0.420617
582.212 13.9626 0.477477
549.467 13.3979 0.461869
545.467 13.6253 0.480544
540.747 13.843 0.502676
522.715 13.6671 0.503716
524.37 13.9949 0.527802
520.177 14.256 0.549858
493.418 13.6592 0.541237
491.473 14.1137 0.568076
497.046 14.4416 0.589402
481.245 14.5805 0.617714
479.902 14.6369 0.621891
460.495 14.2966 0.630836
458.49 14.7979 0.658514
500.389 17.4738 0.790483
448.166 15.1399 0.69609
433.203 14.9534 0.702065
420.708 14.5433 0.692685
409.187 14.594 0.719239
431.916 15.9006 0.791857
411.702 15.6533 0.794575
403.994 15.4583 0.802924
384.154 14.9698 0.790006
386.598 15.6695 0.843782
370.94 14.8695 0.820224
363.386 15.028 0.829569
379.016 16.2613 0.922169
377.259 16.5713 0.953864
358.85 15.7179 0.923557
354.474 15.85 0.953477
344.052 15.5222 0.946005
349.694 16.3429 1.0097
345.167 16.7604 1.06214
330.788 16.2696 1.04464
324.012 16.0383 1.04783
321.927 15.9709 1.06104
319.426 16.5631 1.10778
320.369 16.6068 1.13669
313.898 16.7109 1.15718
304.565 16.4638 1.16213
303.574 16.9008 1.20831
307.119 16.9883 1.24493
304.195 17.4066 1.28811
288.708 16.2824 1.23222
298.396 17.2712 1.32282
291.815 16.8889 1.31379
278.543 16.9454 1.33005
285.755 17.7112 1.42573
278.967 17.3491 1.40981
277.549 17.7223 1.4705
281.792 18.3564 1.52474
262.945 17.2323 1.46041
260.129 17.443 1.49432
262.113 17.6882 1.54555
259.092 17.4552 1.55127
256.827 17.9611 1.62517
261.409 18.3502 1.67228
248.686 17.7927 1.64749
247.056 17.8641 1.69196
239.078 18.0055 1.7104
235.592 17.4335 1.6813
233.662 17.7706 1.75614
236.487 18.5232 1.83174
229.707 18.2729 1.84011
226.298 17.9926 1.83428
237.732 18.8812 1.95444
231.446 18.8907 1.97591
227.88 19.0178 2.01769
227.195 19.2945 2.06565
223.257 18.784 2.04199
217.738 18.8511 2.06767
218.835 19.3162 2.16791
211.597 18.976 2.1401
221.158 20.1227 2.30375
212.294 19.3015 2.23215
210.754 19.4142 2.26417
210.707 19.3479 2.3223
201.678 19.5001 2.34182
199.648 19.6064 2.38654
206.509 20.3536 2.52836
194.284 19.1187 2.37431
204.131 20.445 2.57908
194.925 19.6316 2.50898
193.399 19.8519 2.55299
190.569 20.3069 2.66353
191.885 20.0725 2.64604
187.065 20.4035 2.75031
184.04 19.941 2.68623
179.899 19.6177 2.6834
187.487 21.1362 2.91474
180.698 20.2507 2.84626
177.827 20.3427 2.88165
180.349 20.7631 3.01671
177.445 20.666 2.9838
171.157 20.1185 2.96777
174.763 20.8552 3.09278
172.399 20.9811 3.14485
171.9 20.9493 3.19348
172.42 21.4606 3.25868
166.368 20.5699 3.18911
165.757 20.8152 3.2821
166.766 21.7253 3.43493
166.791 21.3514 3.40201
166.534 22.0866 3.57932
160.777 21.036 3.43569
160.204 21.2049 3.49117
162.089 21.7629 3.62401
156.38 21.5894 3.66151
151.3 20.8081 3.53811
155.108 21.5182 3.70808
196.197 28.3649 4.90926
154.364 22.147 3.87696
150.394 21.425 3.79928
150.133 22.1834 3.99494
147.332 21.6865 3.91866
147.508 22.099 4.01007
144.56 21.7982 4.04633
144.768 22.2206 4.16079
145.525 22.9593 4.3261
144.078 22.7341 4.3197
145.938 22.9841 4.40447
139.021 21.8975 4.27656
139.442 22.5465 4.41377
142.849 23.2227 4.56658
142.53 23.1463 4.58249
133.56 22.3029 4.517
136.166 22.6491 4.60047
137.604 23.3777 4.77795
134.812 23.2214 4.83906
134.221 23.661 4.96197
131.307 22.7605 4.78889
129.757 22.8907 4.90609
131.644 23.3559 5.00865
129.541 23.2837 5.04209
126.361 22.8735 4.99584
127.433 23.2127 5.15868
125.874 23.1987 5.14885
127.033 23.6914 5.30771
127.631 23.7761 5.39906
121.435 22.6743 5.19412
124.748 23.6451 5.46509
123.874 23.9206 5.58837
125.399 23.9456 5.57315
122.663 24.1682 5.76417
122.14 24.4967 5.85709
121.91 24.352 5.87444
123.234 24.6842 5.99537
121.887 24.6674 6.07373
118.244 23.9409 5.9001
116.341 23.8937 5.94201
116.682 24.5871 6.21507
120.717 25.8185 6.57244
121.369 25.5215 6.50846
114.571 24.6848 6.40138
112.329 24.6595 6.42739
115.076 25.237 6.6373
114.481 24.6849 6.57738
110.892 24.6192 6.56298
108.184 24.0406 6.44174
111.726 25.0491 6.81517
105.907 24.2913 6.63231
109.411 24.7418 6.82253
105.912 24.9193 6.9299
107.515 25.5437 7.14853
105.328 24.3272 6.84502
108.279 25.6007 7.2092
102.537 24.9637 7.22177
107.232 25.5651 7.34192
101.65 24.4207 7.10957
104.816 25.0875 7.34366
103.224 25.5874 7.53925
103.502 25.8304 7.66975
100.954 25.2936 7.63818
105.479 26.2314 7.93759
102.341 25.7273 7.78761
101.041 26.6605 8.23912
100.735 26.2422 8.09668
98.7798 26.0357 8.16951
100.691 26.4161 8.31164
96.4899 25.5584 8.04319
93.1208 25.1433 8.07907
93.4605 25.5418 8.17863
99.6321 27.3037 8.82168
97.6891 26.8476 8.75246
94.595 26.0556 8.58233
95.3114 26.463 8.74199
95.4731 27.0906 9.05447
96.3994 26.9926 9.07288
93.5788 26.8339 9.00931
93.5013 26.6865 9.07812
90.6144 26.1025 8.89235
92.8899 27.0611 9.4102
90.3573 26.0492 8.99924
91.8954 27.8596 9.73564
91.4153 27.1813 9.64335
89.3113 26.6269 9.40748
89.2804 26.6321 9.48519
89.1851 26.4566 9.45892
88.2494 26.8368 9.72584
90.3159 27.9577 10.2684
85.7082 26.547 9.76205
84.2404 26.7602 9.89942
87.812 27.7749 10.3348
85.6542 27.0235 10.1942
83.8925 26.6364 10.0965
83.2206 27.2335 10.5623
110.947 37.3724 13.84
84.4866 27.9242 10.7926
81.1668 26.7083 10.4187
81.6602 27.052 10.6144
81.6708 27.0421 10.6552
81.5796 27.5297 10.899
81.0808 27.5816 11.0188
82.5692 27.9212 11.1316
79.6426 27.7205 11.2255
79.4766 27.4202 11.0565
81.5112 28.6256 11.7015
78.8614 26.8966 11.0945
79.558 28.2909 11.6461
76.9945 27.2267 11.4057
78.6023 28.2383 11.8705
80.5258 28.7284 12.0327
72.9696 26.534 11.2645
76.0588 27.2058 11.6345
76.0361 27.7005 11.8882
77.7632 28.4966 12.2832
73.3789 27.299 11.8755
75.019 27.9284 12.2368
76.6897 28.4596 12.4755
73.7976 27.6038 12.2128
75.2848 28.5339 12.6276
72.4022 28.0267 12.703
75.9381 28.8491 13.0505
72.6802 27.7671 12.5176
71.9766 28.3408 13.1487
71.6749 28.3368 12.9979
70.4633 27.489 12.7959
72.0444 29.0533 13.4722
71.6408 28.5056 13.3721
72.4153 29.335 13.7611
69.087 27.6516 13.1789
67.0619 27.7727 13.3839
69.8237 28.4474 13.6696
69.8231 28.3104 13.7174
68.4201 28.3612 13.8703
69.8219 28.9726 14.0275
70.0146 29.6215 14.6604
69.5154 28.6514 14.0857
69.2966 28.9882 14.4316
69.1638 29.3571 14.611
67.2571 28.9651 14.5522
65.9041 28.1855 14.2286
66.4775 28.7722 14.5904
64.9587 28.7401 14.739
64.1649 28.055 14.4224
66.5304 29.5601 15.3715
66.0855 28.9243 15.0051
65.8155 28.914 15.1048
64.1968 28.524 14.8984
64.7368 29.0916 15.4599
64.4495 29.3497 15.483
62.2203 28.9498 15.6628
63.324 29.035 15.4916
62.38 29.2261 15.9624
61.906 28.4373 15.3195
62.6782 29.2575 16.0554
61.2166 28.607 15.803
59.0686 28.1931 15.7018
62.2751 29.0412 16.2231
61.0106 29.2223 16.2167
62.4537 29.535 16.5642
60.3092 29.1761 16.4345
59.691 29.1376 16.6281
60.9619 29.9801 17.1957
60.7328 29.4059 16.9176
58.8075 28.74 16.5443
61.077 30.3396 17.645
57.0937 28.1471 16.4418
58.4837 29.4139 17.1545
57.3582 28.7428 16.9075
57.8534 29.1667 17.1993
56.7509 28.8593 17.2394
56.2868 28.8008 17.3659
56.8004 29.3115 17.4586
55.7989 28.8851 17.7379
56.2639 28.9058 17.4759
57.619 29.7281 18.0162
54.9547 28.8906 17.8642
54.6202 28.6613 17.6586
56.7498 30.2909 18.9294
54.0993 28.7246 17.9916
54.4029 29.3825 18.5191
55.3093 29.4243 18.4847
53.9532 29.2975 18.4873
54.7323 29.0451 18.4587
54.2587 29.5186 18.8203
54.0794 29.727 19.0858
52.9991 28.7124 18.659
52.6299 29.5339 19.3052
53.7049 30.5004 19.8992
53.5977 29.758 19.8158
52.8675 29.9168 20.331
70.2469 40.4481 25.5419
52.2378 30.2374 20.2549
52.1894 30.0117 20.0332
49.3449 28.746 19.5331
52.1348 30.5686 20.4773
49.8155 28.886 19.6794
50.3914 29.8785 20.6613
50.6698 29.9255 20.5055
49.0223 28.3711 19.3721
49.4112 29.4554 20.5001
49.8606 29.7099 20.6484
49.3206 29.6042 20.7308
49.3725 29.9388 20.8184
49.9755 30.0292 21.4898
49.286 29.3876 20.8227
49.0512 29.6427 20.9248
48.3929 29.6111 21.0857
47.439 29.8825 21.4243
49.3878 30.5047 21.9464
47.1194 29.325 21.2559
47.2055 28.8985 21.2547
48.6439 30.2024 22.0621
45.929 29.0852 21.3065
46.9323 29.5459 21.9166
47.4194 29.9004 22.3201
48.3961 30.5018 22.3895
44.9873 29.1626 21.8205
44.8559 28.9369 22.1343
47.9099 30.8512 23.0524
45.1869 29.6158 22.6366
43.499 28.5605 21.9196
46.7016 30.4041 22.9567
44.5254 29.0545 22.5907
44.8129 29.6757 23.1381
44.4402 28.9469 22.4916
44.9079 29.9127 23.0256
43.3342 29.654 23.4076
44.9039 30.5511 24.1818
44.4802 30.0677 23.947
44.0927 30.2612 24.0705
43.3301 29.1768 23.0748
44.6362 30.7585 24.3755
42.7766 29.6678 23.9729
42.5713 29.4044 23.8151
42.0371 28.6435 23.3171
41.7697 29.4052 23.8127
42.0633 28.9058 23.7246
43.1311 30.0457 24.5568
42.2887 30.0603 24.9153
41.2184 28.9907 24.0379
40.9105 29.0612 24.2694
42.126 30.4093 25.1769
40.296 28.7971 24.2238
42.2591 29.8866 24.8986
41.0685 29.7674 25.3174
43.5399 31.2871 26.361
41.1476 30.3722 26.0181
41.3718 30.5189 26.1911
40.203 29.8361 25.6569
38.9053 28.683 24.8421
41.0824 30.5566 26.539
40.0498 29.8831 26.2233
38.7206 28.9357 25.4273
39.1188 29.3323 25.7737
38.9735 29.3859 25.8054
40.037 30.4483 27.0219
39.0129 29.5674 26.1439
37.8725 28.8636 25.9397
38.508 29.0454 25.9169
38.9861 29.8571 26.6516
37.9607 29.4846 26.7631
38.7585 30.2886 27.501
38.0199 29.354 27.1377
38.6066 30.1439 27.5977
39.3591 31.0684 28.626
38.54 30.165 27.4423
36.8956 29.3649 27.217
36.3881 28.911 27.1508
37.8049 30.6392 28.6102
36.947 29.3976 27.582
36.7052 29.2119 27.5814
36.6439 29.37 27.7387
37.9315 30.2708 28.3314
36.8736 30.187 28.6922
36.1794 30.2703 28.9555
35.6575 29.2366 28.229
35.6411 29.5506 28.549
36.7054 29.8757 28.944
36.4573 29.9731 28.9196
35.7326 29.3777 28.6191
35.4907 29.3407 28.5945
34.2498 28.9414 28.6706
34.4947 29.3277 29.1696
35.0173 29.3742 28.9812
34.4991 29.5711 29.4752
34.2865 30.2977 31.8955
46.778 40.9085 37.9146
34.2746 30.0098 30.4751
34.9973 30.2065 30.3372
33.6762 29.6515 30.3843
34.4419 30.0843 30.5537
34.472 30.0985 31.1669
34.6803 30.1033 30.6473
34.874 30.4602 30.8536
33.5679 29.3036 30.2038
33.2537 29.5226 30.728
34.063 30.8142 31.9338
32.4094 28.9006 30.1358
32.1776 28.9611 30.7345
33.3586 29.3462 30.3881
31.907 28.2608 29.96
33.0319 30.2842 31.9422
32.5701 29.3641 30.848
31.7844 29.3863 31.6495
32.7559 30.2373 32.2712
32.0913 29.9952 32.3919
31.4081 29.1711 31.2257
31.0545 28.9814 31.7049
31.3672 29.0309 31.7484
31.3155 29.1964 31.6594
31.572 29.7629 32.3428
32.4723 30.3717 33.1391
31.1163 28.6834 31.2928
31.068 29.8252 32.8508
30.824 28.8067 31.5306
30.4583 29.4134 32.9203
29.8105 28.718 32.1599
30.6288 29.3353 33.2072
30.3154 29.1603 32.78
29.2632 27.8365 31.2526
30.4435 30.2028 34.0948
29.5951 28.4019 32.3562
30.3516 29.294 33.4854
29.396 28.6314 32.4355
29.4011 28.651 32.8723
29.1802 29.2435 33.8186
29.0126 28.4182 32.7366
29.7805 29.6632 34.4297
29.0856 28.793 33.526
29.4516 29.3943 34.2907
29.4464 29.4443 34.4954
28.8297 28.8887 34.0309
28.7908 28.8481 33.809
28.9058 29.5975 35.0863
28.6271 28.7786 34.5064
28.9476 29.5719 35.0145
29.0193 28.8574 34.2595
29.119 29.9028 35.6671
28.5407 29.347 35.5169
28.0001 28.5563 34.6521
28.0222 28.8967 34.8527
28.522 29.7443 36.1446
28.0145 29.1547 35.3986
27.2122 28.8801 36.0407
27.6944 28.3655 34.6593
27.1614 28.4289 34.8958
27.4404 28.5586 34.8386
27.5843 29.1473 36.2923
27.2425 28.2739 34.9906
27.1361 28.8247 36.4062
27.9621 29.5774 36.6654
26.696 28.6338 36.1023
26.0054 27.4316 34.6569
26.2473 28.2572 35.6356
27.2411 29.0619 36.3398
26.0876 29.2404 37.4438
26.4745 28.6767 36.934
26.6892 29.2234 37.3047
26.2696 28.0965 35.742
26.4316 29.1564 37.8755
26.8312 29.1644 37.3206
25.9872 28.283 36.7078
25.3322 27.7967 36.4862
25.5292 28.5289 36.9538
25.0842 27.8897 36.6413
25.748 29.1147 38.0158
25.6555 28.8971 37.8937
24.8943 28.0179 37.2005
25.54 28.9122 38.2864
25.519 29.0211 38.0922
24.8695 28.2579 37.8232
24.2742 27.5547 36.8153
24.0257 27.6228 37.6864
25.1066 28.8668 38.7939
24.7168 28.2324 37.573
24.5557 28.735 39.4437
24.9474 28.3728 38.3778
24.5009 28.0475 38.1017
24.9794 29.1452 39.5502
24.7428 29.5188 40.5773
24.5754 29.0069 40.4863
24.1981 29.042 43.4825
34.1857 40.3596 50.1497
23.6116 28.492 40.3239
24.3583 28.4422 39.524
23.4503 27.8619 39.178
24.3707 29.0345 41.0908
24.1072 28.4491 39.6104
23.7105 28.2049 39.1114
23.0584 27.9787 39.8545
23.2846 27.7981 39.6374
23.3457 28.6546 41.791
23.9176 27.91 38.7409
22.3887 27.7517 39.5283
23.5531 28.2399 40.0827
22.8289 28.1403 40.9812
23.59 28.6447 41.2553
23.1237 28.499 41.3454
22.7673 27.6378 39.4959
22.8704 27.8395 40.1156
22.3749 28.2386 41.5751
22.6126 27.7442 40.1545
22.261 27.7888 40.5095
22.6505 27.9866 41.0068
22.1671 27.4769 40.5791
21.4884 27.6864 41.7083
22.2222 27.2507 40.5294
22.2029 28.0336 41.4039
22.2325 27.7542 41.0996
22.0096 27.8491 41.523
21.5959 27.7071 41.7883
22.1046 28.1648 42.5149
21.6291 27.6073 41.6758
21.7601 27.3693 41.1194
21.7648 27.8912 41.8235
21.2547 27.7969 42.4866
21.4519 27.2074 41.748
21.3373 27.5416 42.2114
21.5163 27.8211 42.4218
21.0409 26.7702 41.3908
20.8975 27.5533 42.5282
21.2769 27.7758 42.3041
20.8663 27.4581 43.3986
21.1105 27.6375 43.1539
20.9224 27.7183 43.2101
20.6147 27.3958 42.9341
21.1707 27.7896 43.2144
20.4737 27.2801 43.324
20.975 27.1251 42.4303
20.5122 27.0397 42.6523
20.2568 27.5633 43.9294
20.6398 27.6468 43.9067
20.4082 27.5275 43.8052
20.6985 27.8915 44.7326
20.275 27.5353 44.0147
20.111 27.0555 43.7418
20.156 27.3871 43.7455
20.071 27.784 45.4777
19.9691 27.7769 44.8303
19.8333 27.1151 43.9514
19.9334 27.6889 44.6412
19.5234 26.7459 43.2876
19.0035 26.7088 43.8816
19.3501 27.2268 44.9353
19.215 26.5874 44.2551
19.285 26.9961 44.2559
19.9065 27.6635 45.6509
19.2539 26.7424 44.5042
19.7765 27.5453 45.0707
18.5545 25.8075 43.6077
19.3613 27.3065 44.9516
18.8921 27.3839 45.7918
18.7283 27.0595 45.7966
19.0666 26.8722 45.3833
19.1833 27.6468 46.2782
18.7812 26.6336 45.5126
18.7991 26.7518 45.1448
19.0045 27.5311 46.9389
18.7828 26.9251 46.0942
18.4218 26.6235 45.4828
18.3396 26.9719 46.8476
18.4599 26.642 45.9417
18.1708 26.2826 45.2133
18.3084 26.2033 44.8936
18.1096 26.5614 45.8836
18.4403 26.4301 45.2961
18.3168 26.9345 46.0581
17.7131 26.5768 47.1586
18.6957 27.3414 47.6691
18.2025 26.7484 47.6104
18.6662 27.5418 47.5154
17.8675 26.7857 46.729
17.5595 26.6207 47.7807
17.8051 26.3313 46.434
17.5245 26.5358 47.3941
17.6073 26.5109 46.6439
17.5683 26.2313 46.5312
17.5229 27.5589 56.1014
24.327 35.6146 56.4135
17.9126 27.0297 48.4255
17.3482 25.7308 45.3617
16.7394 25.8328 47.1086
16.7128 25.3904 45.8882
16.9693 25.7977 47.6375
17.3076 26.085 47.6425
17.2858 26.691 48.2634
17.1927 26.507 48.157
17.0826 25.863 47.5379
17.0238 26.3144 48.1225
17.1437 26.6576 49.1727
17.2237 26.7776 49.9929
17.5316 26.6271 49.0434
17.6986 27.0571 49.2677
16.9957 26.0216 48.2094
16.8588 25.7971 47.5328
16.8487 26.3304 48.9448
16.7198 26.4908 48.9915
16.1646 25.8167 48.9614
16.2752 25.6007 48.1025
16.4938 25.8296 48.869
16.1024 25.0942 47.6463
16.3544 25.8095 48.1108
15.8086 25.0187 47.4568
16.0934 25.1991 48.4075
15.7851 25.3317 48.2138
15.9042 25.2553 48.616
16.0614 25.9959 50.5536
16.2213 25.656 48.3472
16.0149 26.097 50.2684
15.7351 25.3472 48.6483
15.3435 25.4218 50.2521
16.1651 26.7206 51.1804
15.759 25.5377 49.0618
15.4003 25.611 49.228
15.1273 25.404 50.5407
15.4145 24.7851 47.9937
15.4944 25.3027 50.043
15.9741 25.0898 48.3132
15.3039 25.4763 49.9555
14.8683 24.6908 48.6431
15.0361 24.5963 49.1705
15.4727 25.2793 49.0257
15.2127 24.8541 49.2096
14.7498 24.7758 49.5232
15.2717 25.2765 50.2874
14.8754 24.8102 51.288
15.6545 25.6912 50.3674
15.0901 25.4813 50.3547
14.9559 24.894 50.1217
14.8808 24.9648 50.0712
14.8123 25.2526 50.5491
14.6014 24.8798 50.4697
14.5207 24.9306 52.0088
15.3394 25.4446 50.1704
14.5239 24.6788 49.9874
14.63 25.5085 52.7227
14.8484 25.6543 53.2242
14.5962 24.5458 49.7278
14.6422 24.4974 49.7881
14.7 25.4719 51.8526
14.5021 24.5146 49.7759
13.8714 23.6166 49.7183
14.2679 24.3095 49.108
13.8832 24.2354 51.444
14.3434 24.7352 51.1967
14.0158 25.1286 53.1479
14.4274 24.8481 50.9113
13.4682 23.6986 50.2167
13.9267 23.961 50.5727
14.2035 24.9462 51.8785
13.8123 23.6184 49.6203
13.7511 23.8664 50.1699
13.899 24.3174 51.5445
13.6195 24.5815 52.2251
13.9832 23.9787 51.2142
13.5942 24.2336 50.9933
13.9186 24.2589 50.8608
13.2821 24.2692 53.3436
13.9139 24.7145 53.3139
13.9614 24.3572 51.7466
13.8035 24.6019 53.0591
13.9899 24.8564 53.4442
13.9976 24.9065 53.2251
13.4285 24.2992 51.794
13.3163 24.3896 54.4476
13.8532 23.8893 51.5782
13.566 25.552 55.3148
13.3818 23.9479 52.1592
13.3892 24.4484 53.021
13.3576 24.747 53.7166
12.9028 23.4833 52.5373
12.9126 23.5585 52.198
13.1319 23.4518 51.3711
13.0622 25.471 65.8169
17.9339 31.4678 58.5003
12.7457 24.2351 54.0071
13.2915 24.6436 54.6213
13.3101 24.1516 53.73
12.9273 23.8168 53.4509
13.1864 23.9918 53.6846
12.8116 23.5847 52.0152
12.3667 23.0297 51.9952
12.8154 24.0889 55.3728
13.005 23.3163 51.812
13.1602 24.8333 54.4235
12.457 23.2908 52.4207
12.5493 23.6158 53.8049
12.4603 23.1088 52.6725
12.8274 23.6501 53.643
12.7785 23.818 53.9474
12.6485 23.9603 54.8085
12.6698 23.754 53.866
12.4137 23.5258 53.3274
12.1316 23.4318 52.977
12.0845 22.753 52.2817
12.0711 23.3998 54.0129
12.2136 23.0193 54.1544
12.6378 23.4055 53.2164
11.963 23.1636 54.2245
12.4607 23.0442 53.6963
12.0611 23.1211 53.5523
12.0865 23.7426 55.0501
12.312 23.4701 55.1657
12.246 23.167 53.5303
11.8915 23.1959 54.1323
12.2137 23.2472 54.6067
12.0856 23.1623 53.0089
11.3655 22.3551 54.5164
12.0185 23.3235 54.6945
11.8108 22.759 53.9757
12.5314 24.4547 56.5289
11.7979 22.5213 53.7531
11.6377 23.0246 55.6676
11.7858 22.7995 54.5226
12.1507 23.9503 56.2256
12.0564 23.2816 54.1488
11.3629 22.4963 53.8995
11.5877 22.7489 54.8129
11.6485 23.2044 54.922
11.5543 22.9681 55.1439
11.4948 23.0872 55.5969
11.4517 22.8873 55.9605
11.4312 22.7379 55.565
11.5824 23.136 55.8269
11.5722 22.4853 54.1198
11.4537 22.6368 54.576
10.9728 21.6689 53.4086
11.2551 22.2729 54.5925
11.4054 22.5889 54.7946
11.0214 22.6904 56.0291
11.5242 23.1944 56.6688
11.2942 21.9094 53.3745
11.2268 22.5498 55.4643
11.3618 23.0441 56.9209
11.4703 23.2515 56.758
10.9657 22.0641 55.4976
10.9243 21.9621 54.6517
11.0621 22.4408 55.5029
10.9925 22.528 56.5406
11.3766 22.4578 55.151
11.1135 23.7443 58.2773
10.8893 22.273 56.6107
11.1622 22.6629 56.153
11.1572 22.6201 56.7419
10.7718 22.224 55.5063
10.8434 22.0892 56.614
11.1336 22.1958 56.2392
11.0039 22.8181 56.9166
10.845 22.2497 55.4219
10.6168 22.0797 56.2439
10.6125 22.2833 57.8686
11.0735 21.951 54.072
10.6032 22.4878 56.9401
10.8414 22.6192 57.4011
10.9533 22.7427 57.6626
10.7993 22.2132 56.1207
10.4195 21.2651 55.1978
11.0688 23.3945 58.6327
10.5207 21.8035 56.1274
10.3422 21.8531 55.6132
10.514 22.2258 57.9862
10.5747 22.1146 56.8038
10.3537 21.7077 56.8475
10.4839 21.9729 57.191
10.5657 22.1516 56.5824
10.5234 22.2725 58.2927
10.4496 21.9668 57.9421
10.6092 21.9794 57.9743
10.3607 22.6526 59.8697
10.6688 24.4959 75.2345
14.5883 30.1596 66.3828
10.5057 23.3351 60.4739
10.3327 23.0468 60.8743
10.5956 23.4426 61.6066
10.5838 22.7794 59.2141
10.3186 22.5026 59.5327
10.3238 21.8442 57.0213
10.1875 22.4158 60.1627
10.3676 22.2707 59.595
10.3829 21.817 58.1407
10.1934 22.0256 59.1201
10.2441 22.3461 59.1667
10.1224 22.1093 58.6689
10.0773 21.9992 58.4809
9.88036 20.7635 55.0551
9.84032 21.2961 57.2857
9.80774 22.1094 59.1782
9.9675 21.8986 59.7737
9.96594 21.0597 57.1064
9.99491 21.2532 56.61
9.53209 21.4112 57.3842
9.79524 20.991 58.29
9.86117 21.7813 59.4987
9.8941 21.2118 56.717
9.88879 21.5784 58.1338
9.59537 21.2128 58.4589
9.77354 21.1176 57.1776
9.6417 20.639 55.9208
9.55347 21.3714 58.5913
9.66929 21.5665 58.4537
9.59993 21.3951 58.6633
9.57246 21.7655 60.38
9.61296 20.338 56.098
9.45232 20.8634 58.0195
9.59465 21.513 58.5883
9.12528 20.7539 58.2018
9.51567 20.7426 56.9342
9.58801 21.8311 59.632
9.37779 21.506 60.1352
9.60498 21.1237 58.1377
9.50654 21.7792 60.6586
9.78583 21.8253 59.8141
9.26067 20.2831 56.9495
9.34127 21.4678 59.9612
9.21671 21.0336 59.5099
9.33517 20.7801 56.8206
9.24614 21.2223 59.5052
9.24799 20.9175 58.643
8.9192 20.8125 59.8123
9.33765 20.7171 58.4134
9.11587 21.2882 59.5688
9.29827 20.9081 59.8613
9.31917 21.0119 59.2128
9.10781 21.511 59.0602
8.95753 20.6237 58.6253
8.73352 19.7937 56.2928
8.9203 20.3926 58.4547
8.97408 20.7712 59.9041
9.06871 20.6243 58.6111
9.0204 20.5886 59.023
9.07193 20.9768 59.6019
8.9331 20.2199 59.0438
9.05305 20.7355 59.3239
9.09657 20.5916 58.6412
8.83285 20.2441 58.8499
9.00255 20.8244 59.924
8.80738 20.5652 59.015
8.92031 20.7197 58.6083
8.6822 20.8012 60.7675
8.93854 20.5382 58.2668
8.60331 20.1227 57.9072
8.48615 20.4097 59.7164
8.75923 19.9474 59.0263
8.91794 20.8469 59.0831
8.5034 20.1867 59.7059
8.77765 20.642 59.2376
8.59827 19.9806 58.0219
8.52314 20.3972 60.0533
8.78079 20.7782 59.6756
8.3726 20.065 61.0459
8.82304 19.8131 58.2205
8.4873 20.5201 59.8004
8.61293 20.4886 59.3319
8.38908 19.9459 60.4788
8.60406 20.9398 61.7503
8.68929 20.5166 60.3596
8.54733 20.3297 59.6153
8.29402 19.9164 59.7736
8.37354 19.8241 58.5628
8.35632 19.9482 61.1964
8.80404 20.295 60.2814
8.5347 20.1382 58.4871
8.0962 19.5827 60.125
8.52949 19.5724 58.3377
8.34286 20.5148 62.0347
8.54201 22.6178 84.3036
11.9559 27.717 65.2401
8.27373 20.0661 61.5266
8.5071 20.7708 61.2239
8.24838 20.0835 60.7491
8.32827 19.8926 60.288
8.42334 20.5171 60.2192
8.22433 19.9776 59.5493
8.19766 19.4203 59.1602
8.14139 19.8421 60.7379
8.18595 19.8732 59.8122
8.12761 19.8154 60.1948
8.04493 20.0505 60.6038
8.17402 19.9616 60.7886
7.94797 19.3969 60.0252
7.89454 19.4241 59.608
7.96049 19.9675 60.639
8.0675 19.5796 60.4598
8.31606 20.2121 59.8277
7.81364 19.622 62.0281
8.31427 20.1573 60.4902
8.07114 19.8461 62.3081
8.22262 20.1187 59.1015
7.6399 18.7473 59.5166
7.7768 18.7549 58.1441
7.85466 19.5136 62.1056
8.10893 19.5621 58.9633
7.85812 19.499 60.1567
7.85945 19.3619 58.2257
7.66255 19.7238 61.6676
7.89329 19.7537 61.8915
7.90123 18.581 57.6002
7.64163 18.9326 60.8383
7.7854 19.6172 60.457
7.8558 19.8948 62.7824
7.77622 19.441 61.5593
7.8571 20.117 63.0752
7.93195 19.5763 60.3267
7.71656 19.1425 59.7087
7.7265 19.6943 62.396
7.955 19.5083 60.3369
7.74437 19.6983 62.5841
7.95731 19.4257 61.4564
7.83377 19.3631 61.0847
7.82256 19.9771 62.1706
7.68014 18.8739 60.8728
7.77813 19.355 60.201
7.64885 19.0667 61.6706
7.73774 18.9634 59.6686
7.65051 19.2862 61.655
7.7127 19.8732 61.6815
7.62413 19.0565 60.8633
7.58023 18.6638 60.8999
7.64623 18.8932 60.269
7.6443 18.7331 59.3508
7.59203 19.3319 60.6569
7.55309 19.3166 61.0646
7.47145 19.2082 61.6331
7.42499 18.813 60.4127
7.5322 19.4653 63.1926
7.64921 18.9815 61.2373
7.5958 19.1257 61.3637
7.31738 19.0926 61.975
7.65971 18.9481 59.9647
7.38634 18.943 62.3026
7.62814 19.4609 63.3316
7.5075 19.7288 64.5957
7.70873 19.4588 61.7329
7.45144 18.9282 61.7759
7.5605 18.4157 60.809
7.47426 19.3054 62.4247
7.38951 19.0339 63.3936
7.72982 19.8011 62.171
7.31484 18.8537 62.5812
7.4081 18.9381 62.1721
7.56909 19.5234 62.8172
7.367 18.3975 61.2751
7.24848 18.5799 61.7231
7.46495 19.0772 61.3088
7.12419 18.5815 61.3372
7.12767 18.8088 59.9459
7.06194 18.3769 60.7777
7.25531 18.6242 60.795
7.16392 18.6118 62.8788
7.43063 19.6682 63.7914
7.26539 19.0633 63.7101
7.45938 19.6494 61.7514
6.89454 18.4428 61.1109
7.04876 18.7236 63.31
7.41384 19.0539 63.1514
7.30011 18.8048 62.0694
7.14531 18.8734 62.0174
7.18463 18.5883 62.7135
7.30493 18.9139 61.1325
6.96953 18.3374 62.1071
7.07488 19.4585 65.2715
7.26592 20.5838 87.4026
10.182 25.1024 65.8999
7.16365 19.3763 62.3607
6.95517 18.5363 60.9132
6.77273 17.6819 59.2923
6.83339 18.8626 63.9472
7.00679 17.847 59.6897
7.03784 19.1332 63.8233
6.96553 18.1479 60.949
6.87755 18.669 63.5545
7.0055 17.8302 60.2927
6.74728 18.3051 61.5057
6.87008 18.1639 62.3286
7.10385 19.0311 63.5505
7.06798 18.3236 61.1566
6.99655 18.9425 63.7899
6.98851 18.3014 62.0094
6.97669 19.0065 64.5146
7.0235 18.8437 64.31
7.04211 18.2239 63.2653
7.01543 18.4236 63.5414
7.14801 18.7688 63.0343
6.78426 18.1891 62.8658
6.89129 18.512 63.0802
6.93688 18.1108 61.1477
6.75277 18.0684 63.0793
6.98711 18.7403 62.4678
6.77626 18.5481 63.0328
6.78093 18.2279 62.1628
6.82125 17.9605 62.1373
6.69405 18.5011 61.8272
6.63229 17.99 62.416
6.79615 18.1417 62.6391
6.70473 18.6485 63.1942
6.72109 18.2041 64.4276
7.08779 18.105 61.0851
6.50601 17.673 62.2025
6.54923 17.7733 61.6745
6.78573 18.3981 64.9493
6.95693 18.1534 59.915
6.52055 18.4311 63.9976
6.802 18.5191 62.1199
6.68753 17.3038 61.8333
6.52374 17.2897 61.2426
6.69989 17.6309 61.4563
6.58448 18.1535 63.1202
6.64 17.8378 60.5866
6.5083 18.4211 62.8558
6.65467 18.3694 63.1115
6.45079 17.5384 62.3561
6.63486 18.0515 62.14
6.58563 17.459 61.5638
6.52769 17.914 62.4266
6.54866 17.8796 62.0289
6.62273 18.2759 63.5708
6.44042 17.6035 62.0983
6.54298 18.0602 62.8111
6.55953 17.9734 64.0054
6.57711 18.2038 64.1481
6.64473 18.1014 63.3871
6.60101 18.2842 63.9735
6.60628 18.1781 63.1493
6.44466 18.0654 64.2478
6.57847 17.7199 62.9819
6.46921 17.4375 60.9003
6.36517 18.0767 64.7387
6.53279 17.5302 61.7703
6.44412 17.4855 60.7916
6.31907 17.1705 61.1814
6.45886 17.2462 62.6348
6.43744 18.1024 64.2677
6.43289 18.0351 62.7133
6.40608 18.0205 63.5885
6.38403 18.1679 64.5405
6.45902 17.3453 61.1897
6.36263 17.8195 64.4698
6.61063 17.6221 60.4676
6.27666 17.5074 63.5538
6.46949 17.4761 61.9946
6.22554 17.7573 63.517
6.41162 17.6238 62.2109
6.12899 17.126 62.5791
6.50978 18.0554 65.8525
6.52189 18.4649 64.4517
6.40721 18.1598 65.2008
6.35209 17.5309 63.0952
6.38303 17.4882 64.0077
6.53499 18.6462 67.4509
6.56486 18.1617 64.8998
6.47016 18.3521 66.1602
6.54708 18.264 65.0767
6.54614 18.1978 65.2001
6.38318 17.8043 65.5987
6.48011 18.2291 64.1048
6.29539 18.2844 66.4305
6.58182 18.639 67.8246
6.5469 20.5013 90.48
8.48091 22.5494 68.3457
6.6391 19.1582 68.067
6.53043 18.2927 66.2169
6.43221 18.6946 66.1532
6.36796 17.743 65.3634
6.46731 17.5877 63.5279
6.2707 17.8302 63.9365
6.18125 17.7696 65.5295
6.407 18.1814 63.9715
6.28185 17.3926 63.5855
6.22108 17.7882 64.5179
6.23856 16.9982 61.8723
6.14673 18.2095 65.2712
6.30566 17.7845 64.3421
6.13965 17.4162 64.9346
6.31302 17.534 64.0313
6.28461 17.9553 63.8071
5.99026 17.0106 63.7499
6.16927 17.2331 63.0039
6.09799 17.1991 63.2901
6.281 17.2506 62.7918
6.15808 17.4399 65.1355
6.24579 17.0938 62.2285
6.15573 17.8006 62.3746
5.90614 17.0008 64.3599
6.13608 17.5448 61.8847
5.85577 17.2624 64.341
6.07902 17.1231 63.9509
6.10085 17.0289 62.1153
6.07113 17.5373 63.7065
5.96943 17.3555 63.9911
5.90158 16.962 63.9568
6.11005 17.3625 63.8557
6.07105 17.4563 64.498
6.08569 16.8867 62.0032
5.86695 17.3637 63.6714
6.14708 17.2531 64.8359
6.15083 16.9036 63.6651
6.09031 17.2275 62.4733
5.9394 16.886 62.4606
5.94974 17.3773 66.016
6.15717 16.7826 62.4586
5.95928 17.0756 63.1415
6.02534 16.7299 61.8807
5.98291 17.4277 62.1532
5.80513 16.6734 63.9177
6.08006 17.4071 65.9647
6.0361 17.3745 63.7758
5.94957 17.3138 63.8918
6.00969 17.2021 65.5007
6.10096 17.9884 64.5839
5.94557 16.9449 64.6416
6.13902 17.4254 63.0647
5.86547 17.5346 66.2226
6.02102 16.7362 62.9469
5.86996 16.886 64.0163
5.84252 16.629 61.4865
5.70851 16.842 64.3478
5.88753 17.2091 63.241
5.83819 16.6635 62.1603
5.78825 16.9134 62.5152
5.77019 16.5434 63.5396
5.81812 17.1169 63.5847
5.85384 17.207 64.2757
5.83133 16.7074 62.4663
5.72345 16.9607 61.9348
5.62317 16.7897 65.3234
5.97747 17.0068 63.8449
5.83894 16.3257 62.3499
5.72962 16.8211 62.8556
5.8114 16.8347 63.4844
5.73053 16.4448 64.0081
5.85975 16.7745 64.6621
5.90881 16.8875 63.3769
5.85821 16.9833 64.2409
5.82595 17.081 64.9634
5.84842 17.0168 64.73
5.7986 17.2423 64.3603
5.75327 16.519 62.07
5.76262 17.0399 63.0021
5.64062 16.4352 62.8926
5.66518 16.5557 64.893
5.79544 16.7035 62.172
5.64642 16.6593 62.6649
5.6474 16.2917 64.4081
5.6929 17.0718 63.5233
5.75894 16.4392 62.772
5.78435 16.6244 63.446
5.80057 16.5912 64.2429
5.70381 16.6252 62.0695
5.49564 16.3457 62.73
5.75549 16.655 64.5123
5.76841 16.6938 63.5934
5.73927 16.6663 62.927
5.66585 16.6122 62.8834
5.65748 19.3645 94.5106
7.92727 21.32 65.8915
5.83205 17.2604 63.6139
5.61323 16.5627 63.0162
5.61189 16.547 63.5673
5.55858 16.9563 64.325
5.637 16.5639 63.0493
5.63267 16.722 63.872
5.60422 17.0475 65.2581
5.5975 16.3837 63.9705
5.5607 16.4186 61.9325
5.58044 15.886 62.1377
5.54144 16.9 63.7332
5.65331 17.2024 64.0242
5.54703 16.2889 66.2617
5.75647 17.2119 63.7959
5.60702 17.0728 65.9475
5.77403 16.7401 63.2851
5.58716 16.6413 64.3956
5.68058 16.1332 64.7289
5.68461 17.0575 65.803
5.72531 16.9785 63.9893
5.58508 16.1685 63.5156
5.57269 16.8955 64.1746
5.46341 16.1175 63.2298
5.58238 16.2589 62.7226
5.60949 16.5021 62.6463
5.47231 16.4437 64.6091
5.78825 16.4606 62.7245
5.59934 16.3799 64.3187
5.66439 16.5441 63.7351
5.60008 16.1702 62.7111
5.40516 16.2019 61.8229
5.34062 16.2886 65.6066
5.76902 16.539 62.109
5.46765 16.7161 65.4281
5.63432 16.3044 64.2281
5.58235 16.4124 62.6809
5.4016 16.3048 63.3904
5.59436 16.4071 63.5676
5.38761 16.6366 64.3557
5.50575 16.1933 64.2803
5.54599 16.5872 65.0955
5.64261 16.6496 64.1792
5.51356 16.7548 64.1003
5.50029 16.9496 65.9642
5.65834 15.5522 61.6648
5.38781 16.419 62.3028
5.38772 16.5854 65.2947
5.55959 16.2121 63.9985
5.4725 16.6212 65.8288
5.60918 16.3187 62.9196
5.35719 16.2038 62.082
5.38855 15.9239 63.0138
5.41878 16.346 62.3196
5.40435 16.3341 64.1372
5.43285 16.3362 63.126
5.48611 16.0287 64.3329
5.57731 16.9711 66.0884
5.65451 16.1323 63.2811
5.58723 16.5609 65.6384
5.55421 16.5071 64.7164
5.60353 16.4051 64.087
5.49374 16.9861 65.6891
5.62639 16.3253 63.2951
5.50733 16.343 66.1858
5.5615 17.2225 65.5437
5.45969 16.5506 64.7899
5.50405 16.3309 64.3206
5.43405 16.6408 65.3884
5.55313 16.0444 63.9381
5.52996 16.4955 64.0798
5.42326 16.7023 63.5621
5.47246 16.4947 63.5107
5.34761 16.2746 65.677
5.52899 16.2422 63.7409
5.54997 16.2677 62.7441
5.29207 16.1305 63.9479
5.46458 16.7277 65.8484
5.65818 16.5974 63.1672
5.26632 15.8125 64.1092
5.40086 15.7793 62.4181
5.30615 16.2046 62.7694
5.3397 16.0465 64.6807
5.48133 16.5494 63.4553
5.37626 15.797 64.3822
5.46655 16.2984 66.4509
5.5214 16.6061 64.4107
5.41217 16.2686 65.0072
5.38013 15.9336 62.0926
5.15587 16.4419 64.8631
5.41817 16.1126 62.4626
5.26664 16.3126 63.3422
5.37018 16.0598 63.9179
5.35337 16.2829 64.2835
5.45371 16.8016 64.5497
5.48517 18.335 93.2225
7.4073 19.7565 66.0216
5.50016 17.0703 64.244
5.4215 16.5764 62.7898
5.22462 16.0449 64.6129
5.54647 16.6479 67.0162
5.56093 16.6157 64.0055
5.40117 16.1409 64.7007
5.31365 16.1552 63.1478
5.3087 15.785 63.2013
5.38284 16.4237 64.3715
5.50843 16.2966 65.0416
5.41922 16.199 64.8835
5.47597 16.5268 65.8606
5.48212 16.9725 65.6988
5.42235 15.8426 62.8368
5.29865 16.3438 64.4193
5.35451 16.539 65.4016
5.46376 16.1082 64.0755
5.31479 16.3724 66.8363
5.52956 16.1432 65.0115
5.36548 16.1919 64.7643
5.36125 16.0452 63.5258
5.43126 16.1497 61.661
5.22992 15.8134 62.8578
5.27776 16.4308 67.0414
5.48087 16.8817 64.7055
5.31143 15.7082 61.8325
5.17536 16.2809 64.8902
5.37655 16.1867 64.0217
5.32825 16.5591 67.5166
5.47563 16.3551 66.153
5.47289 15.968 65.0439
5.22772 16.9039 62.6972
5.22138 15.5987 62.4412
5.0419 15.337 63.5023
5.3503 16.4374 64.8253
5.42496 16.0442 62.7609
5.2505 16.1478 66.136
5.42548 16.3142 64.049
5.26596 16.3764 66.6182
5.34243 16.8133 65.4134
5.47099 16.1222 63.423
5.3494 15.9068 64.2189
5.35169 16.0865 64.1185
5.23076 15.9077 63.539
5.36383 16.4746 65.7218
5.37773 16.2185 64.1736
5.31133 16.2212 64.5964
5.28284 16.18 65.687
5.42456 16.4975 64.4853
5.1814 16.0965 62.6936
5.27094 15.7722 64.2607
5.27366 15.9692 62.7526
5.2347 16.0853 63.8804
5.28386 16.057 61.6008
5.19685 15.7824 64.2004
5.30631 15.846 63.8936
5.18486 16.2453 66.3845
5.45022 16.0118 64.984
5.3294 16.3175 65.517
5.4072 16.3026 65.4064
5.30662 15.8476 63.0406
5.31938 15.8421 62.1831
5.20231 15.8814 61.3278
5.18759 15.5264 64.2796
5.29881 15.58 63.6532
5.28314 16.1759 63.3674
5.31557 16.1859 64.89
5.37796 16.4931 66.3494
5.35669 16.1068 62.3837
5.233 16.0817 63.9345
5.24278 16.5248 66.0907
5.42979 16.1569 65.6793
5.33402 16.3448 67.6022
5.45546 16.3393 64.6418
5.32692 16.0959 64.8237
5.28864 16.4854 62.4923
5.15779 15.8609 63.7377
5.38028 16.3193 63.7273
5.31013 16.4861 65.5817
5.26453 16.6263 66.6529
5.44672 16.0425 63.8805
5.23263 16.1099 65.6959
5.49402 15.9692 64.2387
5.30704 16.8967 66.8951
5.45871 16.7749 65.6779
5.44062 16.411 66.2137
5.39867 16.6365 65.846
5.39271 16.7078 64.7605
5.34348 15.8799 65.8421
5.3833 16.4044 66.2933
5.42346 16.6722 67.4677
5.48941 16.8708 66.3684
5.46171 17.4621 69.2756
5.57863 17.9807 69.1149
5.673 19.7765 100.422
7.59673 0 0