# pn-170911/RbII-17-RbIIR-1280-1959.psd
# Power spectrum* (dif=0,1,2) (really just |FT|^2)
# NOTE: only the first half! (symmetric)
# weeks: 1280-1959
# 158 clock-days, 61 excluded
# PSD: 1441
9071.77 0.386497 0.0187053
294436 4.33645 0.0100245
1.72416e+06 37.8589 0.00942109
228012 7.82472 0.00987875
188226 12.628 0.0101444
76238.4 7.36399 0.0109403
68988.2 8.5029 0.0124459
46869.8 8.35669 0.0113679
51471.8 13.3532 0.0151687
34092.5 10.7722 0.0149969
26354.7 10.0203 0.0134609
24952.7 11.6365 0.0171386
19020.9 11.3419 0.0191426
16904.6 10.5049 0.0209638
13638.5 10.5758 0.0201073
11636.5 10.2726 0.0214619
8657.63 8.68494 0.0189365
8438.91 9.49088 0.0228488
6723.84 8.62766 0.0255741
6262.85 8.43869 0.024794
4617.57 7.67169 0.0258413
5011.89 8.44077 0.0282905
5566.56 9.88503 0.0313652
4312.71 8.21426 0.0298095
3643.23 7.41502 0.0286701
3221.4 7.65483 0.0297395
4011.68 10.4265 0.0406588
2852.74 7.79688 0.0374744
2914.61 9.46621 0.0453587
3195.45 9.50696 0.0465027
2509.74 8.552 0.0440538
2538.24 8.83736 0.0500808
2626.68 9.87841 0.0570362
2421.48 9.65553 0.0612868
2025.2 8.9373 0.0604761
1997.13 8.84833 0.0604547
1693.74 8.2565 0.0626029
1640.58 9.29122 0.0651227
1741.91 10.6334 0.0802551
1567.74 9.05471 0.0730228
1404.37 8.11609 0.0694622
1637.7 10.3418 0.0882613
1447.42 10.2887 0.097802
1063.18 8.02447 0.0821737
1279.78 9.81542 0.099681
1081.7 8.77734 0.0978369
1129.87 8.66483 0.0953275
1165.01 10.0607 0.121756
1147.55 10.8354 0.134785
947.921 9.34554 0.123529
933.121 8.90512 0.113604
1006.52 9.62355 0.133972
869.983 9.60723 0.134836
854.064 9.65643 0.136651
877.633 10.5072 0.15598
811.092 9.30524 0.142189
816.929 9.47679 0.149987
728.844 8.40467 0.144922
850.158 11.8029 0.198751
675.632 9.60501 0.175435
702.875 10.896 0.185487
725.693 9.88373 0.170039
694.969 9.61554 0.177931
660.432 10.467 0.21048
721.929 11.8844 0.242363
639.816 10.9907 0.235195
613.662 10.3044 0.217577
692.747 12.5339 0.284239
543.645 10.0633 0.227049
579.294 10.3267 0.245641
610.621 11.7679 0.283748
593.27 11.8547 0.296113
517.217 11.1383 0.294575
542.344 11.4223 0.299308
472.156 10.3457 0.278246
499.402 11.5235 0.309282
504.343 12.2289 0.362654
545.192 11.4861 0.346608
401.927 9.92994 0.300244
494.844 12.2205 0.371936
471.945 11.7958 0.373265
411.533 11.5094 0.351685
459.8 12.76 0.419718
460.546 12.0527 0.417954
439.493 12.0299 0.408287
477.149 13.1641 0.465064
456.727 13.9133 0.506172
421.981 13.9456 0.50704
340.838 10.5385 0.394176
412.454 13.2539 0.523643
404.336 13.4871 0.537138
340.741 11.6768 0.451605
409.433 13.6762 0.542867
342.909 11.8064 0.473284
336.013 12.0571 0.520683
421.171 15.6952 0.690327
378.086 14.1601 0.61986
361.104 13.9657 0.602789
375.298 15.5611 0.727808
381.86 14.6417 0.681803
380.641 15.4564 0.74411
306.277 13.0374 0.654981
320.645 13.8059 0.699368
294.889 13.1378 0.643368
331.528 14.8923 0.768874
290.142 13.9217 0.742212
294.835 13.4742 0.71235
310.991 14.6419 0.804347
268.941 12.8088 0.731607
299.543 13.7933 0.808478
318.646 15.5378 0.881206
305.259 15.1622 0.934287
288.35 14.5423 0.853428
302.681 15.8573 0.969591
256.729 13.5025 0.851041
263.468 13.9549 0.895148
306.419 16.9561 1.1038
259.293 14.8883 0.964362
272.077 15.8359 1.06713
239.281 14.4544 1.00743
244.588 14.1111 0.976
293.697 17.101 1.19926
245.037 15.0452 1.07625
244.714 14.8596 1.12239
261.078 16.8475 1.2183
242.333 15.5609 1.173
238.109 14.7296 1.1011
234.218 15.6188 1.1928
244.733 15.9796 1.23134
200.332 15.6329 1.23526
203.343 14.702 1.16796
244.255 17.3962 1.44719
191.049 14.9962 1.2485
203.86 14.9859 1.2593
198.148 15.1532 1.29986
205.609 16.2671 1.41083
205.84 15.5248 1.36076
211.853 16.6529 1.49473
201.822 16.6376 1.50006
193.189 15.6284 1.41848
192.837 15.6046 1.45184
191.129 17.2081 1.62163
193.685 16.2124 1.56784
179.213 14.6529 1.4309
192.441 17.4819 1.71208
210.031 17.907 1.73885
188.801 17.6944 1.8005
192.37 17.2957 1.82354
180.632 15.8851 1.65747
181.583 15.9174 1.64703
180.723 17.5384 1.8605
172.212 16.1905 1.77708
172.865 16.8153 1.81812
185.715 19.206 2.13122
172.625 17.2972 2.01886
171.393 17.9186 1.98497
184.688 18.1318 2.08022
160.892 16.1795 1.90489
174.656 18.5212 2.14446
147.885 15.8461 1.89177
134.191 14.3159 1.74399
168.736 17.1144 2.11725
163.49 17.1869 2.09452
144.035 17.2554 2.22591
152.672 16.2692 2.09399
149.66 16.4279 2.12939
177.136 20.6772 2.63487
147.108 16.4916 2.2313
148.898 17.132 2.32851
153.22 17.0852 2.27841
134.605 16.7707 2.26444
133.341 17.459 2.48095
134.686 16.5106 2.29593
144.459 18.568 2.68584
139.882 17.6775 2.5339
129.32 17.2708 2.5299
151.221 18.4497 2.67345
126.959 17.2285 2.51637
147.56 18.8397 2.74869
119.997 16.9971 2.62313
120.488 17.0032 2.51134
142.079 19.6521 3.09754
121.344 15.6643 2.44187
142.374 20.7991 3.26822
125.554 17.554 2.8211
124.694 17.5626 2.82489
118.844 17.8496 2.82279
123.55 19.5857 3.26699
111.26 16.839 2.88533
123.223 18.6568 3.10433
110.445 15.8555 2.74925
116.609 17.5866 3.0057
117.679 17.826 3.1041
108.469 17.2024 2.99976
123.331 17.8745 3.18832
128.488 19.6767 3.47115
93.9272 14.2202 2.53602
107.323 16.5766 3.04268
113.125 17.7545 3.23845
121.64 19.5285 3.54943
111.794 17.9964 3.34525
113.685 19.1702 3.61146
110.765 19.1414 3.72629
112.162 19.3545 3.79938
119.427 19.965 3.78452
96.6059 16.644 3.31341
111.996 20.486 4.12167
91.3157 15.8352 3.20618
105.053 19.5226 3.89853
90.386 16.0257 3.35039
101.059 18.5253 3.80093
94.8423 17.2009 3.57715
110.966 21.103 4.28483
102.334 18.6075 3.98751
100.454 19.1192 3.99506
101.422 20.5129 4.4463
87.9397 17.3515 3.96699
101.98 20.0492 4.33813
88.0081 18.4606 4.16625
95.271 18.5731 4.1935
88.181 16.8732 3.82746
95.4301 18.3219 4.16328
82.8018 17.1597 4.0153
99.4593 21.319 4.83067
84.9464 17.7232 4.22793
85.9489 18.4873 4.30078
83.524 17.9103 4.31181
95.6434 19.976 4.79809
79.7665 17.5135 4.33799
93.8459 20.0465 4.91415
86.9137 19.2387 4.78787
85.7737 19.5025 4.89362
79.1121 18.0902 4.49861
83.6789 19.7206 4.99161
77.6997 17.5666 4.40009
64.4991 15.2555 3.99408
86.2766 18.6295 4.88106
83.5246 18.8383 4.94489
75.5082 17.5583 4.60196
88.4622 21.5751 5.67082
67.1151 17.1402 4.73435
76.0006 19.2195 5.16083
75.1533 18.1131 4.95139
78.1262 19.2362 5.09413
84.0565 20.663 5.74136
72.7269 17.9868 5.01743
77.8474 20.1223 5.76048
68.1034 17.0181 4.6564
75.5652 20.4202 6.0698
84.6655 22.7508 6.44154
70.8222 19.9411 5.73115
71.3019 18.6253 5.5684
89.3686 23.5415 6.85683
71.3737 19.0843 5.66603
74.1183 19.4339 5.82938
73.9639 19.089 5.79283
64.5969 17.5848 5.38264
75.6604 20.2924 6.1768
82.1975 21.5283 6.6145
66.3659 18.3485 5.75954
78.1919 22.5909 7.05052
59.954 15.7203 4.95699
64.8509 18.4569 6.03758
67.824 19.5018 6.15994
65.9465 19.5533 6.18614
68.3337 20.3603 6.54564
75.2709 20.2596 6.59661
68.6632 19.5712 6.46557
73.3333 21.2906 7.20214
56.3855 17.136 5.68834
54.7001 17.159 5.8565
69.4586 21.4386 7.43842
66.4334 19.5547 6.62829
60.0617 18.2333 6.36543
53.6267 16.6502 5.94311
55.4039 16.8937 5.84776
56.1159 18.1619 6.38306
62.1066 20.9932 7.48216
64.3966 21.5669 7.72966
54.6673 16.8481 6.01586
57.6978 18.2726 6.81307
58.8033 19.0858 6.88642
57.1417 18.1641 6.84283
55.8909 17.4814 6.46126
53.0283 17.5841 6.59779
47.7314 15.1821 5.72558
61.9905 20.1418 7.7003
50.6294 17.6925 6.93876
59.9006 21.2149 7.89991
51.8531 17.2763 6.67851
52.9418 18.7707 7.00778
50.0474 18.1443 7.26494
69.3773 23.0671 9.00056
49.55 18.5024 7.23066
50.2906 17.0833 6.79095
53.0396 17.4797 6.91732
57.0621 21.6482 8.97391
50.9576 18.3351 7.57077
49.6124 17.3048 7.25809
49.0942 18.9029 7.72889
51.1023 18.6621 7.67701
44.1294 16.4427 6.841
50.0985 18.1371 7.58891
51.0015 19.0006 7.80453
54.4312 21.9573 9.3365
49.3218 18.6904 7.9116
49.6766 18.889 8.26157
52.2326 19.3981 8.14785
47.1461 17.8494 7.64821
51.7402 19.7263 8.61873
46.2143 18.2113 7.95555
43.4913 17.7895 8.10989
50.2574 19.194 8.57076
47.3409 17.9554 8.25155
52.7904 20.2056 8.67473
44.5029 18.3739 8.40182
53.8415 20.7886 9.60094
45.7701 18.435 8.81438
52.6514 19.9678 8.94865
50.8264 20.7178 9.9118
42.1095 17.3478 8.11088
45.0732 17.687 8.14599
43.8267 17.9144 8.63028
42.677 19.477 9.82814
45.589 19.2459 9.0253
46.5572 20.685 10.0658
45.2046 18.957 8.97472
44.0827 19.0632 9.24569
42.5484 18.8127 9.34811
40.6848 18.0939 8.97422
47.0203 20.3865 10.1656
42.732 20.3352 10.3773
41.8701 18.1038 8.61671
38.1374 18.2159 9.34209
40.3666 18.6759 9.63721
46.5515 21.6323 10.9363
43.7756 20.8692 10.6709
36.806 17.02 8.91599
39.7951 18.4766 10.0603
45.4948 20.4228 10.5002
42.0759 19.9506 10.2897
38.8781 17.7597 9.48766
39.5857 19.4118 10.3744
42.9567 20.6541 10.7551
36.2904 17.6253 9.2746
33.8495 16.3013 8.83062
39.3179 19.5549 10.9545
38.5734 17.8305 9.33509
41.4209 21.0543 12.0493
36.1723 17.0103 9.06906
37.0717 19.2839 11.0985
40.4486 18.7327 10.0674
32.9541 16.1963 9.30396
40.878 20.1794 11.2848
37.3486 19.7347 11.0852
37.0443 20.7017 12.5228
37.002 19.6865 11.4134
36.1668 17.9351 10.2475
33.3111 15.1738 8.41819
33.3598 19.097 11.4537
35.6754 18.815 10.6483
34.8672 19.0079 11.0773
35.4403 18.5965 11.1327
33.5263 18.0026 11.2335
33.8094 17.7046 10.4842
33.0072 17.2554 10.0556
33.8158 19.1459 11.9523
37.0447 18.7975 11.2484
33.6529 18.6381 11.0989
35.5686 19.8951 12.3382
27.6487 16.1038 10.2025
38.9978 20.4407 12.3804
30.1995 16.7749 11.1343
38.5148 21.0525 12.4802
30.7317 17.342 11.3831
35.0077 19.7478 12.4468
33.6612 19.7888 12.4134
33.3395 19.0939 12.0076
29.3414 16.3379 10.2496
30.3182 17.0178 10.9843
32.5051 17.8592 11.9495
33.0575 18.5792 11.6417
31.2521 18.6956 11.9912
28.7939 17.4438 11.7458
28.4249 17.4292 11.5721
29.6508 17.7149 12.1958
30.8855 17.9445 12.2093
30.0658 18.3125 12.5167
30.9163 17.5749 11.2592
27.5538 17.3152 12.3235
29.5997 18.797 12.8205
31.3811 19.1377 13.3091
32.5403 20.1291 13.3531
27.1598 17.755 13.3352
33.8993 20.8175 13.9765
27.9883 17.7521 12.4767
27.6309 18.2006 13.1466
31.2642 19.217 13.659
32.5797 18.925 13.1319
25.1728 16.0317 11.2646
26.7307 17.237 12.5956
27.5985 18.1197 12.9475
32.4652 20.6467 15.0415
29.1006 18.7635 13.6347
28.4013 19.0571 13.9922
24.4066 17.3077 13.0016
29.6345 18.2009 12.6095
26.596 17.76 13.4534
27.957 18.3366 13.7282
26.2879 17.9904 13.4489
29.086 18.31 12.9376
26.7429 18.3574 13.9168
25.4047 17.8894 13.7199
25.2232 17.4616 13.069
25.5274 16.8649 12.7204
23.1176 17.1857 13.2917
25.1135 17.1252 13.3983
27.3356 18.8796 14.8156
27.5183 17.2627 13.1087
26.7156 18.1568 14.3374
29.5515 19.2528 14.5495
25.9811 20.1959 16.4703
26.6874 17.9174 15.0317
28.7123 20.2221 15.7193
28.8195 19.5367 14.8208
23.8851 16.2482 13.1429
22.5803 16.8754 13.4147
24.8299 17.5958 14.6197
23.6656 18.5684 15.1599
24.5421 17.1421 13.5363
21.8384 15.16 12.2627
24.8828 17.9068 14.8228
23.8067 18.7733 15.661
25.8679 18.9078 15.374
25.9445 20.4897 16.4925
24.652 19.6306 16.7859
23.4625 16.9066 14.4235
23.2112 16.1785 13.0996
21.3656 17.6014 14.9531
24.4663 21.4336 19.7703
25.7159 18.0031 14.0431
21.9184 17.28 15.0969
22.8706 18.636 15.8043
23.6298 18.0395 15.6497
24.7994 19.4384 17.0581
20.4413 16.4667 14.2523
25.8659 20.1374 17.9673
22.8731 17.4865 15.0016
21.3151 15.7718 13.9875
22.9776 18.3724 16.7439
21.4161 17.1897 14.1761
24.3382 19.7294 17.0167
25.108 22.0032 19.5791
21.7269 17.6765 16.731
22.5199 18.236 15.9054
21.1292 18.2512 16.5021
22.2641 17.7392 17.8814
23.6741 17.0986 15.0059
22.4274 17.8095 15.9781
21.8327 17.7322 16.4731
21.5797 19.2116 18.0949
22.7314 18.4331 16.9767
18.6911 15.0631 14.0598
23.9477 18.7591 17.8637
20.826 17.1682 15.9236
19.589 16.0106 15.0821
20.2652 16.1784 15.5161
20.1527 17.9624 16.7147
19.2247 16.9506 15.7917
19.3029 16.6265 16.2875
20.2344 16.888 16.9371
20.5943 17.3425 16.9753
23.4789 19.4303 18.2792
20.94 19.2334 18.7467
17.2108 16.2913 17.1997
21.1462 16.8488 15.9761
21.013 16.7874 15.8691
20.7718 18.57 18.1741
19.4382 17.7505 18.6506
17.9762 15.4115 16.1877
20.5066 19.5122 18.7345
18.232 15.271 15.0961
20.1059 18.1144 18.5229
20.2575 17.746 17.0568
19.1885 17.3522 18.745
20.4457 19.5309 18.8852
20.083 18.9286 19.4436
19.028 18.4341 18.9205
20.7211 19.2087 19.0997
16.557 15.313 16.1631
19.2349 18.59 18.6612
18.6224 17.0662 17.942
17.4738 16.7225 17.7783
17.6002 16.6343 17.2833
16.8655 16.5524 17.5989
19.7259 17.8293 17.5752
15.465 14.3289 15.6973
19.9148 20.1976 22.4613
18.8836 15.8688 16.3224
20.5555 19.6313 20.18
20.4209 21.8229 25.4448
19.274 17.8528 18.8226
19.6776 18.6936 19.9853
15.988 15.9028 18.4295
19.8678 17.6759 18.9318
17.0163 15.7526 16.8786
16.6933 16.4581 18.0195
15.8122 15.8009 17.5569
13.7469 14.6433 16.9245
18.0954 16.9807 18.3913
15.8022 15.0639 16.7482
16.3211 16.125 17.9275
18.5005 17.4679 18.7671
15.2514 17.4557 20.9004
17.7907 17.5873 20.11
18.0372 18.2571 20.4575
15.5224 16.5887 19.5515
17.7592 16.7488 19.9291
17.7152 17.5893 20.0853
18.187 17.031 19.3857
15.0259 16.2897 18.9636
17.5529 17.5054 19.8367
16.8644 16.9028 19.3316
16.6023 16.7436 19.0781
15.3077 16.9283 20.5794
15.9811 15.8894 18.3241
17.5286 19.5002 23.2173
13.3738 13.8761 16.4611
15.7071 16.9242 19.9897
17.273 17.1031 18.3464
14.511 18.033 22.7482
15.9155 17.2787 21.4065
17.0405 18.3874 22.0006
16.6437 17.0302 20.6625
14.6575 16.3348 19.9189
16.2502 17.2996 20.9122
16.2186 17.6284 21.773
15.432 16.3596 20.0434
15.1625 16.1524 19.1109
14.1392 15.6229 19.774
16.2605 17.0539 20.3807
14.7243 15.3103 19.7242
15.9723 18.4638 23.5699
15.7286 16.648 20.7824
15.012 15.2562 19.1705
15.5636 16.5464 19.5772
13.8857 16.4186 21.348
16.8488 18.1404 21.272
14.4432 16.6296 20.8157
12.5217 14.0168 20.2215
15.5614 16.5937 20.6954
15.1916 16.5005 20.3712
15.7054 17.5926 21.8196
13.5318 15.721 21.1696
13.4346 16.7717 22.2831
13.8904 15.0208 19.0005
15.9128 18.6371 24.3102
14.2039 15.8077 20.4982
14.9394 17.0661 21.4761
13.7197 15.7508 21.3545
13.4834 15.5244 20.8669
15.323 17.2727 21.8634
13.4371 16.3341 21.4436
13.6436 17.2119 24.0626
14.711 17.0916 22.5166
14.3247 16.8905 23.5058
17.6978 18.9097 24.8394
15.153 19.1293 26.7629
17.2674 20.1973 25.6349
14.7633 18.2262 23.5373
15.794 21.4574 29.8608
15.9287 19.411 26.0941
13.9337 16.128 22.7796
14.1739 17.5472 23.2681
12.885 16.48 23.9728
13.443 16.2629 22.5513
16.3596 20.5869 28.2318
15.594 18.7001 24.7283
13.2041 16.117 23.0559
11.9993 14.6802 21.5205
14.3014 17.8633 24.6432
12.1028 14.5453 20.3072
12.8577 16.7161 24.1582
13.8084 15.3798 21.7852
14.3983 17.3451 24.5135
14.0728 18.1908 25.3484
12.9729 16.1528 23.532
11.445 14.2408 20.5602
12.167 15.7017 23.605
14.1847 16.7528 21.9828
12.7124 17.692 27.3458
12.0076 15.5862 22.1413
11.3336 14.9931 21.9259
12.5427 15.7744 23.0996
12.9111 16.9861 24.7587
12.7852 15.9418 23.5826
12.7774 16.4604 24.6954
12.8725 15.3541 21.2289
10.985 13.9346 21.0648
11.6274 15.3111 23.2781
11.1964 14.2614 22.8118
14.8695 18.1907 25.1713
13.0701 16.6118 24.0298
12.712 17.2393 27.0027
14.3398 17.738 25.9356
12.5352 16.3284 23.6866
10.3997 15.054 22.9932
13.4157 17.4902 24.9717
13.2624 17.9304 26.6928
10.1193 14.609 24.2558
14.367 20.7423 32.2745
12.5981 16.3704 26.181
13.6714 18.0087 27.499
12.7794 18.0434 28.4112
12.6634 16.5016 25.6224
12.3545 15.446 22.9496
12.2399 17.4723 26.4489
10.3305 15.4278 25.4687
12.3404 15.9862 24.9842
12.3261 16.0879 23.5758
11.1019 14.6225 22.124
11.7836 15.7461 24.0958
11.1163 15.656 24.8948
11.8607 16.8465 24.6252
11.7654 18.2027 29.5117
11.8672 16.6643 25.1605
10.5987 15.2417 24.6125
11.171 15.7623 26.0004
13.9792 20.5093 32.3767
11.9558 16.1463 24.3616
11.4425 16.7334 27.4886
12.3921 16.7795 26.7202
10.5292 15.859 28.5922
11.8655 16.1913 25.8984
11.1969 17.0994 27.1873
12.1704 17.8742 28.9727
12.7927 20.3036 32.3887
12.0806 15.9204 23.8795
9.73033 15.1414 25.5325
10.9463 15.712 27.3463
11.0159 15.0798 24.1927
11.972 18.2202 30.7754
10.6298 15.6564 27.8523
11.3506 15.5906 24.8703
11.0826 16.3558 27.5814
11.102 15.4733 26.1978
10.8793 17.0888 28.1783
10.8132 15.5763 26.9426
9.63614 13.7418 24.248
9.90121 13.3065 23.2072
10.3109 15.9387 27.1758
11.1528 17.0768 28.5985
8.62245 14.0058 27.0776
10.4925 15.3017 25.9517
11.0728 15.9337 29.1658
11.8508 17.6775 27.6889
10.501 15.2168 24.6158
9.05905 13.7319 24.6735
10.9826 16.9177 27.9953
11.1212 17.2252 27.4145
9.31047 15.0352 26.1082
9.34625 15.7778 29.6385
11.0123 15.3295 27.2419
11.6931 19.1368 33.4604
12.7054 17.2103 27.5429
10.4183 16.2778 27.6671
10.6046 18.0516 32.8925
10.365 15.3577 27.0947
11.5623 18.5403 32.1771
8.80192 14.6017 26.9673
9.55634 14.9549 27.2394
9.45886 14.8865 26.8678
10.5589 15.4433 27.8058
10.7493 16.7981 26.7541
8.5884 16.0126 30.6334
9.57331 13.7101 25.2165
9.68676 15.4871 27.9599
10.1536 15.547 27.9604
9.05623 13.852 24.2182
7.39453 11.7356 24.2649
9.33953 16.3423 29.9685
9.77804 15.8041 30.9627
12.0255 18.6002 33.3366
9.25869 13.3369 23.3486
8.34589 15.3327 32.393
11.3749 17.6013 30.3607
10.6451 18.3401 34.2047
9.31905 14.2791 27.028
9.25734 15.6578 31.271
9.8623 15.3477 27.2213
10.4903 16.8675 30.8113
9.27023 14.441 27.7545
9.30672 14.0519 24.4935
9.57861 17.8191 31.9995
9.66724 16.8899 32.9595
9.33524 15.0351 26.6536
8.05289 12.8541 25.8798
9.36355 16.9346 30.8933
8.59409 14.3081 27.2626
8.76739 16.007 30.9978
8.60238 13.1513 25.5984
9.65299 15.4389 30.9266
10.4439 18.3479 35.8026
11.1318 17.817 33.0443
9.54633 16.4992 30.4417
8.56316 16.8394 33.8703
9.75187 15.6901 30.7727
10.199 16.0945 31.7384
9.36034 15.4367 29.0006
8.69943 15.0428 29.7448
9.37147 14.9299 27.9452
9.69119 15.9911 30.7859
9.00933 15.8059 30.5848
7.59652 12.6184 24.9402
8.31597 15.2185 30.2047
9.00243 16.1728 33.0277
9.35534 15.2059 28.4149
8.89952 16.3487 35.2232
9.34507 15.7415 31.7316
9.5173 16.9928 32.217
9.77981 16.6012 32.8987
9.47038 16.9723 32.7882
8.70166 15.5461 31.3485
8.89366 15.1608 28.9546
7.71005 15.6105 31.0669
7.98941 15.7389 32.6243
8.99671 15.0855 29.0186
7.47512 12.8926 28.4672
8.95412 16.414 35.157
8.69837 16.148 33.4206
8.97896 15.582 30.5596
8.55641 15.1255 29.2773
7.69551 14.193 31.1323
8.40951 16.6042 34.8078
9.43975 14.6019 28.8787
8.43332 16.8371 36.8328
8.31851 13.8975 29.6034
8.83832 15.4558 33.9748
9.25344 16.6042 34.1971
8.65244 16.0667 33.2963
9.09437 16.5044 31.1171
7.62103 15.2624 32.8369
7.66666 14.0162 32.1008
8.7985 17.4008 36.7619
8.76769 15.0479 32.3517
8.38276 14.082 28.6124
9.04515 16.3061 32.0324
8.09944 16.2256 32.3855
7.80349 14.8721 30.4285
7.07528 14.0094 32.0802
7.5738 14.4177 29.4056
8.2741 18.1607 42.9596
8.66173 14.057 32.5973
8.18219 15.1682 30.7705
7.8319 14.3593 30.0612
8.70873 15.7924 33.1521
8.32862 17.1431 35.7972
9.1848 17.2686 39.4629
9.03304 16.6776 35.9389
8.64602 14.7644 30.1464
8.01494 17.0304 38.2777
8.38413 15.5607 31.3315
6.3605 13.9657 32.9328
7.81791 14.8746 32.0049
7.44049 13.6205 32.3047
9.34727 16.7152 34.0322
8.25859 13.7822 29.9696
8.209 15.1846 31.3869
6.74372 13.4233 31.0746
7.22536 14.7026 32.1029
7.07095 14.2166 37.1212
9.67263 16.9648 34.769
8.49528 15.2205 31.3914
6.65398 13.4066 32.7271
8.13714 15.0689 32.6907
7.05148 12.8644 28.4165
6.87504 12.766 30.4844
8.01147 16.7393 37.522
8.28793 15.3511 31.1908
6.3029 13.2285 31.711
7.63697 16.2326 36.3112
6.55284 11.7469 25.3196
6.52773 13.9024 31.6742
8.60274 16.9107 35.2667
7.61865 16.3787 37.554
8.06857 14.9273 34.8791
6.69081 14.1569 35.0532
6.79933 13.6056 31.8851
7.25259 14.524 29.7707
6.17752 13.0338 31.1194
7.77494 15.0664 33.837
7.1945 14.9839 33.9726
6.9731 14.1864 33.9135
7.48796 15.2426 36.07
6.34183 11.4228 27.4438
6.5779 14.0952 34.2575
7.25817 14.614 35.845
8.35417 15.6228 33.585
6.8049 12.477 29.399
6.65757 13.509 29.2123
6.6325 15.4353 37.0076
7.19431 14.6958 34.6922
6.52574 13.4323 30.1955
5.90251 12.2002 30.1975
6.19577 12.8278 35.2019
8.3776 14.7921 32.5394
7.15517 15.9025 36.6438
6.57272 13.6576 36.482
8.35684 15.7248 35.5151
6.29456 13.5226 33.3091
7.08215 13.7007 29.5042
6.36958 13.9598 32.5413
5.80828 11.9971 33.564
7.27558 13.5402 30.7554
6.59693 14.6789 34.989
7.18401 14.3141 32.3177
6.61149 15.0242 33.6893
6.0683 11.6544 29.9648
6.15809 12.3502 31.8956
6.73994 14.1513 33.128
6.92574 15.9509 35.6163
6.27723 13.5743 33.4277
6.82559 13.5838 33.9572
6.19658 13.2785 32.7462
6.23802 13.2589 36.5148
7.38999 14.9421 36.6076
6.95513 14.6872 36.0733
7.22275 15.6513 38.1859
7.27414 16.0604 41.6196
7.45528 14.6893 32.6402
5.92638 12.8734 32.7634
5.99628 13.9928 37.2483
7.01305 15.0779 36.5236
6.93226 14.8121 35.9815
6.6299 14.3202 39.7073
7.87438 16.1978 40.2679
7.65573 14.1904 34.2241
7.74917 17.8456 42.1313
6.66683 16.3943 41.981
7.14791 15.506 38.5036
6.27796 12.5737 32.5793
6.05273 14.2271 36.1478
7.37434 17.1077 39.7043
6.35117 14.8432 39.63
6.18005 13.0725 34.0199
6.21331 14.6156 36.5139
6.12639 12.9382 35.2387
6.59298 13.3246 39.5032
7.70108 15.633 34.6352
5.80387 13.6223 38.2816
7.28294 16.3971 39.5497
7.07644 15.3933 35.6939
6.56515 16.6227 40.4687
6.14548 13.3937 38.9373
7.49286 15.6131 41.2483
7.86157 16.3251 41.3331
7.29037 14.504 35.1088
5.61331 14.7055 39.9797
6.78535 14.194 39.008
7.32938 14.2859 32.883
6.21517 14.0678 36.063
6.83327 17.7621 44.7668
6.05943 13.8134 37.2809
6.89267 16.5506 44.1711
6.51219 14.0358 37.9471
7.22194 15.574 39.0697
6.52606 15.1366 41.6218
7.22457 14.9661 39.6927
6.59414 15.8103 38.3323
5.98546 14.3815 37.9593
6.33944 15.9114 42.2977
6.27057 14.1855 38.582
5.9248 13.8656 38.2551
6.45114 13.0516 34.2184
6.09783 13.0239 35.6092
6.55354 15.2638 36.4828
6.01951 13.6621 38.2462
6.5423 17.5112 47.4864
6.49962 13.6427 38.038
6.74881 15.5928 39.6219
7.09921 14.6978 37.7095
6.23643 16.1183 41.5079
5.8445 13.5872 35.761
5.66629 13.1039 36.7286
5.56746 14.138 39.4036
5.62039 11.9382 34.4962
5.986 13.3135 37.7179
6.62508 14.7988 39.0802
6.56918 13.8504 34.3754
5.15133 13.2967 37.6088
6.09236 13.3806 39.0262
5.87356 13.1015 38.4743
7.12931 17.2246 44.5589
6.5514 15.305 38.12
5.29181 12.9667 36.272
5.48363 14.8658 40.355
5.96492 13.4278 35.4891
6.27043 16.9154 46.2565
6.64361 14.3932 38.7348
5.07773 11.8576 34.9263
5.65038 13.7256 37.963
5.50485 14.3346 39.5568
6.00147 16.2423 47.4193
6.0562 11.954 31.9496
5.90043 14.6152 37.0494
5.52857 14.3787 40.0372
5.30621 13.7722 41.7704
6.56681 13.3002 36.9743
5.23607 12.6261 37.0109
5.98783 13.651 39.4209
5.90387 13.9681 38.0251
5.78776 14.9752 43.163
5.98964 13.8791 36.0598
5.49132 13.4521 40.2011
5.88019 14.7727 39.3465
6.30086 14.5308 38.4959
5.69817 15.715 47.162
6.65163 15.85 44.8592
5.50605 12.1649 34.0348
5.62971 14.4997 40.4248
5.32872 13.1243 39.6052
5.75715 15.3202 44.357
5.84114 12.7012 35.2464
5.35974 13.0359 36.0803
5.3392 14.3375 43.3651
5.54467 14.4982 42.1615
5.65269 12.7101 33.1781
4.87515 12.6172 38.0349
5.62137 15.1768 44.387
5.77012 13.7444 41.1053
5.88007 14.4013 39.6806
5.99085 15.3656 44.5739
5.98291 14.1903 42.5996
6.30702 16.5274 46.6188
6.06519 14.2135 37.5317
4.53655 12.583 39.8802
6.13112 14.9461 39.7366
4.76251 12.097 34.8753
5.17532 13.9825 41.2386
5.92206 15.9885 49.2083
5.60071 13.3872 38.4417
5.33487 12.0913 38.9584
5.7903 15.182 44.5167
5.88277 13.7071 42.4629
6.68911 16.8737 46.6326
6.41778 15.7924 45.7336
5.56084 15.3389 43.5541
5.36921 13.0476 45.8519
6.53636 15.9633 41.3374
5.18688 14.08 44.5655
5.33272 13.9642 40.9448
5.41475 13.3569 37.183
5.10173 13.5716 43.6519
5.15646 13.1023 42.9678
5.84342 13.9627 39.5251
5.72444 15.8177 46.5127
5.44183 14.1162 41.3963
5.59601 13.2047 38.049
4.79068 14.3701 47.7909
5.89763 14.7872 44.3302
4.97534 13.9741 43.4649
5.77395 16.2341 48.0599
6.17551 15.6289 44.899
5.82531 13.2535 39.9601
5.49185 13.9463 40.1618
5.13934 13.6407 40.6695
4.83215 12.3914 38.7539
5.37417 12.8206 36.6816
4.82605 13.0095 42.7265
5.24348 12.947 35.6181
4.29512 10.6908 36.499
5.20964 13.5229 42.3544
5.67704 14.6199 37.9517
4.5991 12.6977 40.682
5.7122 14.2702 40.0709
4.89739 14.1924 46.6461
5.45601 11.4344 33.1767
4.54411 13.1164 37.7253
4.5619 12.3219 39.6919
4.48262 11.0319 34.7733
4.60934 13.7961 44.4283
5.1645 13.9383 42.5502
5.35579 13.7728 38.3982
4.95632 13.1519 42.5842
5.24211 12.8302 38.5318
5.02483 13.0864 39.6357
4.7688 13.7888 47.2467
5.97666 13.2081 37.8685
4.46115 11.5179 32.7928
4.79221 12.0836 36.0679
4.29295 13.3855 45.8856
5.82485 16.3159 51.3211
5.69421 13.1224 39.8452
4.79636 14.4612 46.9678
5.63315 14.9296 42.676
4.45753 12.2144 39.6612
4.69027 13.3523 39.4956
4.44015 12.1751 39.5997
4.72632 12.974 47.7588
5.55586 16.1085 48.7691
6.09496 16.1773 50.5335
5.68548 17.229 50.4319
5.18739 13.4126 46.653
5.07274 13.0099 42.0193
4.94063 13.1902 41.9744
5.11977 14.4657 43.519
5.0624 12.824 40.4182
5.11455 12.3175 36.9309
4.72666 12.0921 39.1205
4.99322 13.1545 40.0556
4.20243 11.8475 41.0015
4.64576 13.0042 44.2577
5.03736 13.284 41.7786
4.95816 15.3116 49.2958
4.92858 13.8432 39.2468
3.89663 11.4082 43.2916
5.40605 15.5124 46.5177
5.32838 14.4517 48.219
5.13676 13.9664 46.3202
5.87377 14.3515 43.5643
4.68427 11.7972 35.7023
4.41859 12.4562 40.9217
4.59601 13.9593 46.7526
5.6083 15.599 46.0524
5.07422 15.0824 47.1424
4.78354 12.0212 38.5732
4.75241 14.3554 40.8405
3.94358 12.7345 46.9824
4.70573 11.6893 40.9379
4.42774 12.2105 42.7622
4.98432 15.2457 44.7744
4.59702 13.4595 43.2603
4.75072 15.3753 47.4242
4.84334 12.0022 48.5649
6.14129 14.4555 41.1528
4.68276 13.5654 47.0811
4.95054 14.0497 48.9632
5.25465 14.1468 42.8065
5.18104 14.9537 43.7307
4.29184 13.0006 47.493
5.53471 15.8161 56.1148
5.972 13.8843 39.6002
4.07613 11.8118 41.5526
4.41306 13.4392 44.1966
4.84773 13.542 42.3752
4.2624 13.3537 42.3909
4.66856 11.3497 38.8678
4.41903 14.1858 52.8871
5.5261 15.1723 43.075
4.60621 14.2963 48.3532
4.98012 13.5568 45.5661
4.7307 13.6333 44.9045
4.70633 13.0507 45.5207
5.11179 11.9466 37.0806
4.11609 12.1539 43.5092
4.7953 15.6747 45.9896
4.3828 13.6381 48.1572
5.04852 14.5453 48.1096
4.69478 12.5972 44.871
5.28704 13.9897 49.8447
5.30654 14.4317 44.0021
3.95985 11.1619 44.274
5.25909 14.3683 41.6562
4.49568 13.1794 44.1966
4.34347 11.8243 43.749
4.35259 13.7359 47.9445
4.9978 13.7578 37.8184
3.96477 12.5732 45.6613
4.17983 13.3355 44.7291
4.74609 13.0657 44.6839
4.71807 13.5396 46.2028
4.74893 13.3938 48.528
4.87538 12.0917 37.5563
4.39722 13.743 49.1571
5.10328 12.9771 37.9829
4.19483 14.2322 50.2847
4.8089 13.1005 43.1007
4.65181 12.9953 45.8814
4.75938 14.3435 46.0353
4.65914 15.1161 45.4142
4.18024 13.7296 51.4149
5.19178 14.974 46.2205
4.54247 12.7881 47.6759
4.83237 14.5629 46.8346
4.81988 14.7353 50.4788
4.90192 14.4089 49.5099
4.63145 14.6539 54.8491
5.40925 14.8844 49.3596
4.91239 12.6074 40.0837
3.87114 12.7984 49.2383
4.9595 14.3838 48.3774
4.15426 12.7767 46.9371
4.45597 13.9833 51.0989
4.9505 13.3261 43.3757
4.00068 12.2344 41.2615
4.54555 14.5241 48.8957
4.97148 16.1343 57.0512
4.78399 12.0121 40.4659
4.15641 13.5873 47.6299
4.56177 12.849 42.5877
4.04735 11.7447 41.3755
4.18482 12.9221 47.389
4.68038 15.0933 49.3345
4.94093 12.8466 47.4553
4.91509 14.0996 48.4966
4.36809 13.3228 44.4117
3.63847 11.7895 48.2557
4.69458 13.5309 47.4743
4.48491 12.4626 39.2817
4.11139 11.8902 39.1957
3.98304 13.1944 50.3937
4.61163 13.1555 44.7922
4.70294 13.0345 41.3368
3.84762 11.1007 40.4987
4.18586 13.485 46.4265
4.50156 14.4375 53.3714
4.29799 13.6017 47.4585
4.47036 13.0282 45.2
4.28147 12.2887 37.8181
3.72135 13.2396 49.3297
4.39148 12.3979 44.3811
4.01273 12.7632 44.1194
4.06367 13.3028 43.8458
4.23158 11.3507 41.0583
3.66246 10.9479 44.9457
4.93427 15.3289 56.7562
4.84187 15.3338 51.0928
4.58475 14.2006 47.9778
4.61232 13.8769 50.0504
4.18157 12.8057 45.9095
4.3554 12.7459 48.1765
4.6509 13.668 40.5731
3.98885 13.6319 45.4271
3.81865 10.0491 42.7412
4.40322 14.1028 48.4688
4.42962 13.3357 47.4632
4.14068 12.7991 46.8078
4.41504 15.8643 54.8314
4.32724 12.2839 48.5061
4.8804 13.976 56.1602
4.82406 14.5293 50.4653
4.29452 13.4873 50.7555
4.14527 12.5241 45.8996
4.51539 14.784 53.9791
4.81766 14.2367 51.6047
4.41738 13.8801 43.6153
3.65419 10.9613 40.0058
3.72557 11.8274 46.9814
4.56582 12.3305 48.8938
4.49861 13.2839 44.1517
4.1637 13.1118 50.533
4.26595 15.6917 52.5686
4.4554 12.7301 48.0385
4.62979 13.9689 43.3496
3.71612 10.3361 45.1664
4.45315 13.592 50.5173
4.38215 13.0196 49.8303
4.67486 12.4058 40.5413
3.82413 12.3288 52.3288
4.99656 11.8067 38.2075
3.97084 14.2479 50.5909
4.7235 12.8706 41.9752
3.82993 12.4024 46.9211
3.92128 13.1548 52.2676
4.62761 13.1005 51.2458
4.57254 13.4068 47.1138
4.06804 13.9098 46.2798
4.14751 12.1347 45.9039
4.44593 14.2364 50.052
4.08084 11.1999 40.5113
3.74589 11.7888 44.2085
4.06126 11.7802 36.0761
3.37835 11.3553 46.475
4.22215 13.3548 45.2267
3.46682 14.0022 55.8453
4.47183 11.1085 42.8216
4.06949 13.9632 44.81
3.96798 12.0466 46.0875
4.18929 12.6831 45.0311
3.97971 12.3326 49.9704
4.7636 14.3728 50.2188
4.57857 13.246 52.6351
4.38559 13.3368 46.1798
4.08465 13.4365 42.6591
3.79894 13.8244 52.8796
4.44364 14.1088 47.8448
3.55155 12.7472 47.3064
4.12368 12.1642 52.9042
4.15089 11.4295 43.0221
3.78091 12.6433 42.4177
3.6499 12.0945 44.7276
3.71803 13.3623 47.3217
4.0221 14.1746 59.2002
4.74084 12.0801 47.6203
4.03922 12.2035 50.3258
4.60851 13.4822 49.2856
4.32013 13.1655 44.6256
3.99855 13.6814 49.1716
4.09674 12.5544 46.5033
4.14646 14.5661 44.2457
3.67333 12.6761 49.7215
4.13877 13.0927 48.1187
4.18271 11.9587 49.735
4.2422 13.2542 54.016
4.8165 13.5982 44.5608
3.51306 11.3044 46.4062
4.19799 12.1618 42.7947
3.70204 10.6692 44.7756
4.20266 12.9681 40.3076
3.28308 12.7493 49.7833
3.96426 12.4328 47.8808
3.72444 11.4245 46.6753
3.65594 13.2778 50.1943
4.30876 14.625 46.0095
3.48854 10.8954 44.4669
4.13033 13.7188 48.3127
3.9578 12.3815 52.0681
4.30065 11.6251 41.8566
3.46962 11.1991 46.7192
4.27987 11.62 43.771
3.58934 10.8492 36.8302
3.40878 9.98903 46.9718
4.38702 12.7286 48.4078
4.14349 15.0938 53.5292
4.31167 13.6891 55.0552
4.60297 13.6622 45.5476
3.43684 12.1864 47.8564
4.09107 11.9235 44.8184
3.61591 13.5617 51.3297
4.01289 12.4508 48.1901
3.79228 12.8068 45.2161
3.76917 12.5987 48.8702
3.85859 12.9782 52.4393
4.17129 12.0336 49.9754
4.14595 12.4839 52.3808
4.28907 14.2838 46.6826
3.91248 12.8084 47.1698
3.76654 11.3516 48.7986
4.17898 13.2012 53.8857
4.48439 13.718 46.3072
4.0293 13.3934 47.3277
3.79535 13.238 55.2176
4.5027 13.8586 49.3285
4.24815 12.6116 43.1634
3.75187 13.064 53.3369
4.31096 13.6305 46.0111
3.8893 12.1287 49.2608
3.96268 11.9475 47.3996
3.98241 14.1278 51.921
4.30435 11.2759 43.972
3.40698 11.8143 44.8154
3.41206 11.8391 45.6984
3.79728 14.7232 49.7943
3.42097 11.4355 55.1172
4.2351 12.4467 42.9608
3.68884 12.1282 43.826
3.8276 11.6093 40.721
3.30443 10.4661 41.6788
3.47149 13.15 50.0352
4.0693 11.7195 52.186
4.26766 13.5523 43.6276
3.40732 11.6324 53.5168
4.00823 14.9776 54.5568
4.03543 12.3824 47.8913
3.82519 12.9765 45.4005
3.37213 12.5854 47.2106
3.67802 11.3737 48.4529
3.68415 12.831 45.4009
3.71032 11.6541 44.8641
3.63578 10.6307 49.7408
4.08485 14.4554 48.9556
3.73403 11.8347 45.7834
3.56954 12.7101 49.8127
3.94189 14.1575 47.7759
3.68265 11.8471 52.7157
4.49979 12.6855 43.2255
3.16415 11.9356 49.5259
4.04124 11.2816 50.2364
4.09641 13.5706 51.2592
3.67564 12.5614 49.6316
3.95358 15.3777 55.7411
4.2347 11.6572 51.3844
4.0057 14.4976 49.0271
3.76927 11.6001 49.4782
3.95173 12.0757 50.4232
4.23924 13.258 47.9904
3.7548 13.2768 51.3382
4.15188 11.9733 48.9277
3.99985 14.5602 51.3783
4.14616 13.4956 52.8212
4.06497 11.7573 48.9898
3.72418 12.122 44.1823
3.47692 12.1881 47.1824
3.90152 11.5836 51.1087
4.09198 13.5279 48.2058
4.02106 12.853 50.4255
4.01772 11.3469 47.6482
3.97901 12.2885 53.5662
4.34114 13.4632 42.262
3.54044 12.1844 48.8039
4.06184 13.3628 50.8532
3.96716 12.0021 52.2508
3.76879 12.5186 41.9431
3.1692 13.8202 57.7229
3.99143 12.828 47.9882
3.89648 13.6303 51.7834
4.20265 13.3732 52.734
3.80379 12.8151 54.19
4.4178 12.3962 45.6073
3.51914 12.3295 47.4934
4.03197 12.9659 50.2904
3.84393 12.9277 48.4945
3.36778 12.5501 58.7165
4.42547 13.614 48.0015
3.37453 11.2458 47.479
3.58531 14.137 56.6065
4.4008 13.4451 52.3741
4.09185 13.4304 45.4922
3.34676 12.53 50.0581
3.6491 11.6809 52.0733
3.80686 13.0022 47.5236
3.73884 12.0601 45.5345
3.55458 12.2248 54.6664
4.00944 12.0687 48.4106
4.18534 13.7401 50.435
3.46229 12.9641 46.7617
3.48099 11.5604 46.0222
3.85366 12.6776 54.3459
4.26532 13.4341 54.1031
4.08209 12.1881 50.9538
3.8588 13.0227 48.7092
3.75954 12.2705 50.7424
3.77588 13.5982 44.7823
3.6397 12.7813 49.3579
3.52249 10.5721 47.995
3.84466 13.1664 46.0125
3.26928 12.2344 53.2011
4.3926 11.8713 49.2478
3.46691 14.05 51.3974
4.04001 13.6223 60.3976
4.71496 13.7018 49.6385
3.72802 12.9763 51.4824
3.87777 14.6667 56.4872
4.13342 11.8138 48.1517
4.00186 12.5733 49.5133
3.94128 11.4301 45.6884
3.83021 15.3696 58.748
3.87841 12.4159 49.3189
3.32469 12.1799 45.1113
3.54758 11.6367 48.9303
3.96123 12.5529 48.599
3.59686 12.7964 54.1527
4.2758 13.2348 47.8823
3.60929 13.5291 52.1057
3.87072 12.3709 47.7108
3.67005 12.4028 46.5956
3.49953 11.2382 55.0821
4.21631 13.0119 46.3343
3.75831 12.2026 47.9587
3.56546 14.1338 54.1107
3.93078 11.7299 47.3131
3.40481 13.3472 51.3344
3.76821 11.2428 45.6678
3.35211 11.5779 46.2947
3.55827 12.1692 45.6471
3.46126 13.4452 56.2808
4.09261 12.5884 49.6127
3.84377 14.5143 48.8802
3.53579 13.0622 58.9667
4.30422 12.5365 44.6126
3.39193 11.4766 48.9722
3.54922 12.5226 52.5128
3.61359 13.3213 52.1917
3.68393 11.5682 43.2938
3.35626 12.3482 48.1579
3.98037 12.5039 51.4113
3.9886 13.4071 50.8556
3.76844 13.9718 56.2762
4.14234 12.8278 51.6259
4.12765 12.8705 43.0802
3.13918 11.8897 50.3253
3.87009 12.1368 57.0203
3.90715 12.5324 50.2993
3.86679 11.4593 47.0218
3.98905 12.2514 56.17
4.1148 13.6974 49.9034
3.53015 13.2435 48.0311
3.72587 12.8449 53.9412
4.08881 14.2253 63.2547
4.83939 11.7184 39.7866
3.10532 11.2093 45.6596
3.3995 10.503 43.9819
3.53022 13.3857 49.3456
3.6469 10.9421 55.9543
4.20684 15.2892 48.3357
3.4614 11.4267 54.4185
3.88395 12.1222 44.9376
3.55607 14.07 56.7889
3.76079 12.7383 46.5989
3.71642 10.9837 39.6604
3.19502 12.9428 58.4272
3.98072 13.7506 48.7502
3.75044 12.3171 44.0691
3.2066 11.1542 55.5529
4.24033 12.6365 46.7677
3.57553 13.992 58.0657
3.71256 13.1304 49.4197
3.69076 12.9202 61.3193
4.50472 13.4933 44.1268
3.37643 13.3871 50.6663
3.7492 11.5817 50.6729
3.6109 14.6374 55.5566
3.88118 12.0941 48.6289
3.39246 11.1597 50.0279
3.87694 13.2494 52.1485
3.92774 12.5741 50.9576
3.88953 14.4577 57.8907
4.08065 14.7852 52.7499
4.13872 11.4416 43.7327
3.40104 10.6797 52.415
4.05274 12.2625 48.4646
3.60155 11.4441 41.957
3.12286 11.5661 50.6628
3.8762 12.6865 48.0468
3.40942 10.7364 49.3571
3.51309 13.7417 48.7323
3.7224 12.3798 55.8491
4.27943 13.5057 54.1073
3.91845 13.4289 56.5144
4.30864 13.0801 51.6344
4.04346 12.9019 55.4684
4.07092 13.7802 46.7232
3.68557 12.6999 44.261
3.17676 11.9804 43.8028
3.11691 12.3836 66.3158
4.56427 13.61 45.117
3.51286 11.4645 44.9458
3.46495 13.5036 53.9496
4.05064 13.3738 58.5963
4.5195 13.0359 47.4274
3.55733 0 0