# pn-170911/RbIIR-58-TWTF-1280-1959.psd
# Power spectrum* (dif=0,1,2) (really just |FT|^2)
# NOTE: only the first half! (symmetric)
# weeks: 1280-1959
# 6 clock-days, 0 excluded
# PSD: 1441
590.306 0.0102543 0.00939628
28190.7 0.268111 0.0166645
191212 3.67118 0.0169406
14124.7 0.488862 0.0170994
56085.7 4.25292 0.0175034
4403.07 0.45693 0.0158582
4441.3 0.770051 0.0164168
988.824 0.149576 0.0166443
2300.22 0.639742 0.0171892
499.194 0.136049 0.0175482
1194.95 0.481976 0.0145956
908.456 0.306391 0.0157122
824.631 0.566013 0.0150887
514.397 0.454876 0.0204451
750.331 0.758154 0.0199703
587.792 0.763801 0.0205017
358.536 0.406083 0.0152341
223.481 0.325082 0.0156609
539.853 1.03037 0.0142272
378.725 0.760907 0.0137395
448.469 0.906341 0.0178459
566.543 1.21225 0.0185753
404.04 0.853156 0.0241115
386.312 1.14218 0.0211094
482.249 1.22309 0.02467
494.452 1.38552 0.0246976
305.632 0.977298 0.0155829
638.942 2.07287 0.0238876
442.791 1.20511 0.0197017
276.503 0.846862 0.022445
165.806 0.673299 0.0245852
160.96 0.701211 0.0141186
154.837 0.707674 0.02451
438.511 2.18817 0.016015
190.998 0.995517 0.029687
132.742 0.693348 0.0129368
399.114 2.58741 0.0251653
121.318 0.854712 0.0256916
231.812 1.86713 0.0392217
134.159 1.25605 0.0354504
55.1866 0.615583 0.0248972
119.916 1.1007 0.0227811
267.452 1.85844 0.0397532
270.339 2.34956 0.0503529
290.238 2.44095 0.0531415
378.407 3.47573 0.0508831
223.404 1.88019 0.022062
126.204 0.961184 0.0335447
78.3666 1.13931 0.0322787
161.473 1.46957 0.042209
97.2292 1.36773 0.0437076
155.054 1.96917 0.0283745
139.395 2.05437 0.0369774
91.6127 1.32287 0.0486468
106.503 1.42815 0.0293384
217.241 2.95657 0.0506376
76.5304 1.06835 0.04969
90.016 1.43443 0.0184803
314.604 4.14625 0.0681177
145.206 2.50355 0.0752313
133.226 1.9616 0.0527565
98.3426 1.88428 0.0740961
215.21 3.83234 0.0542605
176.507 3.404 0.0937771
51.4539 0.800828 0.0392394
173.129 3.2531 0.075444
136.375 2.74585 0.0986826
177.234 3.65998 0.13218
148.649 3.44182 0.130234
179.392 3.74011 0.129975
132.103 3.10485 0.0724688
103.211 2.32879 0.0616607
207.808 4.29399 0.113481
133.208 3.19091 0.109011
161.619 4.01349 0.0799657
151.445 3.99722 0.13362
103.328 2.84302 0.109597
164.837 4.59104 0.185977
94.3274 2.27536 0.0692343
145.891 3.61565 0.130986
63.3467 2.1082 0.0763039
63.0715 2.20521 0.0987623
168.296 5.32437 0.144949
152.374 5.52837 0.230978
134.08 4.38537 0.152998
177.734 6.25229 0.266074
91.6697 3.18432 0.118813
123.422 4.23281 0.187833
94.434 3.61021 0.156385
132.873 4.68012 0.142702
116.64 4.26246 0.223228
126.111 4.50124 0.15804
188.514 7.9163 0.3044
119.48 4.66433 0.252284
83.8464 3.65985 0.218126
96.5585 4.32418 0.22491
187.37 8.02523 0.286255
92.9009 3.62926 0.12991
218.244 9.01738 0.405467
136.168 6.36562 0.283676
123.472 6.08763 0.226163
92.7082 4.18731 0.25354
67.4848 3.05284 0.222697
42.8759 2.68446 0.144014
167.48 8.14487 0.516295
98.3646 5.34626 0.305911
111.711 6.46397 0.376023
167.588 8.45696 0.418996
163.979 8.79404 0.443763
62.6877 3.50594 0.16345
188.413 10.7181 0.627365
127.405 7.86446 0.426446
166.685 9.56996 0.559525
117.668 6.4415 0.412936
84.6298 5.16203 0.383753
227.039 13.7403 0.843916
96.9429 6.18707 0.457498
71.0352 4.61734 0.27316
90.2836 6.43266 0.504763
138.964 9.48967 0.701577
172.009 11.1783 0.739285
106.421 6.85685 0.446696
67.1678 4.99553 0.338647
31.48 2.37095 0.1613
61.8388 4.21348 0.317187
92.0416 6.46665 0.559983
101.742 7.31507 0.528095
45.0163 3.55888 0.279041
110.497 8.30573 0.741656
108.498 8.25994 0.602532
43.3483 4.10201 0.465843
164.801 12.0164 0.948033
101.844 8.09348 0.603364
149.908 12.0869 0.951538
86.7697 8.25515 0.818303
136.288 10.9957 0.773561
141.28 12.0076 1.09362
77.9317 6.44122 0.604548
106.459 9.43933 0.788937
115.422 11.8554 1.11085
97.2112 9.22109 0.881736
112.518 10.1367 1.01643
57.2254 5.62012 0.522698
96.3505 9.22715 0.88832
111.368 9.97452 1.01021
42.1703 4.0571 0.466335
110.705 10.9201 0.998855
70.2517 7.43025 0.681986
73.7334 7.59662 0.8473
135.551 14.2115 1.57695
74.1859 6.59706 0.50725
128.831 14.42 1.60536
169.236 19.1169 1.86378
135.633 16.9586 1.96641
41.6561 4.99715 0.626922
78.4436 8.40184 0.935103
62.7527 7.86686 0.946499
127.953 14.8369 1.67184
129.393 15.3082 1.59907
107.357 13.5653 1.60183
76.5503 9.91825 1.17784
69.8299 7.16045 0.760767
81.2874 10.1183 1.33652
165.639 19.1604 2.53182
42.1528 4.28418 0.400845
147.965 18.3927 2.30812
71.4294 8.58353 1.12918
120.969 18.41 2.94116
37.9717 3.7404 0.367204
118.545 15.0933 1.97543
101.855 12.0932 1.41996
96.8978 14.0835 1.92863
121.535 15.1455 1.95812
161.146 24.118 3.87993
80.7616 10.25 1.22437
158.674 23.0145 3.38091
119.425 18.1407 2.36066
78.0791 11.3436 1.66092
131.27 20.6385 3.22323
141.951 19.1806 2.68717
59.3026 9.59077 1.68026
128.195 19.7504 2.9074
48.9796 8.39112 1.33006
85.7361 14.2161 2.25351
118.444 19.6119 3.35403
55.2305 9.95503 1.73972
68.4314 10.244 1.51327
81.9222 15.5898 2.88667
61.8822 9.51116 1.48748
91.2162 16.7029 3.14345
57.2258 9.12748 1.50166
42.9896 7.0633 1.06684
45.0508 7.31893 1.20436
66.4136 12.6598 2.46622
95.5008 15.4485 2.23251
65.5353 12.2048 2.35834
66.7224 13.9797 2.56765
96.4754 15.5095 2.62769
85.4875 18.8764 4.10246
102.828 15.8697 2.55233
100.214 17.7819 3.24296
33.8548 7.37262 1.565
66.8223 12.1353 2.32873
94.7065 20.3704 3.97569
52.4846 11.0886 2.45787
78.7829 13.5649 2.4015
77.4129 15.8438 3.2186
45.7912 8.81279 1.86359
115.55 27.7291 6.68101
103.749 17.6494 3.3648
57.6978 11.4535 2.37937
62.312 11.2945 1.89322
161.013 30.7013 5.66713
70.7474 15.5627 3.5391
94.3706 19.8992 4.21381
135.894 28.6998 5.91337
74.3845 16.7307 4.14979
101.407 22.5749 5.1034
75.3596 16.7349 3.49541
108.578 26.0276 5.76282
108.018 28.8702 7.49269
121.471 25.576 5.66209
78.1129 19.1476 4.72722
59.6092 15.2189 3.96929
75.5079 16.8771 3.8072
67.7629 14.1408 3.28712
57.2515 13.2702 3.23007
162.695 36.0557 8.24485
57.8219 13.6967 3.35432
46.6044 13.2554 3.91869
76.4825 16.0983 3.36501
40.7295 10.1214 2.60219
67.1851 15.1331 3.56884
63.9132 15.1758 3.84005
86.4484 20.2288 4.8298
69.2701 19.1406 5.44349
43.2271 9.79214 1.95314
60.6762 17.5084 4.83019
63.4997 18.7385 5.5343
61.7789 14.0734 3.29402
90.114 24.2774 6.23281
85.8407 24.1636 6.83277
135.629 38.0523 10.8925
26.3616 7.48436 2.47059
39.1671 10.8655 3.17104
111.679 31.0379 9.50889
133.12 31.918 7.01899
97.8855 27.3419 7.14345
156.516 44.8105 11.9861
59.0451 20.6808 6.83787
51.4578 16.53 5.266
18.8242 6.68129 2.3912
36.7704 13.1908 4.26398
32.1372 10.8021 3.85338
20.3297 6.30604 2.52071
87.5469 29.0269 8.73037
43.4016 13.906 5.06838
81.4413 23.8692 7.1792
45.2106 15.2066 5.46681
94.0321 24.1015 6.26292
28.3593 7.89784 2.16326
57.3055 19.5867 6.83976
52.5783 15.9386 5.01666
71.2854 26.6249 9.79576
49.1954 12.8878 3.34616
44.5535 15.671 5.49839
33.7691 10.2682 3.44912
55.2265 17.8503 5.62932
58.325 21.8842 7.99131
32.9157 10.1967 3.95244
97.4279 32.416 10.9756
36.6159 10.7837 3.65654
58.9983 17.0935 5.6168
108.271 34.298 10.9956
53.0256 20.0996 7.86418
142.139 51.8323 17.7162
100.657 36.2574 13.4581
55.7828 16.9452 5.56648
65.7783 23.9666 8.81167
54.3949 20.3583 7.45377
51.0265 18.7701 6.95884
37.3793 10.6594 3.09569
82.8986 31.7336 11.3526
49.7668 24.0693 10.6726
80.7516 27.9092 9.73479
70.5509 25.3595 9.38485
32.5897 10.8409 4.00954
28.9632 10.9063 4.09688
65.431 27.0951 10.0467
39.4482 15.1627 5.92458
37.3236 16.8518 7.42256
89.4308 30.8508 10.8431
28.5079 10.8454 4.21583
59.481 22.1677 8.57086
46.6079 20.6153 9.34819
43.8874 18.6855 8.66932
46.3939 17.3589 6.38732
72.9675 28.9075 11.5628
36.3116 17.3118 8.41834
59.4047 22.0475 8.16136
51.1425 21.1337 8.8171
59.1124 20.4439 7.64229
56.5027 22.4543 8.68864
48.1682 21.3606 8.9321
66.7482 32.1975 16.0997
77.1542 28.6587 9.94915
34.4337 16.1524 7.19285
30.3313 15.1719 7.04335
21.67 6.20513 2.00219
51.0869 25.676 11.8987
63.4785 24.1468 9.01638
52.4599 27.3653 13.0032
33.1657 16.9519 9.24171
53.4883 22.0499 9.52201
24.0766 9.39594 4.63274
61.8459 31.1699 14.6576
39.1471 19.5551 10.9937
67.5434 29.2467 13.3901
61.183 25.525 11.5786
113.807 53.4684 26.1511
94.6057 42.6396 19.3307
33.3343 11.5999 4.44438
82.1228 36.2971 14.5305
49.8484 23.9418 10.8887
30.9338 14.8208 6.81446
54.0442 29.5289 15.0271
48.4885 22.6596 12.2896
73.9999 33.383 15.0669
42.3117 19.9134 10.0997
44.0919 19.5001 7.94781
25.8751 13.9191 7.55857
27.0308 11.0911 5.66783
47.1966 19.5249 7.27029
43.0167 18.7903 6.71166
70.6251 43.9307 23.9317
35.2198 18.1104 9.70783
41.7696 20.7908 10.2605
25.3189 13.8665 7.74721
32.5414 16.8265 8.60946
44.0541 24.8933 13.8529
68.1051 33.1305 15.0529
33.3206 21.3227 13.2645
42.8245 21.4584 11.5999
37.528 18.6393 9.60827
61.5029 29.7715 15.0307
41.8727 20.1282 8.9924
49.4832 29.1037 16.4711
36.1561 21.3435 13.3007
52.6956 28.867 15.0703
27.8966 13.9414 7.41945
56.6065 30.6601 15.2649
29.3472 18.9964 12.0901
17.2835 11.3593 8.04725
53.3758 27.6449 13.4465
39.3622 23.0098 13.0796
28.5016 18.5892 11.1861
21.8639 15.5376 11.5325
63.726 32.6087 16.6815
43.3929 21.4631 10.018
70.6915 45.3265 26.2139
32.2216 23.4487 17.5799
53.4872 29.6187 17.1146
71.592 37.297 19.9411
127.682 77.4227 42.1358
32.4301 23.4657 16.4541
13.8352 11.5841 10.3739
50.2347 28.2634 15.6797
34.6102 20.0525 11.6647
22.5783 15.729 12.3944
57.3306 27.7437 13.4982
47.4411 32.8623 20.8731
29.6819 19.1182 13.0447
50.3896 29.0701 16.6415
26.2722 16.4013 9.58847
25.3265 17.991 12.8863
26.8185 20.476 16.9595
54.0204 25.3596 11.04
31.3453 23.379 15.0975
27.6512 19.5604 13.7554
15.7317 11.3459 8.94127
35.2686 20.3106 12.5197
37.1 20.7645 11.5807
35.6503 22.3739 13.5993
64.4089 49.9796 34.9451
17.4117 12.3391 10.4797
22.8466 11.8743 7.97533
34.1691 22.253 13.9412
37.5373 24.5494 14.8959
21.9204 16.7259 11.7462
7.45728 7.56253 7.8425
25.3707 19.4728 16.5297
47.0292 25.6289 13.7619
15.9844 11.162 9.32645
34.6467 22.2341 15.1087
38.1654 26.6476 18.2793
37.2395 22.6449 12.5835
21.7899 19.792 16.7257
27.266 17.4027 11.9142
33.5644 21.4505 13.725
31.3876 25.4592 21.3728
36.593 20.7714 11.7841
25.0783 18.9048 14.4461
41.6541 30.4122 21.5235
42.905 30.652 20.1992
16.9711 10.8648 8.05578
33.2095 27.0078 19.5043
21.8993 19.1492 16.8936
16.4782 10.9883 10.1542
37.8508 23.0947 14.3339
37.4658 28.0752 21.4321
72.4977 49.3432 29.6983
21.7286 21.4287 19.3085
25.399 21.175 18.4327
24.8828 16.6037 12.7411
33.6398 25.9287 19.9757
39.7088 28.6636 19.9636
21.5145 14.852 10.9028
10.8101 7.07421 5.60598
38.7805 34.0186 26.7552
22.1266 13.6941 9.34343
17.9383 12.6641 8.75459
26.1036 26.2775 24.8565
30.9709 25.6473 21.7373
18.2641 14.873 13.8249
22.522 13.8826 9.8487
18.4475 13.2817 9.17157
31.3659 25.442 20.2223
37.4424 29.3133 21.67
12.7113 11.4856 11.1874
18.554 13.8343 11.5197
23.9314 21.4476 17.8254
12.0816 11.7776 13.0157
18.0075 10.0642 5.98875
22.2747 20.5844 20.3632
51.8621 39.0468 29.0391
58.9982 46.5052 32.0116
48.539 43.4689 35.2407
19.8814 19.829 17.9523
17.3928 18.3814 20.1292
35.0592 27.9046 22.1833
19.5846 15.6491 14.2538
19.7325 15.6199 14.847
35.6095 28.9568 22.5349
25.7643 22.8764 19.8501
28.5104 26.0851 23.5861
33.997 31.4268 27.3183
21.8022 18.2532 18.0375
35.1445 29.5928 25.1568
30.1395 27.3765 23.757
32.4094 32.9319 31.5699
21.1324 16.1901 16.3974
48.1833 40.4991 32.5903
34.2502 30.2994 25.1704
11.6982 7.41182 5.28519
19.9963 21.1121 21.7544
26.298 20.697 17.7227
17.7625 14.8882 13.7774
16.5046 11.0039 7.23037
25.3802 28.3398 26.939
31.1282 28.0814 26.0301
14.351 10.6433 10.4981
29.8739 22.656 14.2926
22.2612 26.5092 26.1975
27.0748 27.4697 26.1343
23.0697 27.9318 33.0652
19.5556 12.7931 11.3896
20.1838 15.7402 12.8398
22.9638 22.0344 19.6239
23.2255 25.9896 26.5673
22.7866 21.0342 20.8208
27.2592 25.5681 23.1776
8.83742 8.15607 10.1579
37.6013 42.6634 48.7859
44.157 30.0561 17.3011
18.3459 20.2393 21.0753
43.027 44.1719 39.3463
8.74198 5.95477 7.08505
26.2074 24.0304 19.0072
15.3307 15.1885 12.2985
27.7759 40.3574 46.774
30.2671 30.9571 34.8295
36.5153 30.7389 22.1322
13.8411 27.3531 41.1553
36.6279 33.7481 34.3627
22.8658 19.6013 21.8497
45.8852 44.9749 44.7739
21.0498 14.8981 12.053
14.7162 10.4146 8.54157
22.6427 22.4252 21.3403
20.7367 18.4593 14.587
18.171 21.4115 23.2818
21.7462 21.835 20.4758
16.6047 19.4697 20.6323
23.9396 24.1941 20.5605
15.3744 26.9971 36.7094
9.90862 7.58123 11.747
32.3278 34.1789 39.0117
24.6607 18.1796 11.8478
21.8898 27.2852 30.2177
29.2968 30.085 27.3863
19.415 31.175 42.3577
14.675 8.98379 9.45396
16.2772 17.1722 19.0796
26.5967 30.2378 33.1384
22.9898 22.0044 22.3073
29.9991 35.4694 35.9737
24.4913 35.3814 49.8766
30.066 23.7257 22.6686
43.9755 46.7131 39.8092
10.6939 18.522 28.7051
20.275 18.8677 18.9919
13.7209 15.7839 17.8613
11.2863 14.6636 18.8333
16.7013 13.4381 10.0396
23.1041 34.6534 40.4498
7.93883 8.80538 12.6903
6.83901 8.76829 15.55
27.1346 29.8515 32.3146
22.373 24.3007 27.2739
18.4998 24.3231 30.8415
13.4621 15.5995 25.228
23.5133 17.2912 12.4181
10.9181 10.8243 12.1777
20.0623 17.4515 13.6286
11.4958 13.6995 18.5175
37.4407 41.6009 38.3128
28.1702 44.5847 54.3118
14.8121 24.2994 40.5647
16.3959 12.6479 16.3724
20.5202 17.232 13.3981
20.3373 29.8804 39.6224
21.4422 24.4625 32.159
27.369 29.9186 32.3358
11.2637 12.3684 15.5662
15.8874 20.3451 28.8212
22.9279 22.2178 22.4629
24.3485 35.4319 48.6795
45.5288 44.9944 37.5068
15.7702 29.4761 48.403
28.1406 29.7257 28.4237
21.6085 31.5209 43.054
21.0377 20.8441 23.0588
19.0999 25.1361 29.5366
9.06242 13.2323 21.4712
12.7578 11.2735 10.8084
16.5317 21.1085 22.9613
23.6068 33.6292 39.8253
9.86096 17.9902 32.3325
16.7248 14.2207 12.7184
17.5893 31.2104 51.643
36.7794 41.842 43.8321
16.3071 22.6891 31.9971
17.5575 22.533 28.9909
19.1137 24.0395 26.9526
12.3389 17.3225 24.6582
25.2491 43.2758 62.2584
13.5525 10.2473 16.7304
25.0425 33.5019 40.1007
14.7752 17.8051 22.7406
11.1507 13.2886 18.8791
24.5524 37.7904 51.725
12.5522 10.0743 14.3335
29.1731 37.5582 42.3804
11.837 12.626 12.733
21.0614 39.9981 60.5094
19.5155 27.7628 41.3628
18.6137 24.7321 39.8702
25.4573 29.1531 30.5098
9.20123 11.2952 16.2891
10.8131 19.0977 31.7015
12.0199 13.5768 23.2889
18.1789 16.5569 15.7243
18.7114 25.8074 30.8797
21.424 27.1391 28.9314
11.1381 17.3481 25.4985
16.2359 25.1883 38.032
6.92547 6.69085 16.5712
44.1796 67.5052 85.3958
27.5255 36.8948 41.8208
6.81533 18.0099 41.7132
28.2374 29.4483 29.776
11.3359 17.3257 24.883
11.5096 17.984 28.8881
18.2678 22.5802 21.9961
14.3517 29.2434 43.4596
8.07335 17.0398 36.6018
18.0805 21.6972 29.4105
17.7367 27.8919 37.9271
7.14998 11.4631 25.4356
15.8944 21.118 34.9118
15.2878 15.238 20.9782
19.2289 22.8571 23.3689
8.39761 14.8945 26.0121
12.1822 17.389 26.8634
15.1366 21.4303 32.9514
10.992 9.80016 11.5812
25.2155 39.1363 49.7876
12.3078 17.3813 23.4805
14.5804 25.5149 33.7861
12.3682 28.3045 53.3368
22.6292 30.6912 46.2631
20.8945 27.7141 28.6752
6.16365 21.0782 51.1407
23.5097 31.7479 45.024
8.29925 10.1058 21.5497
14.0896 16.5505 20.1506
14.1409 27.3733 48.5385
13.6074 19.1077 34.7331
17.1688 21.6566 32.1509
16.7777 21.5747 27.9985
16.5266 25.8926 39.0443
17.7253 30.5658 52.5648
30.1101 45.3269 63.2555
17.2346 25.1985 46.9948
32.5269 46.0733 60.0996
20.7722 30.3507 39.2895
11.6162 18.228 26.8126
6.7035 14.0017 27.1997
8.49312 10.6686 17.4284
12.5999 22.4515 36.91
8.42958 9.62861 16.7354
18.4431 33.2605 52.7606
13.0975 14.6091 17.7421
11.3075 16.5971 20.1701
5.68331 14.5156 31.6502
10.1981 14.3652 21.8
8.37209 18.2658 37.6864
11.2887 21.1764 54.3664
30.8568 30.9955 22.9786
14.9866 30.2796 43.7066
7.36967 12.9824 25.4747
9.50584 15.9962 32.2773
20.5312 33.6265 54.1434
16.3676 17.4335 18.7617
12.5986 24.7552 38.8303
8.28754 11.7052 23.3946
14.5327 22.0614 30.7395
14.0731 25.7493 45.065
17.5186 26.3542 37
19.0901 37.0334 56.9406
5.97306 3.7344 7.09204
16.192 32.4736 55.9094
16.8811 27.2226 41.0955
12.1901 20.4103 35.5645
16.1248 28.8681 46.6403
13.9833 21.7536 33.2778
12.1188 22.5664 36.4666
11.6248 29.499 63.9008
11.9164 12.1119 24.0106
15.5626 20.3763 29.1335
18.0588 28.4102 38.2465
9.18833 16.1996 25.7745
12.2909 22.7191 34.9016
6.83547 12.9766 23.3653
9.64825 22.0316 47.1741
13.4347 17.1918 25.7021
15.276 30.9081 53.273
13.3473 23.0657 46.1518
13.6107 18.6285 27.1052
11.967 24.8123 45.2837
10.1228 14.5574 21.9382
5.70853 10.6009 25.5375
15.6904 30.0531 49.4891
9.2676 13.9171 28.6821
14.7918 27.1172 60.5785
27.7701 41.5893 47.4053
6.70517 14.58 34.1473
17.2767 29.6941 39.7247
11.8947 30.0316 61.6551
11.552 16.3622 30.1153
9.26293 20.0336 46.6183
14.0194 22.5187 54.0698
31.5914 51.9851 68.2907
13.4083 22.2119 34.6495
6.61992 12.505 24.3428
7.55033 15.5628 30.4566
5.48053 6.62541 19.462
17.9657 32.9735 58.1367
24.5651 43.8458 58.2892
7.02 14.6404 31.0734
11.8641 25.3762 46.0279
5.73205 9.14367 27.9617
17.6068 27.5246 34.8026
9.9178 26.5609 56.5755
16.1038 25.469 39.8851
8.34824 13.4289 21.3318
10.466 28.6833 66.3888
14.4418 18.4894 28.7858
14.6657 28.0078 47.1457
14.2156 26.2273 34.802
5.43418 13.6925 24.9116
10.9783 32.1115 66.3649
11.1325 22.9118 50.4307
9.69965 23.6406 68.6476
17.3048 22.8935 39.0672
15.7497 29.5166 47.4011
8.56628 15.0636 37.3221
12.17 15.8256 19.7464
11.0683 22.5699 30.5947
9.07554 30.5184 70.218
12.2445 22.7865 48.7192
9.53891 15.2779 31.29
7.75195 12.7364 26.8695
11.5704 25.381 58.5986
25.0912 55.4287 102.017
10.8856 16.6782 50.5433
19.4115 26.9351 39.3062
10.7177 19.1392 34.4874
9.97622 13.3698 12.1443
2.89958 10.1386 28.0977
14.2945 30.5307 51.5799
6.51002 14.4018 35.883
11.7998 23.465 46.9165
10.3482 21.501 49.9894
13.5042 23.9781 41.3856
5.65573 11.3389 29.9542
9.25456 18.8723 43.0937
7.57772 11.0901 35.3986
17.3137 27.5 33.8745
5.74084 9.51671 19.0046
10.8329 20.0938 28.766
11.026 32.3403 66.9667
11.5516 23.8489 48.5326
9.48817 18.7925 41.239
6.93063 10.8576 24.5427
9.07747 20.0871 39.8605
7.88297 13.4582 25.7637
7.21231 14.3241 27.9919
9.19258 21.9013 48.531
8.57994 15.7308 31.8058
6.95168 18.0653 57.3481
18.0032 27.8548 36.4804
9.21199 20.7801 38.837
10.173 27.2649 57.1897
9.9542 16.6177 32.0427
7.24011 15.5125 30.047
3.23726 8.2603 32.9931
11.471 21.1863 38.8134
4.19675 2.83357 8.18085
5.91254 11.1966 24.311
9.46287 15.7807 21.8991
7.81647 18.4825 34.4379
6.99936 13.7527 22.7916
6.9211 25.3923 71.9264
12.2985 18.2155 26.1828
3.9012 9.05724 24.4749
5.98526 11.8328 32.4699
11.6984 23.0209 38.5443
7.53311 20.4115 50.7179
9.79996 18.6181 37.0324
8.00818 13.7607 24.7695
4.45739 9.70503 23.9346
10.3613 27.3676 50.1543
4.85221 9.49427 27.7637
9.90216 24.1383 51.6743
6.76393 10.7657 25.2973
8.33736 17.4442 33.9997
10.6147 30.6997 82.5236
13.5283 19.4354 24.4498
4.82953 16.3095 47.544
10.9294 22.4198 46.5372
8.6926 18.7985 50.1841
12.2969 24.5582 44.248
4.96634 6.8783 15.9709
5.94374 10.5323 18.7671
4.35234 10.5254 30.0178
8.72733 19.4961 42.7369
9.66086 16.9711 26.369
6.89879 15.102 26.3836
9.11561 27.7084 61.482
11.4891 30.2593 70.7176
15.0982 36.5177 82.2327
9.281 14.0639 37.0909
12.9921 27.3868 43.0485
4.78618 13.111 28.0251
5.19033 18.5822 50.2217
6.45168 13.7076 37.0327
3.90507 3.52609 12.901
6.37858 14.4868 32.2227
5.93491 14.0806 30.3012
5.73415 17.9913 60.8636
10.6477 14.5501 31.0008
10.0704 21.0502 38.1326
7.36696 16.3135 30.4106
5.18085 14.6192 35.489
7.25854 18.39 39.5838
4.81431 8.11969 24.1433
6.16566 11.2688 22.2193
7.00197 20.2265 47.6974
5.22817 8.08246 20.6563
5.64446 12.6343 24.033
4.16791 14.3768 50.1131
8.133 13.9901 46.6917
13.5098 22.0083 30.5715
8.34235 17.2874 23.8795
6.92879 24.1299 65.2611
12.1945 25.6376 37.4209
3.28541 12.9301 35.3271
4.73009 10.8672 29.7046
5.15782 11.946 24.8849
3.79722 11.4896 38.3998
6.1797 7.79389 9.57361
2.95821 9.73261 26.3671
4.79989 12.4485 27.0764
5.44888 19.7275 60.5159
9.92635 21.2173 50.3965
7.02315 11.2337 21.8595
5.77434 17.865 56.4648
11.2118 23.8725 51.7879
11.1264 28.2884 63.1491
6.20689 10.9019 43.774
12.7865 23.0737 28.9148
6.04632 20.3279 43.2948
4.40987 11.9623 37.1854
10.1052 27.2064 49.0758
3.76791 11.3568 33.3111
4.50066 14.1634 51.6837
8.52927 16.191 43.171
8.15165 18.3774 43.431
7.24501 15.0446 28.7399
3.76254 10.3662 35.0895
8.0681 17.9678 37.4352
6.69057 18.9342 47.7545
6.1315 10.3851 19.749
3.39952 10.1515 28.6372
4.86823 12.0509 32.1622
5.0453 12.3257 34.8451
4.74618 6.87959 18.0368
7.53991 24.056 62.0269
9.8398 23.3278 49.921
4.47935 8.04938 26.8017
5.76531 13.5932 35.5927
6.64063 13.4157 26.2315
4.56664 15.4668 47.4228
7.9862 13.2122 23.2463
7.03251 22.6916 42.5358
1.97637 9.5859 59.021
14.4061 29.0544 43.4828
4.01801 12.3199 43.594
7.32202 12.5259 19.0126
4.38784 19.8559 64.2008
8.12818 12.8249 34.3668
11.0308 28.9173 63.1719
8.03946 18.8925 40.0553
4.43145 10.5893 29.2332
5.9953 15.8881 44.1218
9.66607 24.3236 44.5227
5.7501 27.696 101.376
10.3067 12.8197 33.9161
9.27 20.3368 32.6862
7.91717 29.6923 70.4888
6.04752 15.035 51.6729
10.1999 31.14 87.4512
11.307 35.608 127.548
15.0696 17.4539 29.5015
9.53002 27.4887 68.4622
9.41703 15.9879 19.6988
1.80337 3.5867 14.1717
6.30541 21.3092 63.7718
10.1375 19.843 36.8907
8.27488 21.9007 28.455
2.02416 14.5145 53.8909
7.04361 20.7741 63.2806
8.03139 18.5529 43.3965
5.64778 12.9232 41.4708
6.35149 13.273 31.2185
5.28742 14.9311 61.4489
12.7601 25.5405 36.497
4.38789 12.4033 24.7425
4.9293 14.3489 27.2154
3.99387 21.8557 82.3267
9.34245 17.4425 31.931
5.07049 15.4399 38.211
4.06915 13.0753 54.8825
10.1441 26.8499 55.9853
5.02747 15.7228 52.1224
5.25721 10.0548 34.2825
8.02994 24.1601 61.6973
6.43967 8.25704 10.0754
1.95047 8.26545 26.9897
4.10301 11.045 31.1062
3.69595 14.7444 81.7865
15.1366 29.4973 43.4009
6.37397 21.5156 57.1538
7.51334 17.7473 58.4179
12.1903 30.2569 51.386
7.4333 24.7564 57.2119
6.03417 13.9832 29.3651
6.57863 25.9238 56.9375
3.70232 16.2243 66.8478
8.13791 18.1906 44.5097
5.96467 17.4531 48.9802
6.47663 20.1311 64.4114
7.78843 17.1394 33.907
3.36489 10.0072 34.3021
5.18162 17.981 58.7813
6.73974 13.4469 27.8998
5.21895 21.501 68.0976
9.02913 21.9861 50.0288
5.40334 16.7438 49.5433
5.8609 15.8694 47.0438
4.95902 12.8652 36.5642
4.09323 10.0217 28.9329
3.7641 11.8479 44.5634
6.96276 20.1967 57.5773
6.80358 15.2833 29.3075
1.92378 4.57673 21.1547
4.69287 18.6522 64.5445
5.47178 7.91523 26.275
3.97144 9.15148 29.3789
4.38882 8.57429 20.1196
3.49058 10.3977 47.0617
9.87355 25.3701 40.9728
3.99832 13.2274 24.1404
3.89215 25.3482 91.5239
8.53405 14.0133 28.5868
4.23433 14.7762 46.4023
4.0302 9.30291 46.7794
8.29981 17.8928 40.8211
6.55574 20.4529 59.0683
8.60137 20.9369 37.7819
4.96048 19.7946 47.3166
3.68392 12.912 44.538
3.47632 7.49309 39.3325
8.10736 22.8673 41.1309
4.09729 17.464 59.9309
5.77109 14.3033 41.454
4.08988 10.4169 44.8463
6.30732 11.348 23.103
5.14665 15.3957 34.8112
6.62957 29.1403 67.3838
4.7774 17.5736 61.0728
5.21568 14.5162 52.6343
4.80893 4.56213 9.05727
3.18976 11.5154 31.5195
2.60568 5.52736 24.4514
5.02661 16.1392 35.6121
4.63033 19.3106 59.0528
6.67692 19.5051 59.0644
4.65723 7.6963 24.1862
4.63588 16.3701 42.7921
4.56281 17.0711 65.4768
6.60646 10.2142 21.303
2.2791 8.18929 34.3954
5.4165 14.9533 37.2667
3.11548 5.4734 30.5858
7.66736 22.6701 41.45
2.56622 7.32589 31.3577
4.19791 9.45974 25.9082
6.15431 21.2285 45.3625
5.26107 22.9108 63.813
3.86437 8.53526 29.1073
4.35188 21.275 69.0475
6.01058 13.4182 41.2923
3.82238 8.17644 34.591
4.74414 13.7086 58.7451
10.9696 33.9238 63.7595
3.91052 16.5783 66.1078
6.83794 22.891 86.9457
8.95934 19.9902 52.9058
7.23632 22.2906 66.582
5.75443 12.3463 28.8865
3.0929 11.0728 50.0762
6.88973 17.6768 46.9372
4.86134 10.6987 37.2041
7.76118 32.0159 100.22
8.8014 16.3034 31.35
4.10346 12.0708 16.261
2.08321 11.9556 35.5208
3.28248 15.4059 64.1933
7.48668 18.0663 44.3084
5.05586 16.7913 40.0673
2.8669 11.9846 51.9251
4.82741 10.3444 39.5288
5.40884 14.3856 33.2127
4.61444 18.8851 63.6426
5.78564 13.5457 37.8761
5.03624 14.3058 27.7139
4.31149 25.6298 89.2897
8.12493 23.7422 70.0786
4.26995 7.70543 49.8924
7.90719 23.4967 52.2809
5.14312 19.2402 50.907
2.97409 9.15683 57.8728
8.01666 23.8642 43.3023
2.48492 9.98601 54.9922
6.26248 16.4134 45.8982
4.0035 7.81608 25.5241
3.40129 10.1713 44.7257
7.35588 24.9954 47.2172
1.90238 6.64582 32.2984
3.06192 9.56899 40.8799
4.67297 13.2445 44.9852
4.09515 9.64169 28.3213
3.40831 10.5147 37.1776
5.15103 14.0071 29.131
3.74152 17.2917 42.9998
2.03612 3.29187 20.6275
2.99134 9.05944 26.2699
4.71349 25.2483 81.9934
6.81355 15.8316 41.0626
3.32394 9.55674 24.0122
2.24983 9.00176 35.2894
3.13377 6.87584 11.7656
1.09369 7.10247 37.2197
4.1567 14.6949 46.6588
3.63221 7.69043 16.4828
1.81866 10.2092 41.4826
4.30741 15.9765 63.9977
5.77237 9.04716 19.2383
2.04453 6.62829 31.5069
4.67254 17.4754 56.5209
4.09277 9.86112 57.8491
8.6303 22.3709 30.1177
2.73926 12.6125 38.2827
4.54623 18.1701 35.5731
1.01968 4.39556 28.8946
3.29208 11.3832 33.22
2.67978 9.28955 35.4316
2.78366 7.12907 36.7409
4.81111 17.6784 55.2688
3.85025 5.54694 26.2572
4.57987 20.5068 63.7443
6.42467 22.213 70.4986
6.04038 15.6267 48.0561
4.75532 10.9857 17.7463
2.38361 17.1111 61.642
4.26807 11.6211 25.4112
0.802248 5.83967 49.8108
4.52244 12.2886 56.9236
5.01695 11.6278 51.3778
7.2872 23.7711 56.2122
3.0801 7.6386 36.021
3.24894 8.91976 56.7685
7.08048 19.4421 43.493
3.46786 11.4758 55.0244
6.31085 20.0827 74.1585
7.72632 23.823 54.2045
5.36378 15.8656 39.4368
3.74349 18.5577 56.4904
4.46888 11.2434 28.2971
2.55165 10.6927 33.8507
2.99752 12.2532 58.5658
6.07168 16.1685 36.3375
4.11516 20.1851 76.5988
5.61625 8.61583 23.8546
3.50463 13.1671 22.2433
1.86294 8.67911 24.4816
1.76658 7.27802 21.9569
1.96572 12.1028 45.1731
3.12033 9.86006 53.0619
4.58226 10.3205 37.3411
3.6726 5.97074 19.7506
3.4825 14.3453 41.2251
3.06754 8.85178 30.6275
4.14992 16.7198 41.7381
3.15262 14.4727 63.8788
4.62647 9.66875 38.4135
4.16095 14.3139 46.6482
4.84749 21.742 88.0885
7.87214 17.7583 34.6108
2.79166 7.5128 18.8999
2.7628 12.7915 40.1016
3.0155 11.8256 42.6845
3.91574 10.5636 14.0345
0.796002 10.0524 49.8121
3.89708 15.7436 62.1586
4.47566 9.56631 35.7937
3.08842 7.11205 13.2159
1.27924 7.40713 35.0092
3.4309 10.5274 31.7087
2.76963 10.436 33.23
2.55967 9.16791 38.2776
3.06799 8.83934 44.1663
4.88881 17.0891 59.7561
6.68572 32.1086 100.601
6.41545 10.8733 42.1122
6.16235 31.8926 107.194
7.79157 22.9794 60.6334
3.39317 4.3849 30.417
4.22385 15.6372 35.9601
2.11591 6.38239 32.8485
4.00024 18.6253 60.1206
3.74218 7.03052 41.1982
4.82989 12.9996 17.9399
1.69134 14.7588 66.9174
4.79269 9.36191 25.2268
2.11568 7.51899 34.3065
3.74927 11.078 19.123
1.31263 7.27258 30.4067
3.23242 13.7109 35.2523
1.86808 5.01043 26.645
2.6497 12.0306 44.0532
2.53155 5.87548 45.7087
5.2135 19.2027 52.4361
4.41981 18.366 86.1168
7.28165 17.994 30.6184
1.52699 3.83384 37.8232
5.46091 22.9747 57.1849
4.14038 15.3056 49.7551
3.73496 15.8934 42.7631
1.80107 4.01927 40.846
3.96281 9.88885 38.817
4.41198 18.0013 45.9576
2.80155 7.10622 21.8176
2.50467 13.296 50.3491
4.33659 16.3481 47.1741
2.72846 7.83945 36.8833
2.41327 2.66922 31.1898
4.99153 25.3648 74.4843
4.9308 15.6922 49.3358
3.49894 11.3037 40.9563
3.06278 10.1907 39.0773
3.38761 12.1324 32.0986
1.52448 5.37527 38.0306
2.72681 7.74383 43.5459
3.7204 8.41529 28.2133
2.93639 8.17056 16.9473
1.94544 12.5963 33.1795
2.28227 5.61362 14.8705
1.34294 7.23664 27.2834
2.04668 10.3262 72.4801
6.57455 16.4406 31.1436
2.02068 7.06297 31.2347
3.56231 16.2436 38.3908
2.398 10.1493 36.2747
2.85746 10.642 31.7751
2.47894 15.8097 77.6076
5.78719 9.49073 11.1964
1.16004 9.2822 43.2333
3.82038 15.1521 33.2032
1.90226 6.93206 29.6821
2.45394 8.05137 32.7563
2.82925 11.3083 47.7576
3.5144 9.07164 16.5508
1.42344 8.12355 26.4552
1.65721 6.36259 38.6752
3.26205 9.52488 32.6055
3.01564 14.4124 42.1627
2.2058 4.83244 35.9222
3.21818 9.05095 37.0272
3.69517 13.3786 30.743
2.46874 12.7079 25.6392
1.28174 10.0035 69.7272
5.12394 11.3619 35.3796
3.14169 13.5792 33.4084
1.59146 4.42553 37.3846
3.31269 13.0861 72.3152
5.72701 13.7759 45.9464
4.54144 14.623 34.4828
2.34118 11.4122 72.4771
6.65696 21.7042 40.2315
1.82176 3.85955 35.3687
4.26506 20.5455 63.7579
5.23095 18.5064 32.7204
1.38535 5.38344 21.4949
1.2032 7.11387 48.704
3.52336 8.10188 28.5171
2.33737 9.68762 23.1469
1.32279 3.26936 20.2627
2.21776 10.5102 34.9128
2.45835 11.8081 48.2478
3.04746 7.70061 37.7922
2.79997 7.54851 40.4865
4.10591 20.5673 67.4904
4.28361 7.39355 18.0157
2.24699 15.0621 29.3034
1.44047 6.37634 25.0253
2.01143 11.3938 55.0718
4.16273 15.7921 48.641
3.3529 10.9767 31.964
2.15952 9.6006 41.7348
3.18986 12.7937 45.6149
2.88583 8.8803 51.9269
4.53466 14.8692 43.8401
3.39692 11.988 37.1283
2.60027 9.15496 33.0338
2.17612 11.3104 64.242
4.74124 12.5613 59.9658
4.55584 10.1582 18.3095
1.82785 11.8908 36.6172
2.28065 6.13843 28.8351
2.63973 7.85592 23.0833
1.98184 10.1316 41.1053
2.44466 5.18577 30.9149
3.50413 17.9595 50.141
3.05951 11.7633 47.6148
3.62604 15.1983 36.7996
2.22845 8.48489 53.6722
3.96158 13.4934 35.0032
2.74274 15.1746 58.991
4.0257 12.9195 47.6938
3.48588 12.2216 29.7377
1.95899 9.74822 41.4597
3.19385 14.3669 42.1435
2.50998 8.58793 45.2899
3.51694 12.4599 49.6547
3.42999 14.2011 55.8464
4.05894 11.2269 27.3621
1.66225 6.14856 20.3646
1.00665 8.17147 69.7009
5.06758 10.3338 28.6394
2.03633 8.3061 65.9323
5.35679 15.3915 41.6499
3.03982 11.6116 32.3228
2.48563 13.6942 46.763
2.63228 5.21032 47.1016
3.96157 12.395 29.6396
2.1482 7.85764 33.594
2.8934 16.8577 46.6173
2.65341 5.57477 40.02
3.7139 14.3664 40.3181
2.68279 7.78209 24.6281
2.2796 14.044 50.7861
3.52171 10.7213 38.2672
2.77478 14.6705 50.5833
2.84805 5.95612 25.5399
2.46965 16.7818 37.8218
2.07061 13.5925 70.4446
4.12405 9.28947 34.6671
2.26263 6.23749 55.6292
4.76412 18.8542 50.4748
3.76241 14.2511 30.5194
1.99289 9.22707 36.2397
3.10637 21.0198 52.2806
2.40039 8.43662 47.7538
2.73001 3.60587 24.7864
1.78551 6.88687 53.957
4.46755 14.7324 39.0702
2.40627 9.90968 47.9236
3.4449 5.92919 16.5996
1.41576 4.33077 23.4093
2.3729 12.2738 49.1389
3.61082 17.5423 54.4965
3.0355 7.8995 43.8366
3.66966 17.0851 58.1152
3.6541 15.0813 67.3201
4.49059 13.7449 67.7029
4.6845 17.6629 70.4489
4.65793 9.82303 23.3697
2.00316 7.75024 17.29
1.46296 12.6338 74.2915
4.82337 12.5427 26.0823
1.64334 7.77886 31.5964
2.43233 12.7548 41.7579
2.5646 6.22891 44.005
3.9567 20.4572 28.08
1.13642 6.49771 40.1867
2.81918 11.0715 50.4417
3.32785 14.4077 105.533
8.4494 28.4636 79.1639
5.36274 19.3181 54.1209
3.8059 16.9514 47.3829
2.43696 7.74373 37.8135
2.49697 9.06753 55.2679
3.84698 12.357 34.3339
2.08456 8.81188 48.7144
2.91377 4.711 31.9088
3.30635 25.1581 68.276
4.03747 12.7884 42.0478
2.81169 13.2819 63.6048
4.53273 15.5406 37.64
2.19871 7.90156 34.5813
2.464 11.5954 56.941
4.3018 15.1766 34.6619
1.85735 8.10579 51.3058
3.76937 14.6452 36.6932
2.34868 9.91985 39.0073
2.5239 10.3318 25.3426
1.33494 12.9114 87.637
5.23576 6.32706 52.5079
4.40158 17.9905 56.917
3.77906 16.1631 53.2386
3.59483 15.3227 67.2201
4.75739 20.5226 91.936
6.06526 18.8977 51.9979
3.91319 22.5999 57.9195
3.3825 21.2597 73.3933
4.1563 5.54148 44.653
3.69384 21.6925 71.3631
4.21158 8.68361 40.3471
2.851 15.8788 68.1859
4.50095 9.99356 25.663
1.57897 4.63006 47.53
3.50548 9.34709 14.796
1.01836 7.57183 34.311
2.53124 10.1609 50.298
3.38029 12.9974 49.2516
2.84763 5.60227 20.0216
1.47232 7.22276 23.6359
1.4889 6.94896 46.1769
3.48404 14.3758 42.1821
2.34399 3.21061 36.7665
3.13927 14.6987 30.9842
2.16852 15.6355 73.7688
4.69822 11.5508 28.5963
1.92924 12.035 51.1521
3.29201 11.1014 41.5316
2.75283 11.315 43.3574
2.64567 11.3653 43.4061
2.63153 6.44826 23.7644
1.719 9.98887 28.3887
1.97799 11.2749 48.355
2.94495 10.1961 21.1589
1.3744 13.6901 73.8639
4.51104 10.1486 73.8869
5.40423 20.6792 77.8386
4.79828 14.0667 42.8926
2.88965 10.6097 56.0906
3.69795 9.21322 30.8459
2.36369 12.7622 54.6816
3.57974 11.7313 29.7329
1.92336 7.26342 40.5611
2.90071 17.0673 46.8399
2.88229 7.11418 32.7559
2.16842 7.91336 24.1547
1.58599 6.92524 19.0218
1.24159 5.20556 31.0072
2.3026 8.18856 19.0401
1.04311 4.40929 35.6038
2.61539 9.75131 33.2113
2.21842 9.99927 16.8576
0.986713 9.96128 53.9968
3.45974 4.76884 25.7934
2.30763 16.7984 44.927
2.47086 9.54257 55.823
3.45978 10.622 30.3278
2.30097 14.2597 56.5316
3.59666 12.0553 43.2559
2.46065 11.2366 62.1155
3.9909 19.8698 77.6865
4.97693 10.1829 49.3736
3.29928 9.92582 33.288
2.29004 10.0742 31.3391
2.21555 11.1934 29.5858
1.74106 8.90206 34.5358
2.0073 5.22988 25.7065
1.82351 10.941 42.5363
2.64122 8.83893 22.5295
1.224 6.03538 42.298
3.11967 13.549 22.1071
1.24277 10.0814 32.4474
1.68211 7.62795 60.0204
3.76085 5.87652 40.125
2.79677 13.4186 40.7565
2.6809 11.3117 41.2548
2.64645 10.2679 22.9732
1.40018 12.6905 62.8294
4.0505 13.9596 29.7629
1.84289 9.74815 62.093
4.36134 15.6698 38.1866
2.1199 6.93716 30.4255
1.84225 10.3073 52.5191
2.97048 4.30052 41.0307
2.7925 15.0101 85.3416
5.39681 10.0556 41.9037
2.80343 12.4089 36.8128
2.50878 10.3291 48.1697
3.13749 9.66671 38.5723
2.59624 11.0836 18.3668
1.24113 12.8148 66.6239
4.17756 13.3819 33.675
2.34372 10.5966 34.4749
2.11782 13.2606 48.0962
2.68442 10.6796 49.5467
3.2337 9.08754 63.0666
4.26548 11.6056 29.5295
1.92237 12.2054 72.9641
4.81663 19.8742 62.4851
3.78491 9.56197 35.6448
2.35804 11.9911 33.4323
2.05905 12.2671 32.9874
1.92397 5.63207 42.6376
2.63448 7.46239 25.705
1.75231 3.5415 10.1049
0.668647 5.71447 47.7055
3.35986 10.9146 13.6418
0.692769 6.16842 21.7791
1.31091 8.23726 52.1742
3.15928 10.646 74.6951
4.54814 15.7199 42.7149
2.57671 9.51734 29.2368
1.82834 4.76636 22.8177
1.60202 9.66463 29.3664
1.82283 11.3801 58.2084
3.5874 8.92034 58.5841
3.54768 10.8175 39.3095
2.34582 9.59811 60.1374
3.73533 8.62724 16.7948
1.07662 8.05874 27.3075
1.83073 7.40528 31.3599
2.00349 12.583 22.1729
1.28795 6.75496 43.5461
2.7968 11.8429 46.1445
2.8184 8.64126 29.0066
1.76458 9.88024 31.4151
1.93976 10.0655 42.047
2.58904 19.7869 81.4193
5.30913 8.90372 21.6569
1.47729 2.72088 43.9948
2.99829 12.6749 39.9243
2.66615 9.08102 28.0308
1.80245 15.1775 96.2358
6.22958 12.2481 47.192
3.08493 13.4314 35.9911
2.34676 9.51312 21.8997
1.42295 12.0295 47.0529
2.98846 15.7149 60.5061
3.46602 5.67197 29.9614
1.85622 11.2537 39.9434
2.59677 7.62774 40.2857
2.5415 12.3906 52.9566
3.33992 11.0431 21.0588
1.22916 7.59909 50.8867
3.43766 13.0765 60.4587
3.74977 13.6557 60.0646
3.63322 17.8497 44.6782
2.92317 11.1414 45.2326
2.79058 7.2533 26.2675
1.51787 3.60759 45.6031
3.10171 12.9363 55.2268
3.40088 19.4119 48.7724
2.9666 12.5333 35.0347
2.0566 9.68408 30.2052
1.8394 5.60929 35.8177
2.20975 5.35406 24.4419
1.71203 10.6809 53.8089
3.31436 7.7496 27.8455
1.85797 6.36934 22.1802
1.39194 12.0478 41.4042
2.44806 10.6226 36.4012
2.11645 7.47352 24.4567
1.54631 5.42194 50.2685
3.04946 8.38643 34.9383
2.00849 10.368 40.488
2.59056 7.39896 32.6476
1.93092 8.50539 42.1958
2.61289 11.2147 32.3023
2.0412 10.2303 37.1773
2.55409 8.0968 19.0244
1.14396 0 0