# pn-170911/RbIIR-55-USN7-1280-1959.psd
# Power spectrum* (dif=0,1,2) (really just |FT|^2)
# NOTE: only the first half! (symmetric)
# weeks: 1280-1959
# 492 clock-days, 42 excluded
# PSD: 1441
334.677 0.0657542 0.034987
13814.2 0.173641 0.0729853
116831 2.66679 0.0726689
7778.49 0.30341 0.0767694
35432.1 2.7569 0.0772533
2793.21 0.291654 0.0723888
2672.53 0.403769 0.0733506
1489.08 0.304763 0.0745077
1710.71 0.496463 0.0729399
992.956 0.321243 0.0698631
913.003 0.378593 0.0777267
742.903 0.352777 0.08276
635.811 0.37987 0.070622
576.281 0.415753 0.0783193
485.807 0.392719 0.0773515
480.27 0.465792 0.0724012
433.824 0.483328 0.0749772
401.349 0.502503 0.0722695
366.683 0.535055 0.0786498
369.833 0.589726 0.0739766
341.774 0.605238 0.0804893
309.346 0.59722 0.0753795
328.113 0.696936 0.0838727
310.473 0.74626 0.0752667
337.859 0.874473 0.0811692
312.219 0.851939 0.0815356
324.663 0.994846 0.0832183
297.742 0.991434 0.080082
297.661 1.0231 0.0781535
283.737 1.11297 0.0818402
284.113 1.1873 0.0817114
260.914 1.14776 0.0727465
295.38 1.39862 0.0830911
261.165 1.30202 0.0866718
283.272 1.52923 0.0835519
271.838 1.50691 0.081374
287.737 1.70732 0.0861818
285.974 1.86011 0.0881127
271.841 1.78723 0.0899069
281.263 1.95505 0.0962268
293.81 2.16387 0.0894935
273.898 2.03973 0.0958447
264.402 2.11257 0.0963427
269.52 2.29121 0.0952284
249.572 2.32704 0.0982771
262.288 2.50768 0.100763
284.641 2.79048 0.10096
254.071 2.69801 0.109386
291.672 3.14979 0.108279
251.298 2.81348 0.100218
261.872 3.10735 0.111516
250.842 3.05351 0.11011
269.322 3.39187 0.122033
271.946 3.57901 0.121748
249.781 3.45403 0.117901
270.138 3.78591 0.136498
260.706 3.7631 0.131902
241.173 3.70357 0.128039
255.152 3.99186 0.143378
265.844 4.30629 0.153578
235.315 3.94733 0.137178
224.854 3.97527 0.145699
263.423 4.67406 0.164448
241.098 4.57036 0.149285
236.863 4.54324 0.173289
239.449 4.64743 0.176314
243.294 5.06543 0.168486
217.333 4.58366 0.179813
213.957 4.67625 0.166892
232.832 5.17097 0.183818
231.073 5.17484 0.189227
223.508 5.35241 0.196186
240.336 5.86736 0.218152
225.858 5.6383 0.232895
209.762 5.3308 0.22108
201.899 5.36415 0.213465
224.272 6.12415 0.231233
221.239 6.10669 0.244414
223.995 6.43052 0.269893
194.743 5.78082 0.248006
208.641 6.23643 0.263147
196.281 6.04416 0.258136
207.667 6.59686 0.272936
187.728 6.0449 0.273884
209.676 6.88729 0.309576
182.092 6.11163 0.291235
191.001 6.62994 0.306723
171.445 6.05298 0.281363
187.291 6.84803 0.333077
178.675 6.67643 0.319233
190.403 7.1027 0.349447
217.37 8.41744 0.408727
177.722 7.10355 0.351468
166.182 6.67244 0.335533
174.709 7.16518 0.39794
179.634 7.59421 0.395692
202.332 8.69079 0.439262
184.643 8.10531 0.432405
172.195 7.76608 0.415773
174.68 8.04111 0.44694
173.294 8.13126 0.46285
161.005 7.76346 0.451646
173.378 8.36675 0.479705
162.953 8.12663 0.488064
154.384 7.8057 0.439294
155.367 7.91436 0.470501
155.639 8.20385 0.502771
156.308 8.35658 0.525566
157.944 8.62697 0.549012
150.638 8.3818 0.534201
151.004 8.57215 0.546402
153.643 8.96218 0.601612
145.937 8.53859 0.550103
153.127 9.17136 0.610917
147.383 9.0038 0.645084
153.98 9.45599 0.653361
149.2 9.39144 0.66094
130.706 8.40122 0.632394
134.434 8.83916 0.640882
139.794 9.53178 0.706702
145.221 9.67967 0.707211
135.146 9.30417 0.706342
131.156 9.01961 0.659719
137.928 9.87158 0.781552
146.821 10.5156 0.825262
120.587 8.87607 0.724935
132.765 9.90351 0.811758
139.614 10.6207 0.860896
142.745 10.9451 0.891548
148.103 11.4154 0.949145
125.835 9.99613 0.851916
134.859 10.7208 0.934086
135.265 11.0613 0.97932
131.308 11.0343 1.02203
122.329 10.1511 0.894707
125.556 10.6632 0.94228
122.645 10.6212 0.953895
129.263 11.3853 1.0412
135.383 12.1824 1.12403
122.948 11.1226 1.0721
118.095 10.7127 1.06038
116.59 10.7437 1.02857
116.969 11.0547 1.10547
116.159 10.9713 1.14346
136.15 13.5993 1.4148
128.12 12.3524 1.26868
114.042 11.3915 1.18448
106.981 10.8117 1.18195
118.767 12.1257 1.32401
108.743 11.3157 1.25363
119.143 12.3356 1.3211
112.189 12.066 1.32555
112.443 12.0381 1.36159
120.065 13.279 1.5351
112.211 12.1674 1.42902
126.433 14.3309 1.71336
109.324 12.3648 1.42447
102.797 11.8448 1.45105
114.409 13.3938 1.65762
109.539 12.9207 1.56382
107.734 13.1257 1.63663
111.258 13.5621 1.70846
106.979 13.1552 1.65815
97.0649 12.2125 1.56156
115.044 14.4717 1.84318
109.546 13.8687 1.77203
102.534 13.1337 1.73866
107.985 14.266 1.91899
109.021 14.4196 1.96536
105.699 13.8592 1.88146
99.149 13.4602 1.84417
90.6674 12.4038 1.74153
108.554 15.006 2.08095
97.8301 13.5382 1.91743
102.266 14.5785 2.18338
100.292 14.1657 2.06683
105.301 15.0904 2.15615
96.2254 14.1481 2.1179
101.519 15.1285 2.29315
100.689 14.7474 2.26974
103.2 15.6191 2.40083
92.8962 14.1609 2.2663
96.6066 14.9824 2.35252
96.4138 15.0722 2.42374
101.03 16.0502 2.5604
103.783 16.6038 2.71076
99.6281 15.9031 2.59677
101.893 16.8659 2.83228
98.4383 16.2045 2.72703
95.608 15.9162 2.67928
92.5734 15.5914 2.65032
88.5905 15.6678 2.81628
114.687 19.5603 3.29612
98.0473 16.8671 2.93216
92.9384 16.2844 2.91532
87.0784 15.3518 2.69778
91.7409 16.331 2.93939
86.1408 15.8469 2.96371
85.4752 15.5895 2.9252
88.0805 16.0944 2.98109
84.3728 15.9625 3.05071
94.6207 17.7286 3.40608
85.2189 15.881 3.02214
88.9532 16.9178 3.20196
90.5724 17.5088 3.44364
88.6491 17.2124 3.36778
88.6192 17.4055 3.48066
89.6048 17.8084 3.52457
79.6337 16.1297 3.29859
85.0166 17.1868 3.56881
81.7751 16.7907 3.55804
79.1418 16.4539 3.4526
81.9277 17.1854 3.6617
76.6541 16.4319 3.53421
80.653 17.2457 3.71846
86.7007 18.9192 4.17315
89.4869 18.4126 3.90198
77.67 17.1625 3.67881
82.4565 18.5784 4.17087
83.7958 18.7543 4.25504
77.5239 17.5018 3.97965
81.2482 18.2543 4.06251
74.6025 17.0667 3.92271
75.8312 17.2021 4.01202
77.7155 18.1475 4.28934
81.7826 19.0445 4.49772
80.0795 19.2212 4.65463
75.1645 18.1752 4.38772
83.9402 19.9635 4.81027
75.0598 18.3465 4.50817
79.3578 19.0441 4.64249
73.2007 17.9886 4.48033
79.3308 19.8775 4.97752
78.3897 20.1669 5.16199
69.5425 17.4429 4.49608
72.7542 18.4119 4.74702
79.1114 20.3053 5.27948
73.5295 19.1752 5.11095
72.6007 18.5869 4.88779
74.7971 20.1389 5.43941
77.0272 20.4668 5.49153
76.1259 20.4901 5.54085
73.1477 19.6187 5.30767
73.0699 19.9648 5.54676
74.9255 20.6732 5.7367
69.0257 19.2092 5.39354
69.8771 19.4785 5.45586
71.6626 20.1704 5.65099
70.5268 20.3478 5.94388
70.8114 20.0481 5.76733
72.4653 20.8048 5.98601
65.9023 19.549 5.8519
69.2835 20.2263 5.92776
64.9754 19.0799 5.62825
62.7155 18.4951 5.45493
65.8597 19.9975 6.15921
68.4467 20.5604 6.22228
66.8446 19.9527 5.99702
66.7518 20.6407 6.38857
65.8153 20.1628 6.39567
67.9458 21.0787 6.42103
61.0674 19.0271 5.99464
62.022 19.6829 6.32344
64.5983 20.5906 6.65338
73.8214 23.4107 7.46485
65.5005 20.9513 6.73927
58.6589 19.5296 6.57175
64.9038 21.499 7.18169
61.751 20.4522 6.75823
64.6191 21.1045 6.94451
62.0544 20.9761 7.18531
61.6282 20.5734 6.93666
62.4153 21.4151 7.33261
67.6349 22.641 7.73667
60.82 21.1265 7.34716
60.9569 21.1327 7.35948
60.6737 21.8142 7.86556
64.3776 22.6695 7.83064
61.5397 21.6803 7.66224
58.9774 21.1576 7.6233
54.8466 20.1968 7.50252
59.5848 21.4095 7.87588
65.0505 23.1192 8.2922
61.6407 22.6399 8.28878
67.7723 25.3894 9.49852
58.3911 21.4807 8.02243
56.8295 21.1146 7.95468
57.672 22.1326 8.5929
80.2225 30.713 11.6146
56.6724 21.2881 8.19085
55.0885 21.1173 8.19889
59.9996 23.0281 8.82765
56.1233 21.9858 8.67364
62.1166 24.2077 9.43949
58.4805 23.4811 9.50493
58.5355 23.4622 9.36805
59.0508 23.504 9.50699
56.572 22.5384 9.09189
56.0253 22.5487 9.19501
54.7079 22.3855 9.22673
55.8439 22.7101 9.35601
55.5291 22.665 9.36196
53.4736 22.2635 9.38837
56.3282 23.5142 9.75087
49.4317 20.8074 8.87933
51.1843 22.043 9.52634
55.7128 23.898 10.3924
51.7345 21.6668 9.12534
54.052 23.5711 10.2028
50.5196 21.7441 9.43609
49.4468 22.0584 9.84912
51.969 22.7308 10.1428
52.2199 22.6148 9.93987
50.0845 22.5202 10.0731
51.9429 23.1002 10.3748
49.8723 22.4954 10.1319
49.1479 22.772 10.6422
51.5371 23.3923 10.7356
51.0997 23.5202 10.8915
49.8266 23.4646 11.0157
49.1246 22.9334 10.8294
47.7549 21.9534 10.2862
49.3484 23.0453 10.7519
50.0439 23.6728 11.1507
47.6626 22.7979 10.8207
48.6944 23.565 11.3508
48.6808 23.5282 11.4169
47.8797 23.0006 11.2191
47.854 23.7517 11.8477
49.2761 23.7936 11.6832
44.9783 22.303 11.2424
49.0089 24.3403 12.0966
47.8161 23.8187 11.7843
45.9632 23.4073 11.6897
44.6654 22.4084 11.2116
45.82 23.8087 12.2942
44.3234 22.915 12.0962
48.0673 24.1912 12.2232
43.6153 22.531 11.7148
43.6343 22.998 12.3893
50.7845 25.6959 13.085
47.5896 24.9066 13.1789
45.5256 24.0588 12.8471
46.5288 24.7841 13.1892
46.9938 25.2977 13.5121
46.0388 25.0372 13.6265
45.4497 24.2498 13.0763
43.6891 23.9727 13.3371
44.2425 23.9456 13.104
43.533 23.9536 13.4024
43.8294 24.1353 13.4255
40.4108 22.5105 12.6658
46.6317 25.8722 14.5495
41.6238 23.0928 13.1169
42.0103 24.2002 14.0999
43.1242 24.0488 13.5574
45.9332 25.7497 14.668
40.4946 22.6761 13.0048
43.4153 24.8942 14.207
42.4303 24.3187 13.9638
42.6056 24.755 14.3413
42.651 25.7793 15.3028
41.6587 24.497 14.6098
40.807 24.1717 14.3819
39.4181 23.2758 14.0838
40.095 23.8521 14.3252
38.6502 23.6987 14.6192
38.1115 23.5514 14.6857
41.322 24.3442 14.5057
38.8554 23.706 14.7592
39.6856 24.2328 15.1002
38.582 23.4374 14.396
41.4121 25.9776 16.1571
38.9506 24.1466 15.4737
42.2737 25.9142 15.9521
40.8881 25.9404 16.3638
39.2709 24.5148 15.3372
41.6385 26.8377 17.0615
34.9212 22.8287 15.1504
36.9367 23.1191 14.7935
38.1615 24.73 16.2717
40.7981 25.2623 15.8886
36.1988 24.7318 16.838
38.2352 25.2609 17.072
50.8302 33.3372 21.3182
36.2193 23.937 16.0717
37.9791 25.2682 17.0274
37.1171 24.9524 17.1305
35.9199 23.3068 15.4213
34.2572 23.3389 15.7715
34.3168 23.0356 15.9585
37.1214 24.5529 16.3649
37.182 24.9207 16.6109
33.9555 24.615 17.5892
34.792 23.2606 15.9743
36.0256 24.8717 17.258
37.1085 25.8497 18.3803
39.1343 27.4524 19.4109
35.5014 25.2217 17.9238
38.3062 26.9083 18.8255
33.5006 23.4635 16.3993
34.6406 25.5645 18.7235
35.183 25.8055 19.2563
37.18 25.7829 17.9004
33.7353 24.9798 18.4182
33.697 24.1794 17.7347
34.7605 24.8779 17.7394
28.9772 20.9203 15.8637
32.1371 23.6298 17.6449
34.3517 25.9015 19.329
32.8023 24.1474 17.9082
33.2181 24.8609 18.7164
31.3351 22.8026 16.758
31.964 24.0654 18.5195
33.2594 24.4403 17.7085
32.3731 25.6432 20.1801
32.2122 24.1695 18.7138
30.3586 23.2391 18.5207
31.4749 23.8416 18.231
30.9145 23.9118 18.6293
31.9475 24.2615 18.6398
31.0732 25.1559 20.2339
31.0245 24.0243 19.0998
30.9276 24.7134 20.0546
30.9247 23.8401 18.8799
32.9183 25.7792 20.2173
32.9299 26.3649 20.9435
34.1034 27.468 22.1552
30.9664 24.2164 19.5126
30.4056 24.5863 20.0463
32.3342 26.0581 20.6786
27.651 22.8992 19.1001
30.3599 24.9889 20.5255
29.57 24.7282 20.7154
27.746 23.3899 20.3043
30.9758 24.7372 19.9939
30.7614 25.8443 21.6164
31.3064 26.1461 21.665
28.3107 24.3944 21.2181
29.208 24.478 20.9027
29.1311 24.3134 20.4826
27.7358 23.372 20.0796
27.0355 22.6149 18.9513
27.3303 23.7526 20.9427
30.8084 26.0119 21.9548
28.7447 25.2994 21.9453
28.798 24.9735 21.8771
27.1198 23.0237 19.9258
28.3532 25.5799 22.8317
28.6457 25.51 22.6983
27.4438 24.0474 21.6236
28.8411 25.2572 22.682
28.9437 25.6884 23.388
28.3901 25.1497 22.8376
30.3435 26.3761 23.1412
27.4569 24.2999 21.9614
29.2624 26.2472 23.4157
27.9108 25.3733 23.1994
25.7368 23.4528 21.4853
26.8128 24.5025 22.3877
27.7461 25.7572 23.547
25.2002 23.5867 22.4987
27.1536 24.6349 22.5616
25.4359 23.859 22.2014
24.9969 23.6275 21.7672
24.584 23.9244 23.5476
26.9199 25.223 23.8728
28.0638 26.0603 24.1572
25.4352 25.0167 24.6959
27.2982 26.0688 25.6839
26.8111 24.239 22.4981
25.6597 24.8406 24.2305
26.1188 24.585 23.3137
26.3003 25.9355 25.412
26.5854 25.5384 24.7672
26.887 26.4401 25.9594
23.6598 22.6083 22.7576
26.5042 25.7304 25.1693
25.3792 24.5952 24.0661
24.2215 23.7248 24.0775
33.2918 33.2743 31.6027
24.7433 25.1931 25.9198
23.777 23.576 23.7589
23.1237 22.773 23.3569
24.2009 23.8883 23.8643
23.8617 24.2659 24.8857
23.4627 23.8378 24.4554
23.4695 23.8099 24.3538
23.3637 23.1184 23.1558
23.6231 25.472 27.3489
24.7539 25.2542 26.1007
22.6737 23.3039 24.4957
23.6313 24.6096 25.4898
22.7998 23.5782 24.8086
22.2151 22.7675 23.7266
23.5535 24.6777 25.8045
23.4321 24.926 26.247
21.6611 22.9779 25.0667
26.4265 27.7936 28.7556
22.8981 24.7771 26.5273
22.4639 24.5908 27.0576
24.1241 25.7472 27.5927
23.4195 25.1494 27.4601
23.5439 25.0821 26.6061
20.7566 23.5517 27.0196
21.6969 23.2816 25.6336
22.4838 24.2449 26.6432
21.3116 23.5419 26.6357
24.4706 26.7168 29.3063
22.8907 24.8164 27.3305
22.5785 24.4193 26.5992
21.5174 24.5641 28.2041
21.6891 23.9408 26.6806
20.5584 22.8063 26.3402
21.9678 24.1116 26.8743
22.2377 24.677 27.5296
21.6752 24.7372 28.2677
20.714 23.1514 26.5704
22.2078 25.3386 28.7525
21.0157 24.6104 28.8652
20.4304 22.6839 25.8122
19.8363 22.9608 27.2916
20.4748 23.9088 28.4568
21.7109 24.1871 27.3105
20.7868 24.3565 28.4744
21.5751 24.5668 27.752
19.1164 22.8105 27.4602
19.7009 23.3938 28.0294
20.9311 24.4074 28.5309
20.3625 24.387 29.3388
19.6956 23.1863 27.6625
20.3502 24.4691 29.9832
20.9782 24.4151 28.8665
18.7653 21.5592 26.0506
19.702 23.6343 28.1064
19.4929 23.2943 28.3355
18.4749 22.4528 27.5573
18.162 22.0875 27.086
20.0565 24.5559 29.7644
19.5501 24.3911 30.6846
21.0407 25.4775 31.2747
20.1943 24.4941 29.7056
19.3448 23.3965 29.2948
19.5459 24.1934 30.2868
19.4288 23.336 28.4575
18.7865 24.1655 31.7657
20.5748 24.1712 28.3332
17.8645 23.1614 30.0548
20.2006 25.2104 30.9117
18.2768 24.0016 31.2164
18.5501 22.9299 28.6117
18.3683 24.2548 32.2644
18.6719 22.7458 29.1585
18.4341 23.2405 29.1552
18.5538 24.5031 32.3285
19.0199 23.6431 29.9327
19.5166 24.6013 30.8418
17.6004 23.8964 32.4516
19.1315 24.6983 31.7477
17.6995 23.0345 30.4329
17.6845 22.8838 29.8818
18.1667 24.0963 32.1003
18.5143 24.1358 32.0791
17.749 22.6972 29.6205
17.2749 22.5379 30.1842
18.2786 24.4035 32.0024
16.4592 21.8813 29.0779
17.2808 23.1341 31.3109
17.2144 23.0234 31.6716
17.5093 23.2866 31.2246
17.0874 23.0235 31.9298
17.2011 22.831 30.8509
17.2563 23.2564 31.5806
16.2796 23.1902 32.9659
18.0035 24.3578 33.6129
17.1712 23.8718 36.8435
24.1624 31.2033 39.2111
18.2196 24.624 33.2594
18.1907 25.5438 34.5992
15.1498 20.676 29.7791
17.5481 24.3956 33.6631
16.5462 23.4102 33.764
16.8842 23.0372 31.6998
16.5161 23.1459 32.4689
16.1872 22.9036 32.7805
17.9767 25.1068 35.2172
16.4685 22.1557 30.9796
15.7915 22.0425 31.4513
16.2756 22.8117 32.223
16.2866 23.5709 33.3016
16.5903 23.7847 34.2315
15.5966 21.9637 31.977
15.5863 22.1388 32.5275
15.046 21.3774 31.2974
16.4028 23.3498 32.4338
14.9682 22.344 33.328
15.5389 22.2675 32.4753
14.8564 21.7774 32.3677
15.1863 22.2751 33.5846
16.166 22.9215 32.4941
14.5922 21.9166 33.589
15.547 22.6658 32.5221
15.0494 23.0879 35.3384
15.0485 22.3936 34.4904
15.4249 22.0427 32.1895
15.7412 24.0194 36.6249
15.3247 22.8443 35.3583
15.7452 22.8392 34.5129
16.2447 24.1742 35.7867
15.0083 22.1721 33.3093
15.4965 24.355 37.9737
14.9565 21.7035 33.1314
14.389 21.5696 33.1312
14.818 22.2703 33.7151
13.9469 21.4701 32.7566
14.1655 22.5154 35.6844
14.8996 22.5746 34.1391
13.9311 20.911 32.782
13.4851 20.729 33.142
15.4576 23.9223 35.5692
12.802 20.4943 33.2196
13.5782 20.8186 33.0928
13.861 21.7842 34.9247
14.3664 21.8811 34.769
14.2267 22.0428 35.3458
15.1192 23.4821 36.9455
14.5466 22.534 34.6242
13.0715 21.0158 34.9876
14.5869 22.903 35.3466
13.011 20.8164 34.4657
14.609 23.4714 38.0386
14.7709 22.9976 35.8438
13.4855 21.756 35.1732
14.2974 22.8989 37.1262
13.8519 22.6141 37.222
13.6132 21.1062 33.7224
13.0749 21.5889 35.8158
14.0211 22.6145 36.5303
12.9089 21.1332 35.1811
13.45 22.0337 37.1068
13.4114 22.1491 37.836
13.7092 20.9406 33.2554
13.1116 21.8885 36.3884
13.4246 22.4691 38.2506
13.9491 22.9765 37.9038
13.0562 21.0622 36.1855
14.4009 23.7246 37.6504
12.7519 21.1492 35.7849
13.0415 21.5439 36.368
13.0962 21.7338 36.7851
13.1281 21.6255 36.4415
13.8433 23.738 39.5
11.6348 19.3649 34.0628
12.158 20.3684 35.795
13.4368 22.2421 38.0727
12.8727 20.319 32.7695
12.4872 22.5505 39.5625
12.0302 19.9162 34.1096
11.4577 19.3879 34.2418
12.0718 20.3971 35.4238
12.0537 20.9999 36.4826
12.2159 20.514 35.3401
12.91 22.967 39.9285
11.3536 18.592 32.8405
11.8364 20.7611 36.77
11.7498 20.2527 36.5368
12.7549 21.8773 38.4297
13.0399 22.5702 38.5743
12.2373 21.3099 37.5607
11.4486 20.2584 37.223
12.7141 21.8477 36.7186
11.1635 21.584 45.0253
17.4245 29.2648 46.9809
11.9253 20.7956 37.4498
11.9599 21.589 38.8703
12.0285 21.0105 36.8005
11.7819 21.3374 38.7681
11.4016 20.3964 37.2947
11.9386 20.8242 36.9262
10.8655 19.1571 33.9295
10.8263 20.5741 38.0953
10.6779 18.7671 35.0747
11.1219 20.008 36.1299
10.6851 19.5488 36.8295
11.8334 21.484 38.8744
11.7725 21.9275 40.2601
11.123 20.8605 39.4751
11.6066 21.236 39.3521
11.02 20.5854 40.1686
11.555 19.6472 35.1346
10.6436 20.1502 38.0903
11.0918 19.5419 35.224
10.8511 20.7275 38.9152
10.653 20.1185 37.8472
10.9422 20.7512 39.782
10.5725 18.6251 35.4474
11.0023 20.8786 39.6178
11.8251 22.1812 41.3688
11.3364 21.444 41.946
11.2987 20.7575 38.4939
10.47 20.4251 40.7481
11.6511 21.3395 39.1855
10.0901 18.9839 37.113
10.6186 19.8443 37.9401
10.7589 20.3997 39.5919
11.574 22.5386 42.0248
10.0224 18.5132 36.3762
10.2257 19.7921 38.8371
10.5773 19.4576 34.3954
9.38084 20.0265 40.343
9.5699 18.0748 36.5459
9.76758 19.2894 38.2384
10.3205 19.9788 39.9513
10.248 20.7473 44.3397
12.3261 22.7319 42.9889
10.8606 20.6783 39.384
9.89421 18.8397 37.0526
10.1699 21.541 43.5107
10.1233 19.1578 37.6422
9.60343 19.3686 40.6537
11.1905 21.3224 40.5729
10.1642 20.7592 42.5117
10.4703 19.7093 37.5523
9.44888 19.3894 40.533
10.6666 20.1282 37.5914
9.57005 19.8065 40.2441
9.49623 19.3421 40.3425
9.78571 18.9236 39.0321
9.92847 19.6555 39.2112
9.5785 19.1866 38.8825
9.82545 20.6385 43.7543
9.56474 18.6622 40.8592
10.3478 19.7468 40.9026
10.5922 20.4477 40.2725
10.0845 19.8391 37.9315
9.11145 19.0939 39.0973
8.95673 18.8765 39.1493
8.85704 18.5053 40.8316
9.5277 18.499 37.6859
9.42772 19.5624 41.1546
10.1625 20.9999 43.1032
9.55731 19.7073 40.8782
9.15052 19.137 40.8249
9.26482 18.5389 38.279
9.16366 19.3506 40.9821
8.994 18.2381 39.5299
9.6987 20.1011 41.5133
9.48018 20.2051 43.8872
10.1159 20.1758 40.7146
8.68215 18.1595 38.604
8.85753 18.5082 39.1409
9.02408 19.1645 40.0688
8.94918 20.2024 44.4487
9.3289 19.6738 43.6878
9.63195 19.6767 41.9191
9.1865 19.1449 40.9092
8.5639 18.3175 41.6607
10.1437 21.8546 44.9479
8.97497 19.0491 42.518
9.21298 18.7062 40.1224
8.78461 18.7401 39.8972
8.53489 18.8718 41.4154
9.22598 19.697 42.874
9.03364 19.1548 41.5246
9.35947 20.1309 41.7571
8.29988 18.8427 42.728
8.14261 17.7351 40.2504
8.67904 19.9267 51.8962
12.6438 25.4522 48.0136
9.03693 19.7066 42.98
8.70848 19.8313 44.7757
8.71899 18.6703 40.4502
7.92629 17.4577 39.6887
8.73299 19.2944 42.0597
8.5333 19.1021 43.2684
9.03067 20.0758 43.5515
8.09617 17.792 41.8434
8.93242 18.8115 40.9499
8.54972 19.4284 43.7639
8.40371 17.6259 39.4184
8.24254 18.2256 41.2684
8.19304 18.267 41.2307
8.27537 18.3873 41.9068
8.79919 19.7449 44.912
7.98611 17.2596 39.1543
8.1532 18.0707 40.3443
8.07454 18.4158 41.9519
8.01742 18.4576 41.9366
7.60214 17.1087 41.9234
8.24143 17.3401 39.5962
7.76789 17.4332 40.5627
8.39766 18.5294 41.47
7.70002 17.4701 39.0254
7.35466 18.0692 42.7725
7.59463 16.6739 40.4724
7.98478 17.3188 40.6396
8.73967 19.9647 44.2109
7.84212 17.6262 40.7052
7.80654 17.9 41.0018
7.33672 17.1587 40.2362
7.48392 18.176 44.8151
8.3171 18.8902 43.6292
7.3542 16.3256 38.5695
7.54794 17.8062 42.684
8.08454 18.4675 42.1498
7.50925 18.2704 44.8444
8.24944 19.4786 46.7736
8.19083 18.5686 43.3815
7.66599 17.1262 38.8464
6.90053 16.8516 42.6791
7.77123 18.0072 42.4302
7.68826 17.7581 42.8272
7.61567 17.5732 41.4847
7.417 17.4339 41.21
7.571 17.7814 41.4589
7.7133 19.4989 46.5984
7.05435 16.252 40.1128
7.34511 17.2861 41.4885
7.35205 17.4826 40.8937
6.85984 17.324 44.0345
7.57351 17.4224 42.5423
7.55094 18.1993 42.8087
7.11117 17.5658 44.4372
7.7625 18.2379 43.4506
7.11954 16.5228 40.087
7.00264 17.2374 42.1195
7.33283 17.8471 43.1642
6.98518 16.7695 40.1156
6.47562 16.1973 42.625
7.34728 18.0687 46.6505
7.49145 17.497 43.0732
7.29229 17.7761 42.097
6.43296 16.0197 42.9744
7.77611 18.1448 42.9635
6.73374 16.489 40.8255
6.93572 17.3132 42.7108
7.02363 17.433 43.0342
6.80408 15.8723 39.3464
6.62501 16.7346 42.8455
7.43629 18.9715 45.4737
6.77247 16.1987 40.2172
6.97325 18.3507 46.1839
6.7542 16.2245 42.2417
6.66433 16.2585 42.4573
6.92245 16.1586 41.2304
6.61431 16.0046 40.9888
6.77743 16.3601 40.9297
6.90116 17.3176 43.9471
7.14658 18.2034 44.6995
7.00796 18.0237 45.2366
6.45989 15.3726 40.8332
6.60485 16.7699 42.76
6.43056 15.8863 42.5063
7.26125 17.8382 42.7519
6.21202 15.6528 40.2581
6.55788 17.7316 45.2413
6.57431 16.2921 41.378
6.19673 15.7278 41.5598
6.58837 17.0375 43.2719
6.46828 17.6925 46.0143
6.51564 16.1187 42.7036
6.51 17.0642 47.3685
7.11395 17.7041 45.9945
6.6938 17.9971 57.9846
10.1584 23.4969 51.1443
6.71578 16.5719 42.9264
6.65118 17.5302 45.0232
6.55248 16.2729 43.2334
6.6424 17.5853 45.1304
6.16821 14.7339 39.0005
5.98202 15.6244 40.8585
6.08906 16.9311 46.5183
6.53085 15.9131 41.1328
6.08546 15.7618 42.371
6.32912 16.036 41.0815
5.90457 15.5513 41.4483
5.97713 16.3259 44.9644
6.5471 16.6 44.7376
6.08094 14.9205 39.356
6.0069 16.4482 45.0878
6.71367 17.0058 42.1377
5.75818 16.0099 42.6642
5.69141 15.0543 41.04
5.69572 14.6655 38.6349
5.5113 15.0411 39.7473
5.55029 15.1615 41.3606
5.66022 15.2181 43.5664
6.12756 15.8996 42.0708
5.39568 14.2797 41.2981
6.36027 16.9754 43.5736
5.56819 14.6331 41.2165
5.99787 16.0018 41.5806
5.53547 15.3335 42.9732
5.81892 15.3204 42.1303
5.73076 15.6264 44.3087
6.18933 16.1421 44.127
6.29045 17.4065 47.1053
6.20559 15.8175 42.3746
5.95991 16.2417 42.9537
5.72827 15.4267 42.3341
5.57927 14.9301 40.2345
5.49323 15.6719 46.3903
6.18207 16.4706 44.1046
5.63394 14.7581 39.9063
5.46049 15.1271 41.4274
5.20363 13.9799 40.9321
5.51502 14.8215 41.7994
5.63726 15.6762 44.0469
5.7962 15.806 43.5891
5.52484 14.5098 39.8513
4.88589 13.8347 42.7252
5.76046 15.6716 43.0051
5.64527 15.4809 44.3009
5.96735 15.6833 40.0052
4.8755 13.5728 41.6294
5.8393 16.705 45.2608
5.23352 14.2294 41.737
5.45477 14.8948 43.5384
5.58855 14.7003 39.6527
5.22541 15.2638 44.8869
5.58821 15.3077 43.3856
5.4597 14.3403 41.8605
5.51948 15.1615 41.329
5.3964 15.1619 41.6619
5.18599 14.6575 41.9145
5.35247 15.0345 42.659
5.22566 14.6543 41.2286
4.87031 13.7414 42.3327
5.59132 15.1233 42.0838
5.48838 15.7651 45.3099
5.66462 16.2112 45.9197
5.51858 15.1552 43.7582
5.41633 14.989 42.121
5.02013 13.6315 38.6955
4.89129 14.9662 44.4196
5.42153 15.6626 44.6093
5.24039 15.3285 45.6257
5.36766 14.7442 43.8405
5.35961 14.9657 42.1751
5.17139 15.0255 44.0679
5.20915 14.4769 43.1989
5.23344 15.0552 44.8307
5.36817 15.3484 44.4321
5.03644 13.553 40.1216
5.16092 15.1439 42.9339
4.98928 14.6701 44.5664
5.19754 14.2034 38.865
4.5731 13.9755 43.2293
5.0248 14.5504 45.9713
5.5463 14.5269 39.9722
4.62903 13.2114 39.731
5.10521 15.4523 45.846
5.02763 14.5445 45.4214
5.43319 14.2527 38.7639
4.60397 13.7262 40.0214
4.74726 14.3889 42.6618
4.78233 13.9241 43.7369
5.17747 14.8385 41.151
4.56459 13.8194 43.712
5.06378 16.1493 59.6959
7.73339 20.3527 46.9208
4.66131 14.8917 46.0189
4.98678 14.3415 44.0015
4.87792 14.1312 44.3505
5.24477 14.568 43.0548
5.0401 14.8897 43.7088
4.74614 13.7437 43.0055
4.88942 13.5949 40.3196
4.64149 13.9214 41.7798
4.85044 14.5187 41.7467
4.40702 13.4306 44.331
5.04021 14.4177 43.5933
4.80545 13.6159 42.229
5.01146 15.0178 45.3042
5.00693 14.4146 41.6561
4.36597 12.6171 40.2524
4.75803 15.0394 46.1788
5.02633 14.5403 42.8281
4.77997 14.8922 44.8701
4.78223 13.645 39.1282
4.22297 12.9892 40.8172
4.52192 13.7404 42.7743
4.63123 13.8577 43.2649
4.65306 13.8121 41.5966
4.58564 14.0031 42.8135
4.50105 13.4663 42.5063
4.48695 12.8887 41.262
4.82199 14.5557 43.7237
4.5623 13.8458 44.2907
4.75759 14.0561 40.4936
4.21749 12.892 41.931
4.60916 14.347 45.3347
4.67423 13.1955 40.9396
4.49828 13.4096 41.8245
4.55152 13.3891 40.9316
4.45274 13.5595 41.9939
4.43523 13.155 39.8837
4.29863 13.5712 41.544
4.30041 13.2557 39.3509
4.02231 12.8226 42.5694
4.43938 13.4442 40.881
4.10897 13.4501 42.9196
4.27783 12.9917 41.5367
4.37293 13.9708 47.057
4.99066 14.7263 42.763
4.18867 13.1195 43.6819
4.51516 13.7113 44.6585
4.68466 14.2475 43.2215
4.33235 13.4714 42.8565
4.46241 13.592 43.3118
4.47079 12.8808 39.9583
4.1878 12.7051 41.6091
4.46157 13.6732 41.4398
4.1458 13.3998 42.682
4.12986 12.8935 42.5344
4.3312 12.5667 39.8034
4.28854 14.0735 44.1875
4.22655 13.3237 43.8747
4.36431 13.109 39.5989
4.08572 13.5032 43.4439
4.23554 13.2364 42.0987
4.08391 12.4144 41.8745
4.17427 12.2494 38.4031
3.90058 12.6204 40.732
4.21769 14.191 45.8299
4.35076 13.5666 45.8271
4.50426 13.6573 44.1687
4.22824 12.7435 43.4947
4.52894 13.8751 41.7223
4.01298 12.2731 39.6204
3.79308 12.1072 43.3626
4.60196 15.0869 47.5249
4.34919 12.189 38.2043
4.00397 13.238 43.5107
4.35859 14.0895 44.5646
4.24202 13.6872 43.598
4.02568 12.9305 43.3038
4.16058 13.0099 42.6494
4.09102 13.3901 46.6534
4.48451 13.1138 41.8792
4.17158 12.748 40.1581
3.76785 11.7044 40.0968
3.96843 12.3601 40.4138
3.74251 11.5822 39.1258
3.89633 12.2801 39.1133
3.99339 13.538 43.9019
4.06817 12.8415 43.0761
4.08636 12.5255 39.163
3.84587 13.5344 45.9374
4.15336 12.7065 41.2729
3.86242 12.518 42.142
3.70277 11.1642 39.6743
4.06348 13.3706 41.9347
3.91973 12.3562 42.3714
4.06933 13.1991 41.7313
3.83969 14.8144 64.222
6.24075 17.2543 45.2496
4.0013 13.3662 43.2721
3.88894 12.7426 41.0897
3.80424 12.4789 42.7249
3.95416 12.3908 39.9915
3.63624 11.4299 40.4347
3.96451 13.6722 43.4775
3.90458 12.4067 42.5258
4.12721 14.2374 45.1859
3.99589 13.3614 45.7538
4.00545 13.1176 45.3231
4.07125 13.0427 43.9603
3.92776 12.2303 42.282
4.01649 13.5658 42.9881
3.59689 10.9988 38.6716
3.74929 12.3567 40.09
3.60955 12.6603 42.8649
3.52337 11.5784 43.5389
4.11632 13.1665 43.4545
3.89616 12.793 42.6525
3.80751 12.0232 38.3243
3.37707 11.5005 40.0714
3.58755 12.248 40.8676
3.62248 12.0006 42.365
3.62186 11.3322 38.7859
3.50885 10.9997 38.052
3.55821 11.8617 41.7991
3.85535 12.5943 41.0738
3.47225 11.7292 42.4725
3.87522 13.0289 43.841
3.85289 12.1418 43.3654
3.9868 12.6327 43.0359
3.83947 12.6814 42.7784
3.76505 12.4303 39.3419
3.42536 12.1783 43.144
3.64864 11.4849 40.7025
3.72692 13.1709 43.4245
3.66552 12.0491 38.933
3.30487 10.8381 38.7181
3.44903 11.607 41.2421
3.62555 11.7458 42.0297
3.86277 12.5691 40.6496
3.35775 11.7869 43.5542
3.86392 12.7823 43.0129
3.68349 12.3984 41.47
3.51353 11.7949 41.7541
3.54731 12.0141 43.7522
3.77197 12.2789 40.5834
3.47567 11.3163 41.4554
3.64604 12.2542 40.6372
3.49286 11.7771 41.9919
3.63493 12.1782 39.1876
3.40957 12.7883 46.0818
3.71228 11.1826 39.7166
3.46995 11.8181 42.3469
3.53724 11.6942 39.958
3.41916 11.6055 42.7535
3.55045 11.2835 40.136
3.43887 12.1298 43.579
3.66713 12.2931 40.9275
3.39244 11.3291 39.8589
3.51629 13.5235 45.9644
3.60462 11.9154 44.7007
3.78696 12.5459 41.2276
3.32435 11.7071 42.797
3.62088 11.802 42.799
3.56781 12.0113 40.4068
3.25934 11.3516 39.1411
3.25318 10.8606 41.5674
3.51938 12.1473 41.9529
3.43431 11.8873 40.6696
3.34779 11.0393 40.6842
3.52401 12.64 43.2419
3.50058 12.4359 43.5273
3.467 11.9394 45.6176
3.68336 11.9872 40.3642
3.30857 10.9981 39.0608
3.22784 11.5306 42.7835
3.4574 11.3661 39.8335
3.42811 11.6489 38.3351
3.04594 11.7015 42.9379
3.51321 12.0125 42.0091
3.29377 11.6754 44.7376
3.69666 11.7677 43.646
3.66082 11.9094 41.3721
3.44901 11.8256 41.0567
3.41166 12.211 44.9936
3.66329 13.1413 46.6563
3.5928 11.3557 41.1138
3.45058 12.1658 42.689
3.40492 11.7807 43.8748
3.49462 11.899 41.7284
3.39785 11.4378 41.9183
3.42036 11.9363 41.3506
3.3489 12.6938 42.4948
3.29323 14.5717 75.255
6.11339 16.9487 42.5385
3.31018 13.0763 46.5994
3.57872 12.1687 44.0122
3.4958 11.3386 39.9775
3.14268 11.1368 43.404
3.49229 10.9984 38.4531
3.11132 10.9922 40.2157
3.27107 11.191 40.3769
3.18085 11.3287 40.1599
3.18352 12.3616 45.9774
3.55406 11.0948 40.0774
3.25128 11.3119 39.5868
3.13893 11.5746 42.3579
3.19604 11.1972 40.4396
3.25897 11.5936 42.3267
3.3572 11.5433 40.8887
3.15313 11.2325 42.8381
3.35145 12.0122 41.7798
3.1639 10.4978 39.6896
3.20307 11.5238 40.2702
3.06754 11.3368 44.9933
3.39934 11.0284 38.9383
3.11492 11.464 42.4761
3.29063 10.853 41.134
3.25011 11.4219 42.7726
3.37168 11.4269 39.0742
3.12783 10.8561 40.9147
3.17157 11.6175 41.2617
3.06484 10.6369 40.5129
3.17623 11.2838 38.8249
2.84771 10.3195 40.4106
3.21605 11.9243 44.0985
3.32966 11.4544 43.0845
3.32613 11.4326 41.3121
3.16781 11.2604 41.0634
3.07018 11.7631 44.0591
3.28665 11.0807 38.6707
2.83886 10.3694 42.6819
3.28946 11.7624 42.4839
3.25792 11.5014 43.1361
3.25993 10.8541 39.0634
3.01147 11.6283 41.9355
3.10929 11.0032 40.788
3.12288 11.05 39.9366
2.98547 11.5633 43.7228
3.14952 10.8593 41.9605
3.17974 10.8874 40.0364
3.15146 11.7756 41.2316
3.05016 10.6954 40.287
3.0144 10.7365 42.1709
3.23655 11.4987 44.1627
3.3458 11.5699 38.8179
2.88755 10.8824 39.9323
2.91986 10.4685 42.3286
3.10353 10.9908 40.9552
3.08919 11.2214 42.8139
3.14466 11.1001 44.7826
3.33233 11.3331 41.078
3.15405 11.1471 41.98
3.11392 11.5785 40.8795
2.98477 11.171 40.5615
2.96528 11.1427 43.4915
3.20182 10.5539 39.4589
2.96664 11.1329 42.2906
3.20242 11.9819 42.9951
3.08809 11.5794 41.7871
3.10668 10.8121 43.6674
3.19007 10.821 41.3711
3.13507 10.792 38.7979
2.8224 10.4106 39.9221
2.97996 10.8255 41.0716
2.95402 10.4742 40.6749
3.1463 10.9755 40.8835
3.05592 11.1244 41.5534
3.08912 10.6011 36.9823
2.7067 10.9122 41.2277
2.99152 11.292 40.9957
2.9437 10.6993 39.2677
2.84132 10.7293 42.8875
3.03839 11.1485 41.0349
2.86539 9.83739 37.6821
2.73292 10.3564 40.5366
2.94508 10.6837 42.1026
3.0522 10.9061 40.2422
2.98521 11.3623 44.5662
3.26467 10.9843 42.0022
3.01261 10.7917 40.6105
3.00867 11.1354 41.7374
2.96392 10.8363 41.8442
3.0642 11.0113 41.1076
2.97542 11.2858 42.0701
2.91108 10.9575 40.6885
2.90991 11.4869 39.7446
2.69109 10.1013 40.4674
2.92034 10.2811 40.639
2.94177 13.0496 67.1192
4.83193 14.2113 41.6989
2.94949 10.4805 39.4553
2.87657 11.3523 40.1445
2.7778 10.1917 41.7299
3.11353 11.4979 39.4689
2.73611 10.4083 41.6902
2.98679 10.3697 40.5445
2.9425 11.0224 39.9414
2.69371 10.2803 40.1946
2.80697 10.2949 39.2714
2.71933 10.0592 40.9149
2.97656 10.5759 40.9052
2.87618 10.2762 39.7691
2.83058 10.7091 41.207
2.87623 11.2854 44.459
3.14611 11.5195 42.3445
2.95956 10.5563 39.2378
2.72233 9.95231 40.796
2.89134 10.6713 40.5406
2.87218 10.5668 42.8833
2.94959 10.8214 39.5549
2.77161 10.4718 37.8536
2.66001 10.7108 43.3295
3.03714 11.4358 42.6905
2.94902 11.1156 43.3125
2.93007 10.4537 41.823
2.92792 10.314 39.7729
2.86214 10.7015 41.1215
2.82843 10.633 41.8561
2.91826 11.0668 39.0982
2.69441 9.63043 39.4367
2.80222 10.7248 40.6886
2.87094 9.8022 38.4048
2.75989 10.8757 42.3959
2.88777 10.4293 38.3312
2.70123 10.7258 40.9071
2.82105 10.9005 44.4939
3.04439 10.4873 41.1724
2.95333 11.0637 43.0097
2.96464 10.9548 40.1371
2.84038 10.3664 40.3137
2.7933 9.92977 39.1879
2.77049 10.2856 40.8358
2.78912 10.2393 42.0649
2.96303 11.4775 41.9635
2.90338 11.0774 41.4482
2.83208 10.2324 40.2422
2.81897 10.3801 41.1737
2.82576 10.4542 40.6397
2.8122 10.5143 41.2016
2.80391 10.9496 44.0823
2.99995 10.2519 37.7632
2.60768 9.57478 36.6618
2.62439 10.9035 42.6122
2.86824 9.41495 37.4135
2.61459 10.4181 41.3847
2.85408 10.1052 39.4638
2.79433 10.8952 39.0896
2.62923 9.92624 43.8728
3.00036 10.5819 39.5825
2.68287 9.67342 39.2305
2.75655 10.4687 40.8276
2.78675 10.2941 38.1244
2.60525 9.77972 40.174
2.69163 9.92193 38.5419
2.66638 10.4355 38.9755
2.64098 10.138 39.635
2.71919 10.5218 40.326
2.67348 9.9413 40.8009
2.74395 10.2821 40.5433
2.73715 10.043 36.3496
2.52334 9.95247 41.4277
2.76881 10.9483 42.7834
2.83304 10.1417 37.7601
2.59353 10.8055 39.746
2.66334 9.50501 42.4861
2.90207 10.9201 39.6052
2.70299 10.6801 44.2398
2.9308 10.643 41.8824
2.77803 10.84 42.7614
2.86642 9.96232 40.6436
2.76184 10.1087 39.3312
2.63549 10.1324 39.8384
2.67098 10.2637 42.4498
2.90466 11.0776 40.8635
2.78535 10.8204 41.3229
2.80547 10.4768 40.9821
2.7163 10.1232 37.7533
2.56451 9.83769 38.124
2.57623 9.81192 42.2756
2.94348 10.7422 40.0326
2.70616 10.3108 40.2488
2.74812 9.91815 40.191
2.70349 10.2233 40.0819
2.70409 10.7014 40.8425
2.73607 13.1722 68.7356
4.53236 12.0734 36.783
2.57643 10.8831 40.6937
2.71505 11.6546 42.4378
2.81583 9.93997 41.9676
2.82988 10.7238 42.7021
2.84483 9.90501 38.1069
2.63645 10.8971 41.0102
2.65002 10.1171 41.0594
2.73675 10.7637 41.9707
2.76777 10.3729 41.6895
2.71137 10.0783 38.6776
2.56227 10.5666 40.474
2.66642 9.85146 41.0352
2.69738 10.4487 38.8884
2.56961 9.75626 40.2446
2.64245 10.3343 40.1656
2.67066 9.90358 40.7694
2.71965 10.0067 41.0574
2.76411 10.118 39.2585
2.60482 10.3967 39.3425
2.63563 10.2762 40.8027
2.72718 10.7684 42.7022
2.80094 10.483 39.6125
2.61886 10.3975 40.7715
2.6534 9.18951 38.8128
2.59044 10.1939 38.7483
2.59489 9.54072 38.4103
2.58344 9.75883 35.9273
2.41134 10.0695 39.6425
2.60985 9.66522 39.2452
2.58561 10.3823 38.4275
2.52606 9.18922 38.658
2.56458 9.36815 37.1756
2.47599 9.75368 41.1986
2.76214 9.81002 37.8991
2.53757 9.88504 36.2213
2.49409 9.45726 37.717
2.47184 9.40909 40.6036
2.71275 10.415 39.9085
2.67974 9.70654 40.2549
2.65384 10.322 40.3237
2.67061 9.7705 38.3297
2.53142 9.93833 40.1883
2.63888 10.3439 41.5372
2.68383 9.73183 40.0083
2.72161 10.7831 41.7332
2.79298 10.6744 39.4751
2.64539 10.0631 38.5958
2.51816 9.57385 40.7033
2.66941 9.9652 41.614
2.75738 10.4275 41.6801
2.7371 9.35335 39.173
2.59257 10.3094 37.0452
2.45733 9.87549 39.9595
2.63173 9.59801 39.7729
2.68918 10.3814 41.2734
2.71912 9.49689 38.4739
2.52695 9.95687 36.1805
2.40103 8.92046 40.2926
2.67594 10.6893 41.6575
2.75299 10.0832 39.6733
2.66797 9.7754 39.6437
2.66847 9.97502 39.291
2.59355 9.87201 37.3282
2.43158 10.016 39.9092
2.64162 9.81001 42.2852
2.818 10.6648 40.9641
2.71993 10.5896 42.9832
2.81057 10.8249 44.6579
2.93401 10.7351 40.4689
2.67138 10.0816 39.7997
2.5608 9.93552 39.7052
2.68949 9.84713 42.5582
2.79603 10.2789 38.9748
2.574 10.1121 39.7677
2.62238 10.1404 43.1324
2.87434 10.8478 39.712
2.52119 10.0755 40.3665
2.67078 10.3795 40.4735
2.64539 10.6963 41.3048
2.73184 10.0023 41.808
2.73947 9.76477 39.6055
2.62528 10.2739 40.2735
2.61287 9.98351 40.3565
2.69509 9.31931 39.2172
2.6216 10.2612 38.0709
2.52826 9.22821 36.8741
2.418 9.60202 38.7492
2.50472 9.82458 38.5685
2.58844 10.1468 41.8017
2.68057 10.3412 40.0557
2.62439 10.2859 41.1018
2.71027 10.1683 41.6621
2.72343 10.1396 41.6944
2.75912 11.1463 44.9825
2.99198 13.9165 64.914
4.07625 0 0