# pn-170911/RbIIR-43-RbIIR-1280-1959.psd
# Power spectrum* (dif=0,1,2) (really just |FT|^2)
# NOTE: only the first half! (symmetric)
# weeks: 1280-1959
# 4211 clock-days, 524 excluded
# PSD: 1441
491.398 0.136873 0.048101
35374.4 0.80933 0.0469284
103742 2.03694 0.048094
32786.8 1.27786 0.0470352
48321.3 3.59476 0.04885
11581.2 1.16968 0.0460807
10840.8 1.66333 0.0469762
6151.09 1.2377 0.0459628
10187.9 2.91497 0.049523
4195.24 1.45153 0.0469782
7794.88 3.5227 0.0473282
3173.93 1.62211 0.0467902
5817.61 3.78085 0.0489813
2610.66 1.87953 0.048736
6201.68 5.61459 0.0530852
2139.07 2.10376 0.0497668
5942.11 6.99193 0.0547783
1977.16 2.51213 0.0495489
4857.38 7.29567 0.059243
1840.41 2.95308 0.0517392
4718.3 8.77249 0.0631538
1607.92 3.16451 0.0541729
4306.45 9.84375 0.0692773
1511.07 3.57175 0.0571233
3902.4 10.5498 0.0738708
1488.71 4.20101 0.0595597
3454.47 10.9514 0.0816006
1359.33 4.54503 0.0624281
3300.94 12.1341 0.0886305
1228.06 4.67754 0.0647854
2618.48 11.0349 0.0899978
1218.37 5.31338 0.0722201
2606.7 12.4718 0.108229
1185.46 5.92243 0.0777224
2350.08 12.7314 0.113878
1059.2 5.92957 0.082289
1956.15 11.918 0.118283
1015.84 6.32959 0.0909954
1903.37 12.8434 0.130308
978.628 6.78803 0.0966512
1650.56 12.26 0.134938
904.347 7.00735 0.103224
1492.28 12.3446 0.14624
868.98 7.36849 0.112709
1349.62 12.1771 0.158272
799.799 7.41305 0.117827
1172.74 11.5671 0.161803
793.301 8.04557 0.13109
1115.02 12.0132 0.175739
730.165 8.06666 0.138517
987.831 11.491 0.182196
688.267 8.26043 0.152839
889.098 11.2577 0.191593
659.907 8.57092 0.164346
828.891 11.2585 0.200618
655.99 9.23757 0.183096
778.846 11.3641 0.212243
619.682 9.27231 0.194486
738.436 11.601 0.234656
579.121 9.24252 0.195575
664.004 11.1275 0.235575
572.326 9.84436 0.216706
629.333 11.217 0.249867
548.69 10.1204 0.239545
581.839 11.1033 0.263919
515.357 10.1693 0.244728
554.029 11.1508 0.275751
509.592 10.5947 0.272009
537.118 11.5616 0.30046
494.288 10.8343 0.294907
509.304 11.6084 0.319261
486.647 11.363 0.31654
488.353 11.7842 0.336028
458.507 11.385 0.33691
477.361 12.1477 0.363599
439.274 11.5255 0.356404
456.07 12.1969 0.381126
442.821 12.0996 0.383537
440.108 12.4008 0.40729
426.007 12.3241 0.40518
427.699 12.746 0.43082
404.453 12.3841 0.430302
424.246 13.2959 0.470979
397.767 12.7387 0.460487
407.48 13.3044 0.487895
387.541 12.9872 0.490315
385.603 13.2975 0.50988
377.62 13.262 0.5262
377.767 13.6112 0.546674
365.982 13.533 0.557859
379.172 14.3417 0.595789
362.448 13.8915 0.584647
359.561 14.1425 0.61414
354.578 14.215 0.632192
354.946 14.585 0.6599
352.218 14.8221 0.686136
426.629 18.4079 0.849513
345.47 14.9839 0.715494
340.874 15.2851 0.745886
332.977 15.2612 0.760528
329.279 15.2536 0.768531
323.423 15.3513 0.788806
333.635 16.0775 0.831234
323.607 15.9861 0.847864
323.432 16.2764 0.881535
314.381 16.1261 0.894941
304.632 15.9095 0.883248
304.238 16.2566 0.926097
312.03 17.0534 0.983912
306.437 16.9205 1.00176
298.232 16.7976 1.01371
293.299 16.927 1.04344
296.579 17.3816 1.07731
284.099 16.9568 1.06669
299.302 18.1908 1.17015
288.469 17.8626 1.16354
283.039 17.7696 1.18335
283.107 18.183 1.22318
287.688 18.7638 1.28619
271.563 17.9682 1.25599
274.95 18.4888 1.30632
278.178 18.969 1.36085
269.11 18.6006 1.3621
264.289 18.6438 1.38903
273.304 19.5544 1.47276
268.103 19.6044 1.50285
262.463 19.4861 1.51296
253.08 18.938 1.48786
252.956 19.2875 1.53922
248.268 19.3255 1.57327
245.971 19.3775 1.5987
247.957 19.8818 1.66899
243.383 19.8123 1.66654
246.931 20.2956 1.74453
239.772 20.147 1.76629
240.3 20.3025 1.8043
234.47 20.2634 1.82203
227.961 19.9007 1.80657
238.151 21.1735 1.9635
232.588 20.9344 1.95774
231.326 21.0792 1.9914
227.126 20.9903 2.0101
223.942 20.9309 2.0362
226.069 21.4933 2.12434
222.145 21.4231 2.14638
224.585 22.0311 2.24231
217.011 21.4674 2.19918
219.048 22.0107 2.28895
210.538 21.501 2.25228
219.641 22.5532 2.39443
213.465 22.3552 2.41964
218.092 23.148 2.52964
212.283 22.9 2.535
206.483 22.5968 2.56154
210.695 23.1192 2.61923
207.952 23.3114 2.67818
204.516 23.2213 2.71886
206.858 23.782 2.79998
200.863 23.2003 2.76419
203.46 23.8889 2.88716
202.055 24.1009 2.94596
196.375 23.6429 2.96529
196.024 23.9321 3.01275
198.774 24.6616 3.13102
194.305 24.3845 3.12888
190.272 24.1412 3.14164
193.706 24.8218 3.27441
187.959 24.4155 3.26604
191.402 25.0891 3.3765
193.539 25.6897 3.49
183.234 24.4737 3.36002
187.869 25.6891 3.60338
185.378 25.435 3.59969
182.719 25.4516 3.63326
177.856 25.0412 3.61636
179.284 25.6183 3.75194
179.606 25.7488 3.77691
178.552 26.085 3.8987
170.16 24.9702 3.77478
177.833 26.4672 4.06182
178.443 27.0027 4.16945
173.808 26.3415 4.0926
174.057 26.7023 4.21108
172.684 26.8236 4.2926
168.383 26.3654 4.23665
171.018 27.1172 4.37988
169.062 27.0997 4.45513
171.075 27.7628 4.62307
167.585 27.5029 4.6358
174.745 28.8228 4.88204
166.379 27.8074 4.77058
165.348 28.1905 4.92413
245.892 42 7.21644
163.355 28.2646 5.02007
161.857 28.1729 5.02399
160.781 28.4055 5.09528
159.122 28.3106 5.15585
154.055 27.7145 5.0838
154.246 28.2843 5.27004
157.135 28.7174 5.36861
158.293 29.3868 5.57973
154.934 28.7031 5.46253
156.383 29.5535 5.70363
153.233 29.0074 5.65889
152.705 29.4138 5.76464
154.207 30.0282 5.96823
151.637 29.8722 6.00747
149.809 29.569 5.95347
150.493 30.016 6.10324
146.35 29.736 6.14317
146.93 29.8336 6.20697
145.002 29.8559 6.23936
147.983 30.7005 6.50993
146.499 30.9509 6.66271
144.467 30.4695 6.58848
145.086 31.0055 6.7621
142.641 30.7071 6.71347
139.953 30.3644 6.74562
142.436 31.0953 6.95871
142.464 31.5369 7.11136
143.971 32.3373 7.3966
138.268 31.1503 7.1591
140.104 31.7579 7.36183
134.996 30.9115 7.22671
141.928 32.7668 7.7283
137.406 31.9671 7.5638
133.58 31.4819 7.56501
134.861 32.0454 7.74395
131.618 31.7549 7.783
134.112 32.2039 7.8589
135.78 33.2385 8.25389
131.512 32.3916 8.12459
134.397 33.3662 8.39332
129.217 32.45 8.25219
126.41 31.7512 8.13136
127.469 32.4833 8.40431
125.783 32.2857 8.42668
130.643 33.8457 8.90081
125.165 32.8511 8.76576
129.109 33.8044 8.9929
128.193 34.0127 9.18835
127.528 34.0291 9.18518
123.758 33.3185 9.14704
120.677 32.847 9.09512
125.773 34.4055 9.55301
123.909 34.4107 9.71724
119.316 33.1111 9.35402
126.476 35.3548 9.98706
119.846 33.973 9.80695
117.768 33.6402 9.7832
120.966 34.5628 10.0573
121.446 35.3128 10.4386
117.804 34.1472 10.0916
119.316 34.9224 10.3683
119.175 35.4078 10.65
116.145 34.6165 10.5059
117.806 35.43 10.7965
115.681 35.1098 10.7814
115.227 35.1751 10.9264
115.517 35.835 11.2224
112.109 34.7361 10.9505
116.01 36.1024 11.4224
113.468 35.7315 11.4332
112.324 35.6938 11.5099
112.162 35.9034 11.6103
109.019 35.1966 11.501
113.28 37.0308 12.173
110.268 36.3063 12.0551
109.322 35.8411 11.9629
110.864 36.4965 12.2572
106.929 35.9315 12.3163
112.524 37.4197 12.6307
108.674 36.9542 12.7453
108.092 36.9308 12.763
106.171 36.3681 12.6493
104.858 36.5159 12.8659
104.232 36.2173 12.8121
103.329 36.1077 12.7597
102.175 36.0483 12.9145
104.661 37.2218 13.4076
102.115 36.7068 13.3711
103.966 37.4297 13.6862
102.955 37.5494 13.8688
100.786 36.5343 13.4668
97.5274 36.2597 13.6779
100.985 37.3993 14.0728
102.371 38.1829 14.4641
101.506 38.2658 14.8762
152.498 57.0504 21.1293
99.5647 38.0286 14.8476
98.2388 37.6282 14.6752
101.995 39.3849 15.3339
97.2617 37.8169 14.9316
98.0627 38.3049 15.1869
96.5111 38.0631 15.2359
96.0009 37.744 15.0887
95.8671 38.4861 15.6325
96.598 38.6656 15.6535
92.9528 37.5444 15.3774
94.91 38.6447 15.9347
92.1835 37.689 15.7118
94.7371 39.05 16.316
94.7782 39.237 16.4515
94.2259 39.3817 16.6464
93.9231 39.4421 16.7267
94.9962 40.1469 17.1352
90.9802 38.6672 16.6248
91.2378 39.193 17.0504
91.5781 39.3959 17.1772
92.3385 40.0109 17.6632
92.113 39.9252 17.5737
91.3933 39.8536 17.5487
89.1927 39.4981 17.6419
87.4548 38.9386 17.545
88.0513 39.1884 17.727
86.8005 38.9632 17.7191
87.0321 39.4378 18.1414
85.6372 38.6553 17.6822
88.5246 40.5368 18.7248
83.407 38.6607 18.1758
87.066 40.4549 19.0074
85.741 39.6398 18.5556
84.2747 39.5209 18.6954
81.7458 38.6279 18.5725
86.2593 41.0734 19.7282
82.9867 39.6882 19.2729
83.3936 39.925 19.3469
84.0619 40.7384 19.9659
86.1563 41.6394 20.283
82.2945 40.4729 20.2191
83.6542 40.7353 20.0576
79.7682 39.5954 19.914
81.6488 40.3731 20.2309
80.0507 40.1379 20.3856
81.5105 40.6654 20.5812
78.1928 39.8024 20.5472
78.9423 40.1436 20.7845
79.4875 40.4037 20.8743
80.5381 41.3911 21.4608
77.1935 39.8941 20.9376
79.0966 41.5072 21.9934
78.8478 40.6649 21.3758
78.4025 41.5408 22.1746
77.4089 41.051 21.9434
74.5654 39.9712 21.6855
77.2575 40.7537 21.8138
78.2277 42.2207 22.9568
73.9759 40.0998 22.0959
73.071 39.6097 21.8042
75.5178 41.5107 23.0725
71.9348 39.393 21.9628
74.4628 41.0336 22.8299
74.6692 41.7738 23.5476
75.4538 42.4948 24.1753
74.2752 41.0857 23.0094
70.8056 40.2682 23.2238
72.4123 41.0681 23.5472
74.0265 42.3713 24.4581
70.0076 40.592 23.8488
73.1224 42.079 24.5316
72.9686 42.0511 24.4433
72.0743 41.9959 24.8075
69.9228 41.2032 24.6853
70.3694 41.181 24.3737
68.5215 40.8914 24.6825
71.0328 41.922 25.0936
68.3522 41.0026 24.9617
69.7217 41.599 25.2
67.5084 40.7219 24.8691
68.7599 41.8473 25.7071
68.3848 41.5472 25.5424
66.1998 40.939 25.5604
66.8528 41.3585 25.9055
65.7915 40.9982 25.96
67.1701 41.837 26.5396
68.3797 42.627 26.9023
65.3379 41.0707 26.2147
65.5175 41.2413 26.4069
64.3855 40.8162 26.2037
65.7999 42.1546 27.1828
64.0347 41.5922 27.5114
65.0008 41.5142 27.0775
63.1177 40.7017 26.8412
64.1613 42.5061 29.4656
103.326 66.8341 41.7018
61.5891 40.7396 27.5055
61.53 41.0533 27.6952
61.1115 40.4627 27.1844
64.3345 43.0589 29.0782
61.685 41.3547 28.2462
62.5741 41.9213 28.3391
62.5694 42.7722 29.4615
62.7193 42.7056 29.4162
61.2782 41.832 28.9019
60.2454 41.5833 29.1422
62.0808 42.8264 29.9308
61.7995 42.56 29.5585
59.917 41.9434 29.6515
60.2343 42.0708 29.7098
59.0058 41.8588 30.1019
58.8488 41.5562 29.8765
59.0336 41.9172 29.989
59.3023 42.513 30.6579
58.2528 41.8846 30.4553
57.5494 41.379 30.1869
57.0266 41.4056 30.3393
57.979 42.2619 31.3973
58.6805 42.3452 30.9737
57.5419 42.2919 31.6161
57.8016 42.3365 31.4207
56.6343 41.7004 31.1177
56.4128 41.9051 31.3429
54.6616 41.2134 31.3853
55.7805 41.7456 31.5432
55.4741 42.4002 32.84
55.8732 42.1066 32.1893
55.6517 42.0112 32.0581
54.586 41.7767 32.3652
54.4121 41.7386 32.388
54.141 42.1106 33.1083
55.8878 43.1271 33.5565
53.7286 41.8492 33.1045
54.6801 42.648 33.6292
54.6641 42.8821 34.0334
53.0143 41.5696 33.0714
52.3391 41.2624 33.1648
54.1702 42.6849 33.9415
52.6145 42.5282 34.6366
52.4642 42.2395 34.5519
53.5642 42.5368 34.4433
51.7072 41.5569 33.8407
51.6968 42.1181 34.569
51.2487 42.3168 35.3007
51.8045 42.3363 35.1117
52.8517 43.3022 35.8944
50.7653 42.1085 35.4489
51.297 42.1453 35.0428
50.5098 42.5228 35.9612
50.8324 41.815 34.9962
50.3185 42.521 36.1148
49.0311 41.6702 35.7075
49.8143 42.3803 36.2745
49.0982 41.9221 35.939
49.2337 42.4396 36.886
48.9888 42.524 37.4883
49.2794 42.2212 36.7427
48.5813 41.9303 36.6575
48.5602 42.0392 36.8298
48.3782 42.2977 37.4594
49.0334 42.9502 38.13
48.925 42.5879 37.5807
48.1354 42.5789 37.7816
46.3936 41.752 37.8223
47.3508 42.0731 37.6839
46.9864 42.1904 38.2795
47.9481 43.0315 38.9639
46.575 41.9432 38.4162
48.1804 43.5751 39.7797
46.6951 42.6708 39.4865
46.4423 42.0642 38.6186
46.491 42.5881 39.5284
47.5114 43.7298 40.4988
46.2485 42.8646 39.9786
45.3831 41.9398 39.36
45.759 42.5979 39.9341
44.3555 41.5172 39.1715
45.0955 42.6665 40.7225
44.9039 42.4582 40.8637
45.1285 42.4497 40.9515
45.3481 42.342 40.3517
44.3895 41.9622 39.9216
43.5399 41.8113 40.3351
44.521 42.8473 41.4796
43.4592 42.2992 41.634
43.2926 41.667 40.8413
41.5913 40.6098 40.5517
43.9319 42.4149 41.3685
42.9451 42.1823 42.0885
44.2446 43.4737 43.4131
42.6954 43.2561 46.863
69.7603 67.0433 61.2583
43.1722 43.3786 44.3648
43.0326 42.4963 42.794
42.6002 42.8363 43.3876
42.5039 43.1801 44.1178
42.6452 42.9099 43.9454
41.8804 42.009 42.5905
40.7976 42.0482 43.8558
41.7165 42.1716 43.2176
41.4874 42.1974 43.5647
41.9984 43.4867 45.0102
39.2406 40.5442 42.8666
41.329 42.981 45.1899
41.1995 42.3268 44.272
40.5311 42.1656 44.3997
40.5243 42.713 45.6448
41.5671 43.0385 45.1771
39.4431 41.8911 45.036
39.2928 41.1032 43.8435
40.3787 42.9263 46.3094
40.2476 42.2624 45.0974
39.2795 41.8318 44.9151
38.6506 41.763 45.6453
38.675 41.2916 44.8105
38.927 42.0902 45.6287
38.4248 41.9735 46.2381
38.1004 41.3826 45.4798
37.8512 41.6276 46.4431
38.4818 42.1836 46.7101
38.8757 42.5169 46.6744
37.7166 41.9798 46.9243
37.6079 42.1489 47.7731
38.5908 42.6949 47.8948
37.6064 41.6516 47.2733
38.8207 43.3121 48.4386
36.7443 41.691 48.066
37.8744 42.1699 47.6696
36.6202 41.4196 47.5807
36.945 41.779 48.0583
37.4847 42.2264 47.905
35.8376 41.2442 48.0289
37.1718 42.6274 49.4963
37.3925 42.8546 49.6075
36.5388 41.9101 48.4343
36.2894 42.3678 49.9802
36.346 42.0236 49.3595
36.3334 42.2407 49.7244
35.3951 41.1419 48.5164
35.4516 41.9836 49.8761
35.0386 41.7866 50.3563
34.6706 40.3706 48.343
34.9566 41.4008 49.772
35.9088 43.0354 51.7324
34.3827 40.7104 49.4143
34.6072 41.6186 50.8258
35.5009 42.1789 50.8153
34.7102 42.031 51.6607
34.6056 40.8719 49.2401
33.5158 41.4574 51.6664
34.7001 41.9013 51.4789
34.2497 41.5422 51.1734
34.0681 41.836 51.9552
33.8898 41.3312 51.2481
33.4951 41.1767 51.0931
33.0307 40.7575 50.7093
33.2663 41.8092 53.0672
33.5411 41.6146 52.6507
34.2738 42.7587 53.9351
33.4307 41.4821 52.3413
33.1586 41.4202 52.2465
32.2751 40.9078 52.3531
32.411 40.9386 52.4313
32.126 40.6842 52.1253
31.7898 40.4797 52.1815
32.0816 41.2167 53.4351
31.777 40.627 53.0927
31.5262 40.2357 52.3474
31.7619 40.7072 53.0339
32.1768 41.7185 54.695
32.1383 41.7059 54.8903
31.6864 41.0732 54.406
32.5449 42.1084 54.8918
31.0878 40.5045 53.7665
31.2104 40.4845 53.3127
31.2275 41.7025 56.0395
31.4499 41.4649 55.3113
30.2825 39.8223 53.554
31.0732 41.7487 56.2773
30.6749 40.2186 53.6388
29.7756 40.2241 55.4109
31.03 41.3988 56.2025
30.5628 40.7503 55.3562
30.6191 41.0819 55.8641
30.5085 41.1989 55.6709
29.483 41.2475 58.1553
29.3654 42.2571 67.0665
49.4799 63.5468 76.1761
30.3248 42.1595 58.7237
29.8732 41.7451 58.8727
29.8339 40.7732 56.6941
29.4317 40.917 57.4685
29.3228 40.5121 56.4479
28.9642 40.4916 57.194
29.0514 40.7432 57.5145
28.0445 39.3144 56.255
28.5469 40.1222 57.4742
29.2036 40.8564 58.1223
28.391 39.5852 56.2425
28.6122 40.6516 58.4186
29.1971 41.517 59.4382
28.0535 39.9647 57.7578
27.9502 39.4968 56.6085
27.3367 39.2724 57.3436
28.4739 40.6533 58.2959
27.2369 39.3609 57.5948
27.7086 40.377 59.0872
28.0147 40.5228 59.3883
27.0185 39.2356 58.0442
27.3942 39.6828 58.2041
27.5052 40.2373 59.8291
27.333 40.0568 59.3717
26.3935 38.7796 58.9038
27.9715 40.4656 59.5825
27.285 40.1732 59.867
26.3304 38.7632 58.4237
27.7361 41.1694 60.7836
26.1409 39.2187 59.74
26.9897 40.0516 60.185
26.0483 39.0387 59.1666
25.4601 38.4499 59.4825
26.0315 38.6187 58.7269
25.9607 39.2739 59.6265
25.2967 37.7864 57.4743
25.6209 39.6308 61.7788
25.5529 38.3255 58.8738
25.6119 38.558 59.2766
25.2916 38.6531 59.6921
25.8205 39.8491 61.7062
25.2911 39.1111 60.7203
24.5571 38.1621 61.0201
25.4634 38.8444 60.5761
25.1054 38.7943 61.0635
24.9963 38.9087 61.8698
25.8446 39.5175 61.0465
24.4657 38.4959 61.6131
25.2383 39.6351 62.7473
25.0877 39.2726 62.3932
24.4729 38.6206 61.7119
24.2707 38.0651 60.207
23.8885 38.4594 61.8788
23.9324 38.349 62.2586
23.8254 38.0046 62.0676
24.1155 38.0874 61.0795
23.3573 37.5873 61.5708
24.0176 38.5402 62.5519
23.9407 38.2995 61.8187
23.3888 38.392 64.0995
24.2278 38.2619 61.2476
22.9039 37.5423 61.9631
22.6217 37.2822 63.387
24.2232 38.404 62.4379
23.594 38.9729 64.8773
23.5093 38.3131 64.0381
24.0052 39.177 64.6781
23.6352 38.8376 64.3594
23.0079 38.1966 64.1124
23.2075 38.4623 64.2703
22.2821 36.2671 60.6367
22.2775 37.5142 63.8898
22.2537 36.4535 61.435
22.1412 37.55 64.1162
22.7139 37.7477 63.6774
22.679 38.1525 64.8293
22.1205 37.2918 63.9738
22.2858 37.8581 65.0325
22.5452 37.7523 63.9614
21.7754 36.7792 63.1
21.8057 37.3951 64.0712
21.4974 37.2428 64.8814
21.4786 37.0178 64.9235
21.2809 36.5426 64.5475
21.6836 36.6019 63.4968
21.8805 37.5754 65.5089
21.8344 37.6886 65.6374
21.5498 37.2996 64.8755
20.7104 36.3291 64.8641
21.5666 37.4205 65.5692
20.869 36.4323 64.7215
20.7017 36.1185 64.9896
20.992 36.9141 66.284
21.2559 37.3788 67.679
21.2064 38.9921 81.6194
35.5881 59.2216 88.3695
21.3487 39.0404 70.9838
21.1555 37.6161 68.0281
20.7587 36.5241 64.778
20.2031 36.8066 67.1631
20.3414 36.2671 66.3113
20.7957 37.5172 67.5983
19.9811 36.277 67.5432
20.6835 36.9867 67.5178
20.5281 36.8463 66.8458
19.8701 35.8226 65.8517
19.9292 36.1835 66.7182
19.8341 36.066 67.2093
20.3636 36.5172 67.066
20.2999 37.2067 68.084
19.7403 36.4327 68.2764
19.8242 35.8257 66.0814
19.9815 37.2079 69.349
19.4151 35.7545 67.6792
19.9948 36.8693 68.9129
19.6177 36.3102 67.9212
19.0319 35.2559 67.5437
19.7697 36.6395 68.9049
19.9086 36.9437 68.8611
18.5959 34.7502 67.4641
19.5457 36.394 68.7302
19.1929 35.8565 68.0864
18.5721 34.8731 67.4993
19.0105 35.3714 67.6225
19.0746 35.6523 67.679
18.6962 35.4748 68.3695
19.0941 35.8944 68.2973
18.7793 36.0398 69.8071
19.1035 36.7283 71.2037
19.0285 36.2948 70.6553
19.0454 36.1695 70.167
18.6591 35.3511 68.4693
18.4576 35.4714 69.1752
18.4182 34.9848 68.1761
18.406 35.9284 70.5581
18.6057 36.01 70.8844
18.5489 35.5291 69.6459
18.3757 35.4833 69.3929
17.9818 34.9316 68.5471
17.7005 35.0815 70.2367
17.9908 34.7929 68.9645
17.738 35.108 70.96
18.3169 35.7864 71.3196
18.208 35.844 71.7841
18.0474 35.0954 70.5933
18.2594 36.319 73.0289
18.2995 35.6234 71.0394
17.7242 34.7402 69.8323
17.6934 35.1358 69.9395
17.7246 36.095 73.1272
17.6134 35.265 71.6515
17.7442 35.9059 74.003
17.4943 34.7435 71.2024
17.7127 35.528 72.6978
17.7923 35.8584 72.446
17.5533 35.6861 73.3997
17.6186 35.9963 74.4367
17.4293 35.3437 73.8508
17.5728 35.1943 72.8684
17.9628 36.7906 74.7589
17.2542 35.6122 74.9139
17.442 35.0282 72.7247
17.2102 35.3138 73.1764
16.8917 34.3661 72.1019
17.3032 35.3103 72.5075
16.8931 35.189 73.7554
16.6922 34.4236 72.1823
16.4927 34.3307 72.5696
16.5553 34.299 72.7849
16.9309 34.9632 73.2047
16.4639 34.2282 72.2271
16.3424 34.7564 74.081
16.1728 34.0827 74.6246
17.0932 35.438 75.4559
16.841 34.6502 72.7248
16.2682 34.5975 74.1195
16.2582 34.1029 73.3218
16.2769 34.4776 74.5079
16.4436 34.6215 74.6751
15.9862 32.9776 70.9601
16.1382 34.4425 73.2527
15.604 33.6132 73.443
15.8545 33.708 73.116
15.6344 32.9865 72.1886
16.162 34.8354 74.9646
16.0258 34.8753 76.6104
15.9445 34.1598 75.3451
15.9361 34.2275 75.8978
15.9747 33.7367 73.6303
15.4472 33.5272 75.5577
15.8182 36.7459 100.193
27.2934 54.0994 92.9178
15.1459 34.257 76.3783
15.5182 34.2387 75.3423
14.6991 32.6457 74.0259
15.2435 33.3216 74.2165
15.3586 33.5688 74.8078
15.3808 34.2542 76.755
15.2417 32.6474 71.805
14.6984 32.7354 73.6384
15.0614 33.3855 74.5893
14.7596 33.0028 74.848
15.1417 33.3818 75.0116
14.933 33.3582 75.2091
14.8499 33.2269 74.8784
14.5817 32.7798 75.6537
15.1336 33.5379 75.9534
14.7907 33.3735 75.9185
14.6433 32.3352 73.6978
14.802 33.9522 77.0866
14.1602 31.2954 72.1767
14.4157 32.6605 75.9941
14.6837 32.7297 74.7572
14.1939 31.876 73.2498
14.2368 32.2619 73.7448
14.1274 32.6778 75.6976
14.3351 32.1358 74.177
14.2468 32.5878 75.9358
14.2329 32.5643 75.4543
13.77 31.2011 72.8774
13.7042 31.7561 75.6111
14.2369 32.3554 75.5749
14.0561 31.6911 73.6922
13.85 32.4834 75.7286
13.5823 30.9688 72.7094
13.7032 32.5121 77.8443
14.1598 31.6023 72.9417
13.5726 31.9158 74.3582
13.4117 31.8614 76.8506
13.8196 31.9776 76.3316
13.7051 31.5288 74.6653
13.3318 31.0687 75.1319
13.4554 31.0857 73.7889
13.1718 30.5438 73.7541
13.358 31.3646 74.568
13.2912 30.9983 74.3771
13.4831 31.7225 75.3528
13.2539 31.7433 77.2616
13.5741 31.5577 75.2949
13.2322 31.2867 76.6482
13.5779 31.9145 75.8721
13.1256 31.3528 76.0105
13.1879 31.5146 77.0931
13.2449 31.5799 77.3848
13.2622 31.2168 76.1434
13.0394 31.3709 77.6649
13.5157 32.0752 77.5504
13.0292 31.062 76.8933
13.4636 32.0012 76.963
13.0562 31.7385 78.5542
13.2899 31.8785 76.7516
12.8094 31.6472 80.0285
13.359 31.6889 76.9002
12.6849 31.0258 77.6727
13.0776 31.6896 78.2588
12.8428 31.1778 78.3389
12.932 30.7833 75.2314
12.6212 31.5197 79.2639
13.132 31.5392 77.5443
12.6734 31.1168 77.0082
12.4527 31.0527 78.5934
12.6513 30.8702 76.9832
12.5673 31.4504 79.27
12.7215 31.6588 79.5126
12.5269 30.9546 78.9325
12.4787 30.8157 78.6059
12.677 30.9907 76.5731
11.9162 29.9926 78.5589
12.4776 30.3669 77.6917
12.7861 31.6483 79.184
12.3733 30.7819 77.6378
12.0391 30.3793 77.3654
11.9591 30.0459 78.2215
12.3341 30.4705 76.9503
11.8867 30.2033 78.1832
12.0534 30.18 77.2977
11.9795 30.4462 79.734
12.3626 30.334 77.2809
12.058 30.2806 78.2967
12.1451 30.4673 77.8235
11.9737 30.628 80.07
12.172 30.2603 77.3015
11.84 30.4473 78.8974
12.0825 30.7213 79.0198
11.9058 31.1719 82.5129
12.3944 31.8258 82.5521
11.5509 33.0193 116.954
21.758 49.3995 95.6933
11.5714 30.8384 81.5417
11.7899 30.5624 80.5103
11.7592 30.3258 79.4905
11.627 30.0919 80.218
11.8402 30.1564 78.8932
11.4192 29.6137 80.0954
11.6648 29.04 76.876
11.7039 30.2749 79.056
11.6047 30.1231 79.3836
11.5476 29.7655 78.5856
11.494 30.2471 80.9247
11.6628 29.8372 78.4684
11.3116 29.9724 79.9056
11.3627 29.8244 78.9572
11.0435 29.3204 80.5512
11.4011 29.111 78.1963
11.2498 29.2314 77.8067
11.1661 29.5986 79.7245
11.2334 29.6625 79.1664
10.9775 28.8459 78.9536
11.1645 29.2463 77.9808
10.9216 29.1729 79.4777
10.9274 28.83 78.8113
11.1075 29.5438 78.7866
10.7321 28.7842 79.9618
10.9866 28.354 77.0114
10.8198 29.0141 79.8829
11.066 29.4034 79.2834
10.6629 28.2897 78.7811
10.8655 28.6826 77.3997
10.5835 28.6187 79.3633
10.7612 28.2021 76.6895
10.8242 29.3427 78.4501
10.3794 27.9137 78.8995
10.878 29.2008 79.0261
10.4262 28.1949 77.2623
10.3583 28.607 80.778
10.6499 28.3455 78.6879
10.6628 29.2354 81.1116
10.5371 28.1571 78.9034
10.3517 27.9222 78.8466
10.5161 28.5283 79.5397
10.4002 27.9104 77.2381
10.081 27.1919 76.6568
10.2097 27.9686 78.074
10.2692 27.6308 76.2709
10.0013 27.7873 76.9972
9.92585 27.5884 78.7898
10.1887 27.6814 77.4855
10.1293 28.1808 78.9295
10.1242 28.1679 80.5915
10.3248 27.7344 77.3389
9.95114 27.847 80.0274
10.1731 27.8325 79.0835
10.0229 27.3266 78.0242
10.1002 28.2351 79.9448
10.256 28.4988 80.3605
10.056 27.8029 79.3406
10.1876 28.522 81.5894
10.1541 27.8598 79.8995
10.0362 27.7017 78.5171
9.99838 28.281 80.2761
9.81569 27.695 80.7826
10.0144 27.5365 78.0805
9.663 26.9634 77.5841
9.58108 26.8017 78.1778
9.77394 27.4467 78.5403
9.56633 26.5938 76.6182
9.55104 27.3088 80.6436
9.96128 27.4868 77.7431
9.6353 27.9484 79.6383
9.42332 26.8647 79.19
9.69965 27.7061 80.8261
9.56561 26.857 78.5236
9.51481 27.0812 79.247
9.4462 26.9009 79.0025
9.55242 27.441 80.6725
9.52695 27.0934 79.9951
9.5326 27.2227 81.0592
9.59802 26.7065 77.8367
9.29183 26.5378 78.1982
9.24743 26.1723 76.1899
9.22843 27.2057 80.3602
9.26616 26.4832 79.1952
9.39177 27.3221 80.6358
9.41592 26.6175 78.3043
9.32703 26.8209 78.8982
9.30142 27.0934 79.421
9.14131 26.6863 79.2144
9.17288 26.9891 80.2265
8.99215 25.4926 77.1226
9.16407 27.0293 80.5312
9.23926 26.7648 77.5122
8.59908 26.3038 81.7703
9.11451 31.2375 131.778
17.1674 41.8249 88.3206
8.94834 27.7307 82.7601
9.19247 26.8778 78.1056
8.66511 25.6008 76.6846
8.69686 26.0826 79.935
9.13096 26.5996 77.7099
8.57369 25.6039 78.6677
8.9241 26.4019 80.8795
8.96797 25.7381 76.9053
8.76466 26.3264 80.0245
8.87728 26.1275 79.4276
8.81759 25.9547 78.5009
8.80677 26.3499 79.2697
8.71778 26.161 79.6648
8.63005 25.6102 78.207
8.51136 25.2048 78.201
8.70971 26.1616 80.3033
8.75678 26.0779 80.2926
8.78537 26.2641 80.2843
8.68605 25.7032 78.6547
8.71368 26.3872 78.881
8.39803 25.489 80.1069
8.6274 25.7935 80.3794
8.78963 26.4187 81.4397
8.70589 25.6149 78.2179
8.61413 26.3089 80.1697
8.41856 25.4607 79.3843
8.50273 25.9493 81.5128
8.62811 25.484 79.2934
8.57108 25.5315 77.0404
8.16877 25.0505 77.8242
8.21966 24.9544 78.3209
8.32133 25.1031 78.0803
8.20123 24.916 79.5619
8.49542 25.8149 80.6537
8.46658 25.3854 79.1672
8.42772 25.7674 78.5152
8.11293 24.7216 77.6801
8.16778 25.2539 79.7104
8.19757 24.9387 78.3097
8.23058 25.1018 77.795
8.10482 25.1075 78.848
8.0824 24.8168 78.49
8.04152 24.3863 76.4916
7.86231 24.7351 79.3248
8.22263 25.2817 79.4049
8.07333 24.7868 77.7671
7.94611 24.8786 79.6511
8.04625 24.4073 77.4124
7.93688 24.629 78.2379
7.99462 24.7345 77.6482
7.97575 25.2639 78.7676
7.78347 24.3049 77.2234
7.78438 24.4151 79.2971
8.04129 25.1685 78.8686
7.92854 25.1549 79.5176
7.79796 24.4282 78.9998
7.81055 24.1551 78.9981
7.82772 23.9047 76.5296
7.64689 24.3564 79.1922
7.80558 23.6022 75.6902
7.70656 24.0936 77.6191
7.80558 24.3382 77.6718
7.7149 24.3224 77.5393
7.66042 24.0522 76.445
7.5234 23.9981 78.6037
7.87284 24.5491 76.7084
7.36807 23.7437 79.0408
7.66652 23.5054 75.2355
7.3662 23.4935 75.8686
7.3706 23.5252 76.4707
7.37456 23.8112 77.8067
7.42544 23.5285 78.4925
7.74816 24.4839 79.5571
7.79259 24.9055 77.8777
7.15127 23.1734 78.8031
7.55208 23.4326 75.4382
7.37122 23.6667 77.4039
7.44094 23.7121 76.2671
7.29821 23.5369 77.5078
7.33973 23.5869 76.4863
7.11985 22.6816 77.4043
7.42948 23.6395 77.7234
7.39014 23.1869 76.4162
7.30385 23.227 76.8735
7.46454 24.3774 79.7709
7.32287 23.0434 78.0688
7.3765 23.1067 75.6882
7.18893 22.9406 74.9443
7.10268 22.941 76.3206
7.24654 23.5417 78.0492
7.38477 23.8917 79.1304
7.37298 23.8404 77.9873
7.08402 23.3235 77.5566
7.10392 23.8398 81.6284
7.41515 28.4949 140.109
14.4059 38.7295 85.8966
7.09662 24.1611 77.68
7.03666 23.3918 78.2354
7.14833 23.1717 76.3747
7.0262 23.4691 78.9033
7.239 23.9412 79.0535
7.07224 23.0322 77.2182
6.97724 22.5844 75.7941
6.97897 23.2208 78.6099
7.10243 22.9138 78.2598
7.16563 23.3228 76.8819
6.95152 23.0213 77.9533
7.05366 23.3912 78.1342
7.01445 23.2648 79.3888
7.17364 23.2402 78.2451
7.02636 22.7679 77.1179
6.93541 22.6174 76.3371
6.91886 23.2339 79.7617
7.14115 23.1187 75.3711
6.70843 22.5817 78.3847
6.94778 22.8851 77.8722
6.90539 22.7015 78.7293
7.03964 22.9454 77.3695
6.94967 23.0788 78.0657
6.89356 22.3381 74.8603
6.67839 22.8354 79.2499
6.90503 22.8813 77.1738
6.77429 22.3182 77.1337
6.80201 22.9852 78.113
6.79068 22.4133 76.8124
6.74329 22.6647 78.1059
6.82728 23.1061 79.4918
6.85041 22.4367 77.4911
6.79003 22.8232 77.6329
6.72503 22.4626 77.8412
6.73588 22.5511 77.3954
6.57531 22.4563 80.0778
6.94957 22.7762 78.7256
6.79497 22.2285 75.5708
6.57829 21.9266 75.4415
6.45316 21.7694 75.0172
6.45744 21.7308 75.0835
6.35424 21.7138 75.9506
6.48438 21.8778 76.301
6.5472 22.0802 76.7552
6.54678 21.5461 74.7655
6.41681 21.9678 75.3199
6.39294 21.2877 75.0708
6.43869 21.7742 75.4403
6.49382 22.2839 77.4505
6.49976 21.9864 76.9064
6.55407 22.2 77.4622
6.57698 22.9512 78.4755
6.48553 21.7869 77.8798
6.6479 22.2968 76.2196
6.38957 21.9087 78.4309
6.64686 22.5668 77.8339
6.46485 21.6419 75.6116
6.4809 22.5196 76.8204
6.29611 21.7404 77.2479
6.46442 21.7797 76.4994
6.46423 22.35 76.8783
6.28423 21.982 77.6916
6.34558 21.696 78.3437
6.48021 22.1522 77.3093
6.35887 22.4011 79.5637
6.43916 21.3527 76.5658
6.36917 21.4165 75.3874
6.33326 22.3127 76.4407
6.13516 21.3485 78.2117
6.37513 20.841 75.4862
6.31663 22.265 77.1681
6.25213 21.9441 77.6182
6.3756 22.3891 77.6365
6.28547 22.011 77.6411
6.24959 21.5086 78.4119
6.4228 21.7903 76.6686
6.21183 21.3927 77.1372
6.29671 21.5043 75.2866
6.11394 21.4314 75.628
6.14954 21.6918 76.5972
6.14033 21.0614 76.3916
6.16216 21.1758 75.9826
6.18092 21.3327 75.6849
6.06987 21.6927 77.3335
6.09941 21.236 77.6475
6.27857 21.7357 78.2526
6.24539 21.3038 76.74
6.16475 21.7687 75.8241
5.973 21.5373 79.6371
6.28879 21.2397 76.7442
6.10084 21.3149 76.4656
6.1505 21.7866 77.8644
6.22847 22.4593 80.2783
6.25487 22.7999 81.996
6.35912 28.2907 154.796
12.7475 35.2326 85.312
6.34181 22.8208 79.9118
6.23721 21.6674 76.02
6.0185 21.5601 78.7041
6.29887 22.7815 79.8979
6.09879 21.2969 77.6458
6.03187 20.7298 75.1263
5.97968 21.3072 76.405
5.92159 21.1696 77.1704
6.0081 21.2167 77.8744
6.12033 21.5922 77.2581
5.93456 20.9553 77.4917
6.04375 20.8977 73.8208
5.73427 21.0509 76.6388
5.8382 20.4202 75.9081
5.90066 21.0248 77.568
6.00866 21.3352 77.4937
5.95932 20.8966 75.4293
5.8601 21.1856 76.9466
5.85034 20.5843 75.3661
5.81217 20.6005 76.3455
5.87267 20.5724 73.3747
5.67287 20.3527 74.5067
5.74919 21.0205 75.1773
5.70673 20.264 75.4906
5.76757 20.6165 75.9118
5.84051 20.7783 75.306
5.71773 20.59 76.6168
5.86742 20.612 74.0067
5.61289 20.3235 75.6055
5.77856 20.4228 74.3942
5.64321 20.4245 76.055
5.74094 20.7974 77.1288
5.80133 20.5936 75.3212
5.64461 19.8416 73.2312
5.55882 20.4548 77.7699
5.93092 20.9539 74.9919
5.63092 20.6217 77.4623
5.78998 20.4045 76.1963
5.72208 20.2536 75.7168
5.79477 20.7635 74.0515
5.48953 20.1142 77.0503
5.7943 20.5309 75.3374
5.64178 20.3815 76.498
5.73036 20.2935 75.8594
5.66246 20.0712 74.4155
5.57468 20.1937 75.6582
5.59849 19.792 73.2053
5.48966 19.8546 73.4383
5.53838 19.9552 76.3058
5.67359 20.4097 75.4473
5.58673 20.2513 74.5284
5.50707 19.9014 72.4287
5.30892 19.5656 77.323
5.77067 20.3645 75.4796
5.53434 19.4235 71.9429
5.36623 19.8492 72.7886
5.36707 19.8648 74.3793
5.45556 19.8695 76.5394
5.64055 20.3816 75.7546
5.54455 19.9695 74.1126
5.43872 20.5791 76.5272
5.53259 19.9297 73.6423
5.36732 19.9374 74.7254
5.45647 19.9908 74.1881
5.35626 19.5422 74.198
5.34984 19.6232 74.6894
5.47476 20.3146 76.7026
5.53569 19.8436 74.4678
5.43903 20.3748 75.5349
5.38983 19.7371 75.412
5.45064 19.8619 75.3627
5.42374 19.7383 75.1383
5.40638 20.0229 76.4382
5.50689 19.5677 72.244
5.24095 19.1076 72.8432
5.28102 19.5618 74.1855
5.30596 19.3719 75.404
5.50803 20.2933 75.1972
5.35969 19.7388 76.2301
5.47041 19.7443 73.563
5.30096 19.7422 75.1757
5.4196 20.0089 75.0257
5.36912 19.7167 75.1259
5.34394 19.3296 72.9805
5.25087 20.2591 74.8182
5.25868 19.4278 75.0394
5.29403 18.9271 74.6953
5.34031 19.3117 74.9415
5.39708 19.2871 73.6961
5.30591 19.9245 76.1645
5.42106 19.9528 74.1941
5.24875 19.7676 74.1399
5.28756 20.1953 75.3835
5.27138 20.3903 74.9329
5.18076 25.6831 154.856
11.1274 31.3997 76.9953
5.32181 20.6917 74.9266
5.30133 20.0842 74.4369
5.21689 19.8221 75.7237
5.30677 19.5848 75.1235
5.29793 19.5381 75.1247
5.29396 19.52 75.0888
5.26429 19.4418 74.5071
5.23713 19.0654 73.1017
5.13238 18.8833 74.4283
5.29834 19.5397 73.7285
5.1932 19.2981 75.0925
5.27834 19.25 72.2657
5.07483 19.2282 74.2618
5.15483 19.2554 73.1858
5.1738 19.4181 73.9337
5.16438 19.1803 74.4566
5.23185 19.3021 72.5826
5.08451 19.0677 73.263
5.09404 18.8369 72.0508
4.98615 18.7637 73.6519
5.16693 19.2931 75.3361
5.24679 19.3375 73.5801
5.1512 19.1759 74.6184
5.16723 18.8279 75.4836
5.30799 19.7497 75.5653
5.19672 19.3433 72.6299
5.01632 18.5107 71.7435
5.04617 19.3997 75.5473
5.20612 19.2061 71.739
4.9299 18.9887 74.441
5.105 18.8356 72.5729
4.98684 18.3687 72.6715
5.05184 19.0838 71.1455
4.84056 18.6181 74.9864
5.19772 19.0747 74.8546
5.14905 19.4262 75.0233
5.14114 18.765 73.9754
5.12047 19.1286 74.515
5.07378 19.1257 73.7674
5.00923 18.5696 72.0294
4.96526 18.8362 72.457
4.97265 19.0264 74.8079
5.12883 19.0095 72.4026
4.93817 18.327 71.96
4.94514 18.5345 73.9509
5.08643 19.3716 74.8176
5.09536 18.7185 71.7122
4.88633 19.0187 73.7574
5.00092 18.6876 72.3957
4.97046 19.1545 73.7767
5.0163 18.5981 70.7047
4.79905 18.5533 72.7961
4.95861 18.309 72.7134
4.93001 18.6506 70.2747
4.77227 18.5775 73.304
4.93781 18.2903 70.5421
4.80908 18.9732 76.4026
5.14748 18.3854 71.8906
4.90256 18.8099 73.6859
4.98995 19.0122 76.0943
5.17408 19.1475 73.5493
5.00401 18.9345 73.8225
5.0179 18.743 73.0026
4.95383 18.4603 71.3558
4.82295 18.9037 73.9532
4.95568 18.7776 73.686
4.92319 17.9182 69.9252
4.75613 18.3819 70.9057
4.79621 18.2625 70.5917
4.76465 18.4417 73.0299
4.90698 18.6375 71.9516
4.82875 18.5738 72.9253
4.87533 18.3758 72.1181
4.82981 18.343 73.365
4.9094 18.9733 75.8568
5.06733 18.8574 72.1993
4.82036 18.4157 75.1642
5.02211 18.5038 73.1787
4.91973 19.2854 73.9804
4.9545 18.6269 70.2077
4.71824 18.0298 72.1927
4.83897 18.0553 71.9485
4.82444 18.6869 73.9432
4.94044 18.3217 71.6596
4.78448 18.1742 72.4058
4.86421 18.6228 72.2456
4.78798 18.3742 73.6494
4.87308 18.2946 70.4063
4.73186 18.211 70.1578
4.67909 18.77 73.6271
4.86265 18.3658 72.1884
4.81891 18.1967 72.1897
4.76139 18.8481 73.6865
4.86844 19.3727 72.6155
4.78673 26.1421 161.817
10.5843 28.4849 71.9809
4.79073 19.2001 72.8653
4.82939 18.9184 72.507
4.807 19.006 72.829
4.80582 18.5408 72.812
4.788 18.3487 72.9437
4.81541 18.5202 71.5562
4.71901 17.8532 72.4215
4.83281 18.3057 71.2946
4.70326 17.8784 71.5305
4.73597 18.0269 70.3564
4.65259 18.2529 74.0966
4.88356 18.1258 72.2561
4.77978 18.6992 71.1984
4.68372 18.1289 73.3118
4.84611 18.6936 75.3845
4.93574 18.3306 71.0054
4.68613 18.1844 72.1141
4.73985 17.7326 68.8073
4.56837 18.5102 72.9531
4.79341 17.7859 70.7295
4.68237 18.086 71.661
4.70763 17.7914 70.9088
4.70613 18.1981 72.4495
4.79557 18.4599 71.6575
4.70477 18.2647 72.9784
4.76721 18.1857 72.2553
4.76027 17.9768 71.6838
4.71248 17.8377 71.8665
4.74678 17.9351 71.2557
4.66559 18.0072 70.4807
4.64753 18.3036 74.4987
4.86567 18.5368 72.28
4.73256 17.663 70.7685
4.6023 17.9261 71.5818
4.70054 18.0918 72.5813
4.75719 18.5827 72.6265
4.80003 18.539 73.2559
4.79137 18.1889 72.2649
4.73101 18.4144 73.7009
4.82446 18.5843 70.9203
4.63364 17.653 72.666
4.78086 18.4063 72.4168
4.75106 18.2272 73.7715
4.81053 18.2178 71.8941
4.73135 18.3107 72.8731
4.73756 17.9552 70.1048
4.56681 17.9165 72.0788
4.71209 18.3497 73.0556
4.76984 18.0928 71.8398
4.68997 18.0222 71.7412
4.68126 18.1406 73.3602
4.77089 18.3375 71.2783
4.65654 17.8272 69.656
4.5441 18.1634 73.6221
4.77082 18.4257 73.6182
4.75807 18.4522 73.5361
4.78987 18.3022 73.1818
4.73277 18.3675 74.0685
4.86344 18.3615 72.6202
4.7359 18.8126 74.6497
4.83715 18.3503 73.2902
4.76165 18.1201 73.7483
4.81499 18.0331 72.0382
4.68607 18.827 73.4843
4.77087 18.2964 72.3802
4.67572 17.8899 73.1291
4.74231 18.5766 74.5837
4.888 18.8844 72.2988
4.6934 17.9132 71.305
4.62404 17.8906 71.7938
4.67108 18.297 72.8877
4.71848 18.4414 73.531
4.80619 17.8009 73.6257
4.77763 18.4191 73.562
4.82744 18.6703 72.0203
4.62408 18.0028 72.6919
4.75538 18.4953 73.0427
4.72914 18.1535 71.5879
4.66201 18.2201 72.9872
4.76984 18.1732 72.0395
4.66074 17.9958 72.7633
4.71884 18.6692 72.8224
4.69443 18.0577 72.5147
4.71654 18.0873 74.0883
4.82549 18.5821 72.5419
4.71074 17.8859 72.275
4.69071 18.2207 72.7386
4.69912 18.293 71.7301
4.69246 18.2398 72.5616
4.74379 17.9915 72.4917
4.68574 18.9403 74.839
4.84251 18.5948 73.5701
4.80587 19.3692 76.5114
4.92567 20.0458 75.1774
4.90589 30.138 186.016
11.7907 0 0