# pn-170911/RbIIR-54-AMC2-1280-1959.psd
# Power spectrum* (dif=0,1,2) (really just |FT|^2)
# NOTE: only the first half! (symmetric)
# weeks: 1280-1959
# 403 clock-days, 140 excluded
# PSD: 1441
853.572 0.123508 0.0584417
21592.6 0.32279 0.134681
170954 3.66353 0.137221
13334.6 0.544992 0.134136
31863 2.45479 0.128338
4549.53 0.479447 0.148697
3612.17 0.589935 0.115918
2521.65 0.500825 0.133675
2250.15 0.669815 0.13471
1671.66 0.59031 0.13408
1231.79 0.55074 0.122635
1172.52 0.62723 0.138085
1052.37 0.653376 0.133102
841.39 0.601508 0.129888
837.269 0.668634 0.131724
793.375 0.765217 0.130308
703.872 0.796947 0.136625
649.118 0.876078 0.146848
614.394 0.892203 0.135594
668.035 1.06044 0.132851
600.142 1.1214 0.145356
561.353 1.08725 0.136337
524.833 1.1358 0.148775
500.037 1.21594 0.142717
488.63 1.29289 0.144313
486.261 1.41566 0.148087
474.63 1.45439 0.148794
474.668 1.57332 0.140083
470.045 1.64183 0.149046
483.573 1.97025 0.147784
494.583 2.11059 0.144759
555.443 2.49868 0.141202
461.407 2.20543 0.154856
489.174 2.4856 0.155657
441.959 2.26473 0.143363
474.301 2.80291 0.164738
477.511 2.89638 0.15823
431.872 2.82792 0.143216
431.683 2.88622 0.157313
466.383 3.39407 0.158276
417.014 3.15516 0.153794
429.601 3.36659 0.159853
439.587 3.68901 0.163653
438.908 3.77193 0.167129
444.53 3.97522 0.18092
432.683 4.11661 0.164302
392.095 3.91492 0.164981
437.533 4.59295 0.17431
419.899 4.5554 0.190466
395.606 4.42967 0.171687
397.921 4.80536 0.175522
406.886 5.01946 0.213753
413.934 5.25078 0.208029
399.847 5.31105 0.200623
381.97 5.3206 0.199206
388.248 5.49165 0.194421
398.63 5.82393 0.233499
392.962 6.09915 0.213669
409.391 6.60756 0.238743
391.586 6.38359 0.232954
409.443 6.94978 0.244485
392.704 6.86883 0.252574
402.711 7.34393 0.267921
386.954 7.32304 0.275144
384.418 7.34104 0.270481
388.091 7.76828 0.287338
352.534 7.26133 0.283878
385.334 7.96498 0.30083
329.037 6.90885 0.272812
373.647 8.37537 0.296295
401.946 9.45114 0.321119
353.556 8.34202 0.326821
333.466 8.3166 0.348643
369.744 9.14958 0.357718
333.844 8.71709 0.348279
342.725 9.06301 0.350774
377.428 9.91629 0.405633
318.074 8.8992 0.384369
341.264 10.0312 0.407083
362.277 10.715 0.426635
324.045 10.0158 0.451589
314.758 9.77698 0.429347
320.294 10.1516 0.432875
319.875 10.391 0.45961
336.861 11.3509 0.522558
319.082 10.8351 0.467252
329.492 11.4281 0.525702
311.464 11.1088 0.525224
316.608 11.3391 0.564037
309.768 11.5341 0.568856
302.809 11.583 0.568521
281.445 10.958 0.530442
267.647 10.8181 0.583597
312.088 12.4809 0.596234
305.312 12.657 0.655196
296.175 12.2932 0.664588
338.169 14.7715 0.817694
280.666 12.5159 0.667418
274.586 12.6282 0.697801
288.196 13.0769 0.697468
273.149 13.0293 0.734685
280.022 13.4086 0.776249
299.25 14.618 0.83763
260.339 13.1234 0.748598
275.606 13.9237 0.822799
276.946 14.1148 0.870842
256.94 13.5691 0.849495
268.85 14.6192 0.936831
250.407 13.8077 0.841126
247.181 14.0711 0.896252
262.302 14.5401 0.939457
257.162 14.7915 0.974186
247.431 14.9624 0.992962
247.602 14.9848 0.98029
236.968 14.5691 0.963228
244.124 15.218 1.07874
245.061 15.3915 1.09214
210.929 13.4955 0.987304
224.827 14.4474 1.05279
233.882 15.6786 1.13401
214.144 14.533 1.08688
251.566 17.2399 1.23108
218.365 15.4233 1.18984
218.645 15.5495 1.21853
233.589 17.0723 1.35766
237.385 17.3736 1.36386
214.489 16.3218 1.3409
223.647 16.9386 1.36404
224.157 17.4966 1.44633
215.838 16.7675 1.39443
216.8 17.1945 1.49617
211.858 17.2625 1.44381
221.174 18.0851 1.56788
205.815 16.9195 1.46997
209.273 17.4934 1.55964
189.874 16.0989 1.43738
214.785 18.4453 1.65846
220.1 19.695 1.82299
203.437 18.1179 1.75861
218.3 19.8902 1.94786
210.481 19.2215 1.85432
186.686 17.2675 1.67908
192.126 18.055 1.76635
195.809 18.8279 1.89738
207.703 20.409 2.07876
181.493 17.7244 1.85684
197.359 19.6365 2.04403
188.373 19.4924 2.05827
193.342 19.9937 2.16581
198.438 20.6181 2.18817
205.665 21.2808 2.36792
182.341 19.3008 2.07738
186.257 20.0444 2.22187
183.921 20.1381 2.31574
184.694 20.3537 2.32255
183.018 20.7022 2.37543
178.45 20.3828 2.32609
174.134 20.0254 2.40904
179.737 20.9449 2.53587
165.218 19.369 2.32889
168.374 20.5303 2.57753
182.487 21.9036 2.73615
168.811 20.8609 2.67437
150.124 18.9094 2.45575
161.722 20.3624 2.71415
168.716 21.0105 2.63545
165.642 21.5116 2.81975
180.83 24.1721 3.19195
167.041 21.9274 2.85748
165.782 21.7826 2.96086
151.859 20.1648 2.74352
169.289 23.0348 3.20397
170.506 23.3335 3.20892
149.446 20.9387 2.97122
149.758 20.9424 2.98735
148.298 21.6151 3.13369
172.897 24.8458 3.69205
152.206 22.368 3.30505
172.284 25.428 3.75496
142.422 21.2329 3.24881
149.806 22.5077 3.3832
154.478 23.7981 3.62679
142.376 22.2347 3.59616
136.685 21.558 3.36398
132.698 20.9376 3.39204
141.279 22.5399 3.63963
147.08 23.6833 3.85022
146.569 24.2548 3.84738
136.043 22.3465 3.67003
154.312 25.7761 4.24484
135.01 23.0334 3.97601
128.091 21.7491 3.76086
195.23 33.5745 5.67814
129.737 22.7996 4.07326
137.461 24.0589 4.19198
152.109 26.6636 4.72071
132.893 23.6846 4.2937
129.636 23.589 4.25952
128.212 23.5322 4.23765
128.809 24.0683 4.53781
121.72 22.8839 4.34156
132.524 24.7656 4.57486
127.641 24.3874 4.53241
117.69 22.8731 4.35966
126.9 25.0531 4.87238
118.966 23.2064 4.56719
126.512 25.0993 4.98557
125.238 25.0105 4.92117
123.566 24.4622 5.02292
118.108 23.8309 4.89958
127.347 26.1497 5.44034
125.205 26.0588 5.45138
126.454 26.5266 5.49867
125.242 26.5435 5.5666
118.175 25.7537 5.62193
123.674 26.7369 5.83649
106.742 22.8087 5.06555
109.06 23.9369 5.21836
107.511 23.8587 5.23822
100.812 22.7262 5.11128
124.706 28.4973 6.40236
114.415 25.9739 5.82199
116.372 26.5602 6.01713
103.346 24.3296 5.75444
112.918 26.003 6.06248
116.581 26.9013 6.20368
106.784 25.84 6.17129
111.31 26.7615 6.40294
106.421 25.7127 6.22
117.558 28.8608 7.14431
114.643 28.0254 6.74456
109.274 27.3234 6.88618
105.176 26.3734 6.6881
102.065 25.1514 6.23234
101.827 26.201 6.74159
110.189 28.2671 7.22798
108.91 28.1409 7.37989
103.476 26.7782 6.95024
105.975 27.2372 7.07044
115.474 30.963 7.98938
102.558 27.6757 7.48807
94.0002 25.0017 6.75317
93.7859 25.7598 6.98947
98.4745 26.8428 7.43261
107.414 29.1601 8.10056
105.8 29.636 8.25119
95.84 26.2662 7.18933
90.7958 26.1783 7.62176
92.22 26.3475 7.62683
95.0091 27.3519 7.68691
96.1259 27.9314 8.09114
100.662 29.3308 8.78858
89.8532 26.2518 7.68042
103.512 31.0243 8.99842
89.0857 25.7976 7.60614
84.2419 25.4223 7.66144
86.9661 26.392 7.99911
91.7286 27.6676 8.40482
99.3598 30.4701 9.4451
91.8913 27.9103 8.68262
96.0457 29.953 9.25778
96.2308 30.1761 9.54128
88.5883 27.8905 8.96677
92.0894 29.2381 9.38405
99.359 31.0181 9.7209
86.3025 28.2407 9.31274
89.4242 29.5556 9.60094
93.9759 30.6031 10.0209
81.3968 26.941 8.97775
87.0097 29.3304 9.72428
85.3872 28.6141 9.47647
91.4295 30.4564 10.0626
87.0822 30.0939 10.2526
82.6866 27.9186 9.34714
80.0642 27.7433 9.73554
82.6519 28.5436 9.87728
82.4529 29.1281 10.2867
77.9624 27.2695 9.78856
88.2475 31.1348 10.921
82.1764 29.7201 10.6552
79.6725 28.5124 10.1094
77.8817 28.4279 10.3723
81.1732 29.2579 10.5657
78.5004 29.4774 11.054
80.0177 30.0083 11.0776
76.6166 27.8195 10.1523
80.7398 29.9959 11.4736
79.4102 30.4265 11.8039
118.634 45.3753 16.9359
82.3723 31.0745 11.8507
74.8159 28.6521 11.17
82.1913 31.6774 12.1085
79.4181 31.6926 12.5354
84.6282 33.2427 13.2596
80.5354 30.7144 11.7577
67.9498 27.3823 11.155
71.6594 28.7857 11.5403
75.3596 30.78 12.2851
68.0935 27.7178 11.37
70.6816 29.1377 11.9936
71.3117 29.0894 12.0136
70.7006 29.0649 12.0029
67.7137 27.862 11.5184
72.9489 31.1078 13.0115
69.3727 29.5841 12.5883
73.9879 30.792 13.0139
70.7995 30.8469 13.5458
69.621 28.9014 12.2377
66.774 29.4286 12.9917
69.9005 30.3704 13.1243
69.7066 30.9711 13.8733
69.2896 30.1731 13.0507
64.0351 28.1685 12.4546
71.0499 31.9762 14.262
67.9272 31.1322 14.2581
64.5143 28.5848 12.9294
69.5941 31.7642 14.3155
66.2725 30.0809 13.7351
62.8112 29.5961 13.9086
62.882 28.3879 12.9943
69.1043 32.296 15.0006
58.2891 27.4157 13.071
76.425 35.3073 16.1979
67.0843 32.0181 15.2636
61.6881 29.6558 14.1996
60.3148 29.0469 14.0871
59.1125 28.7525 14.1819
61.4932 29.4471 14.0676
61.5537 30.5973 15.451
62.655 29.7015 14.1051
60.7764 30.598 15.5117
62.4225 31.3301 15.6516
61.4541 30.4388 15.0747
59.598 30.3593 15.8397
59.5773 29.6243 15.1338
65.117 32.8251 16.6894
59.895 30.0699 15.294
64.9282 32.8324 16.5572
55.3243 29.6247 15.6204
59.5138 30.8575 16.4737
64.6082 33.1318 17.2049
59.9507 31.2452 16.0511
55.9479 29.58 15.4275
51.2541 27.8065 15.115
55.9347 29.6214 15.8053
55.7356 29.2302 15.5155
52.595 29.0926 16.2496
54.6202 29.3333 15.741
54.1271 29.6674 16.2466
55.127 30.9525 17.573
58.5222 32.1856 17.6739
58.5245 33.0124 18.5508
59.3997 33.2263 18.4751
56.5309 31.8006 18.0639
56.4018 31.2696 17.3183
52.8849 30.1725 17.2706
54.12 30.9614 17.7311
51.574 28.8367 16.2748
50.6291 29.6652 17.2337
49.1896 28.1132 16.2559
50.7015 29.0357 16.6402
49.6707 28.9896 16.9963
50.3426 30.712 18.842
51.6234 29.9225 17.397
48.761 29.282 17.8535
51.3545 30.5634 18.1399
49.7011 30.4105 18.5944
47.9989 28.9859 17.8832
52.1515 30.9933 18.3066
52.7493 33.4321 21.0312
53.1291 31.5653 18.8167
46.5724 28.9745 18.1157
48.2595 29.5514 18.4715
48.5952 31.0876 19.8673
51.3017 32.6923 21.0595
53.2297 32.6656 20.1463
48.183 30.4198 19.454
48.5381 30.9119 20.0046
44.8263 28.3099 18.2248
47.6169 30.3528 19.3082
46.8813 30.773 20.0928
50.5262 32.8175 21.2799
45.9186 29.7073 19.6137
47.0217 30.653 20.527
62.7273 41.246 26.2872
50.7689 32.7837 21.5535
44.2175 29.3613 19.954
45.5568 30.6067 20.9878
47.2229 31.8577 21.8041
46.1976 30.356 20.6796
48.9909 33.1085 22.7189
46.7327 30.7219 20.6036
49.0186 33.3081 22.4897
43.9155 30.1296 20.907
45.7355 31.4357 22.0344
41.407 28.1906 19.5607
48.2289 32.5643 21.7972
44.3633 31.3134 21.8455
41.0216 29.8093 21.8122
42.1791 29.8111 21.5288
43.3121 30.694 21.6147
42.9094 29.6551 20.7909
46.5653 33.5084 24.1281
41.0903 29.181 21.0774
44.7389 32.7947 23.974
42.6535 30.6075 22.332
41.4148 29.6031 21.4739
40.2225 28.9963 21.3902
40.5399 30.4651 22.5267
42.5062 31.3913 23.304
39.1178 28.3753 21.2069
37.6422 27.6077 20.6728
41.7074 31.1403 23.1194
36.3322 28.1466 22.1111
40.6716 30.828 23.125
41.6584 31.1321 23.3945
43.3899 33.5834 25.9912
42.4188 31.8324 24.9431
42.2368 31.3246 23.6407
38.5872 29.2547 22.7792
39.8225 30.991 23.9847
37.9139 29.8648 23.5231
38.673 31.0994 24.923
38.7112 30.0567 23.5595
38.8708 30.9448 24.8603
38.4389 30.8405 24.516
36.5023 29.0596 23.6574
39.1729 30.1719 23.4476
39.7542 31.8681 25.5953
35.8423 29.1279 23.5308
35.8773 29.4967 24.802
37.2778 30.2349 25.4123
36.9182 29.1975 23.7222
39.3689 31.3489 24.7546
35.4563 30.6339 26.5525
41.0506 33.39 27.4695
35.3576 29.1602 24.0554
38.8478 33.9609 29.2302
36.2875 29.9888 25.3205
35.7481 29.2306 23.7993
34.7503 30.1646 25.5125
36.8668 31.7582 26.9373
34.8027 30.115 26.1204
31.4836 26.9736 24.0105
38.9913 33.5163 28.6638
36.6919 32.0842 27.9284
34.8104 29.3265 25.4068
35.3968 30.7768 27.1407
33.7308 30.6754 27.5715
36.4184 33.2136 30.376
35.4024 30.1569 26.7567
34.7414 28.8316 24.0637
36.3417 33.072 29.357
35.1827 32.6945 30.2448
31.1562 27.7079 25.4462
32.6681 29.8307 28.2787
36.2176 30.9259 27.1634
33.309 29.9576 27.0903
32.8579 30.2975 27.9545
30.6919 28.1694 26.6352
35.5153 31.1671 27.219
34.9025 32.745 30.5136
35.7205 32.5007 30.0415
34.4517 32.1102 29.8974
33.9425 31.1986 28.7728
30.8463 28.6851 27.1783
33.6327 31.6332 29.7415
27.7752 26.0805 24.9944
32.3132 31.2551 29.9521
32.5925 31.6159 31.2451
34.3454 31.9256 30.0433
33.2059 31.3694 29.6308
32.9688 33.0341 32.3646
29.7804 28.6066 28.4778
31.4468 29.8317 29.4237
31.6416 30.0759 28.944
29.5141 29.3775 29.384
30.1253 29.1094 29.1002
30.9093 29.5747 28.9562
30.4057 31.0688 33.6927
46.4102 43.7039 39.1336
28.8717 29.5605 30.6425
30.2667 29.722 29.4844
29.2089 29.4132 29.6679
29.5275 29.237 28.6566
25.6939 27.1659 28.6567
30.0131 30.4188 30.7805
30.0324 30.3546 30.9673
28.0704 29.1371 30.6695
30.4009 30.9486 31.7362
26.643 27.3392 29.0791
30.8201 31.9478 33.0734
29.8488 31.0524 32.2887
27.9158 27.8993 28.5053
27.1131 28.3937 30.8956
28.5995 29.1201 29.894
28.1911 29.7102 32.2363
30.4606 31.0641 31.7169
27.1583 28.58 30.442
27.4458 29.4119 31.624
27.1829 28.7616 31.2364
28.7938 31.2709 32.943
24.57 25.6291 28.3306
26.9142 28.878 31.0311
26.7827 28.254 30.2974
25.9977 29.6697 33.7734
28.1235 30.434 34.3045
28.3821 30.7803 32.5667
25.1874 28.0762 31.6663
27.9728 30.5313 33.8771
27.46 30.1271 32.4146
23.9596 27.0211 31.811
28.7846 31.3146 34.1935
27.226 30.9639 35.2035
28.0035 29.9624 32.0692
24.6308 28.7662 33.7136
26.4498 29.7269 34.2765
26.4485 28.52 31.8055
25.5441 29.1486 33.4872
25.052 27.6296 31.0804
27.2745 31.529 35.9716
24.0787 28.6129 34.2971
25.636 30.1714 36.0914
24.3122 27.1046 31.6777
25.9458 29.4908 33.918
25.7326 30.3229 35.3175
22.7543 27.85 34.6806
24.1088 27.5218 32.7617
25.3452 29.0654 34.2098
22.359 24.6589 29.0167
26.897 31.3506 35.8561
23.526 27.2077 31.6543
25.5009 32.2219 39.0431
25.4954 29.1771 34.4414
25.7 30.9796 37.2262
23.7705 28.757 35.2037
23.3891 27.7007 33.3781
22.7385 28.125 35.579
24.521 29.3321 35.2143
22.9854 28.3112 35.0245
22.7314 28.3281 36.3763
24.2974 28.6385 35.0783
24.8957 29.9596 36.3526
22.8705 27.796 34.1647
22.8485 27.8419 34.1395
23.7885 30.6188 38.3323
23.1125 28.828 36.0272
22.6332 29.3469 38.4518
22.7264 27.8084 34.1935
20.6701 25.6911 32.7563
21.6941 27.398 35.3045
23.2975 29.2186 37.5377
22.3184 27.7957 34.9442
21.1091 26.0251 33.0508
21.5926 28.1633 35.8002
20.4724 26.9667 35.588
21.7779 28.2116 36.5737
21.1544 26.6035 34.4895
21.3555 27.5586 35.3461
22.3432 30.1214 39
20.1505 25.6225 35.9731
24.4571 31.2718 40.1654
21.2617 27.38 36.5837
20.487 26.6739 35.2955
19.9276 27.2973 37.6648
20.3803 25.8168 35.0697
22.0557 28.0335 36.5578
22.0939 29.5295 38.6954
19.6386 26.2151 35.4745
19.7282 26.3237 35.8275
20.7561 28.0431 37.0249
21.7411 31.4731 45.0954
21.9966 28.2344 37.1526
20.462 28.6534 40.0276
20.2317 27.1011 38.3618
20.4422 28.9375 45.3232
34.2419 43.7956 52.6013
21.2882 29.2095 40.2896
19.9807 27.265 38.8596
19.9008 27.561 39.1069
20.2203 27.1086 37.4959
19.3117 26.2188 37.2885
19.8259 26.6484 36.2942
19.2153 26.2458 36.5574
19.1418 28.3055 41.247
19.2008 25.7802 35.6148
19.1401 27.4289 40.3911
19.7048 26.7648 38.3975
21.2747 28.8914 40.3435
19.6528 27.9871 40.8473
20.9668 28.7667 39.9143
18.4109 26.1597 37.4516
18.481 26.5153 37.8642
18.0104 25.9141 38.9152
20.0223 28.6647 42.3214
20.5056 29.0946 41.4554
19.7951 28.3416 41.5753
18.8555 27.1135 39.1904
17.2011 25.043 37.2802
18.8277 28.3323 41.3262
18.0064 26.3094 39.5648
18.1832 27.0292 41.0269
18.7585 27.1949 40.6962
18.4831 27.2407 41.2908
20.1122 30.0948 44.3484
18.6841 27.032 39.1881
16.6756 26.1163 41.4303
18.5836 26.7303 40.4351
19.6085 29.2267 42.54
18.3055 27.3017 40.7665
16.9933 25.4094 38.5877
18.1046 28.5312 44.5727
19.0637 27.739 40.607
17.5253 27.6531 42.3298
16.5644 25.2892 38.7066
15.8604 24.8294 41.5965
18.5473 27.3629 41.5986
16.7095 25.32 39.8483
17.9985 27.3448 41.0592
15.4727 24.1394 38.9149
16.6335 24.99 39.452
18.5794 28.0894 42.8912
16.9821 25.4184 39.0112
16.8135 26.771 43.3337
17.5371 27.2263 42.8948
16.3995 25.1117 39.4506
15.7965 25.0172 41.5915
17.8782 27.0401 41.32
16.6188 26.3874 42.0708
17.2926 26.5918 40.7746
14.9102 24.6161 42.1114
17.0118 26.0473 41.812
17.2423 27.3718 42.8896
15.8113 25.282 42.5288
17.7794 27.5648 42.5183
15.0413 25.191 41.6288
15.7002 25.6197 43.3091
15.6326 23.759 38.4057
15.0912 24.3883 41.1265
15.3667 24.486 40.6869
15.8707 25.6055 42.1475
15.6647 24.9038 40.8441
15.8711 25.3957 40.1944
13.6022 22.8298 39.2935
16.0882 26.4894 42.5935
13.8434 22.5818 37.6531
15.2451 26.5834 45.0277
14.5397 23.9155 41.37
14.7409 24.1122 40.5953
14.8285 24.6364 41.1184
15.4062 25.6199 43.1115
15.5476 26.5617 45.4937
14.878 25.2579 45.8715
16.122 26.3316 44.9907
15.6969 25.106 41.7381
14.3099 24.4976 44.2601
16.0447 26.386 43.2912
14.1963 24.0513 40.543
12.8115 21.8057 39.302
14.719 25.6773 45.9764
15.1524 23.8926 40.4807
15.1635 25.4542 41.4584
13.841 24.2186 42.2656
14.1114 24.6507 43.5381
13.7845 23.9295 44.2078
16.1943 26.3831 42.1752
13.2558 24.2592 45.3583
14.8894 25.702 45.434
13.8901 23.4849 41.8777
13.6925 24.0485 43.1753
15.3412 28.0648 50.5939
14.1993 25.6952 54.9752
23.2435 38.7626 57.4631
13.474 24.5583 46.1729
14.7031 25.5725 45.1432
13.8173 24.2295 43.7162
14.092 24.7697 43.4102
13.2848 23.827 42.5346
13.1408 25.0041 48.0018
13.0926 21.7082 39.9171
13.1652 23.1076 40.2552
11.9394 21.3247 40.2241
13.3591 24.1962 43.3875
12.4726 23.0394 43.2887
13.1255 23.0099 42.455
13.3835 24.0179 43.7338
12.9685 23.8228 44.744
13.5358 24.7714 46.0334
12.58 22.8424 44.1895
13.8614 24.6575 46.5578
13.4859 22.455 40.5668
13.7429 25.3613 43.8837
11.3037 22.0709 43.2057
12.8803 24.105 46.148
12.2062 21.7005 41.4763
12.6234 23.3634 44.8488
12.7404 22.9472 43.1169
12.0685 21.5984 41.3597
12.0059 22.4296 42.7587
12.8551 23.7519 44.6551
12.0002 22.3123 43.4478
12.8535 23.1267 42.5034
12.448 23.2845 43.7968
12.5965 24.0101 44.0476
11.5962 23.1318 47.3723
13.2751 24.9096 47.7292
12.5047 21.9784 42.9573
13.4091 24.8949 45.7228
12.1235 23.9973 46.6857
12.3385 23.5602 46.8319
11.953 22.5466 43.3005
11.8707 24.1291 49.0318
12.5783 23.2558 46.1365
12.5052 23.1609 44.0423
11.8365 22.973 45.3299
11.2636 21.0346 40.9922
11.105 22.3507 46.302
11.744 22.2117 44.8939
12.2727 24.0467 48.1631
12.3473 23.1592 44.96
12.1131 23.0685 44.262
11.1874 21.4267 43.3606
12.154 23.8582 47.1838
12.0913 23.7816 46.1002
11.6907 24.3705 50.5333
11.4327 21.1669 43.778
12.5273 24.2026 45.796
11.0455 22.702 46.2402
11.5561 22.9851 46.3519
11.7824 23.6875 48.1914
11.0367 21.9048 45.474
11.1592 21.106 41.3183
10.8071 22.6735 48.7798
11.2061 21.7031 43.9452
11.327 22.5449 46.0092
10.9352 21.3879 44.2032
11.0318 22.7527 48.3632
11.4912 21.8865 42.4765
10.143 21.3709 45.6298
10.5629 21.1097 44.2171
11.0878 22.7433 47.3361
11.0405 22.8435 49.1947
11.9313 24.8863 51.5448
11.2373 22.5351 48.2532
10.5139 20.3873 43.7614
11.2534 22.4367 45.4634
10.144 20.4377 42.6048
10.9044 22.7718 46.2899
9.28871 19.3665 43.7728
10.2532 20.7658 44.1094
10.5716 22.5312 47.8661
11.048 22.6911 47.8573
10.7923 22.6212 48.596
11.6347 23.773 46.9131
9.55677 22.061 49.1808
9.9003 20.7729 48.8635
11.0182 21.8838 45.9064
10.8896 23.1034 50.0813
10.8986 22.7302 47.1441
10.0129 21.7552 48.4574
10.3208 22.0665 48.6321
10.4816 22.2716 47.4177
10.0781 21.6189 48.1536
10.2764 21.3455 45.372
9.36625 19.4571 43.8342
10.3102 22.9122 49.2237
9.60119 20.9292 48.8351
10.0237 22.2679 58.4826
15.1508 28.7374 49.9439
9.7553 22.9888 51.0069
9.34801 19.4334 45.4798
10.0785 21.0139 44.7816
9.52593 20.9694 48.7528
10.6115 22.7176 47.4743
10.034 22.7105 49.9431
9.33339 20.4556 47.6855
9.6034 20.5475 47.54
10.3094 22.0528 47.3074
9.4137 20.7302 45.4483
9.3824 21.5011 48.3166
8.85055 18.8422 43.49
9.05271 20.2894 46.2469
9.39739 20.2186 44.3776
8.41461 18.8618 46.5139
10.3137 21.6977 46.4551
9.64307 21.5208 46.9508
8.90799 20.3933 46.1068
8.72506 18.564 42.7689
8.89108 20.8036 48.9886
9.79621 20.6751 45.0536
9.11455 21.7818 49.4923
8.67093 19.0937 44.173
8.71645 20.3043 48.4847
9.04981 19.5528 45.1085
8.7976 20.3844 48.4545
9.63886 21.2076 48.5963
9.45186 21.7044 52.1442
10.0046 20.9873 44.0413
8.15813 19.8733 48.0264
9.30486 22.017 52.2616
9.23063 20.2235 45.0617
8.24291 20.1759 50.2232
9.35865 20.6325 48.763
9.4834 21.068 48.8227
8.71495 19.5175 47.4383
9.28164 21.3256 49.4377
9.12396 20.9787 49.8075
9.42473 21.7175 50.7525
9.18376 20.7717 47.5659
7.95714 19.0725 46.86
8.97569 20.7406 50.0634
8.85926 20.344 49.4977
9.18058 20.3897 46.8404
8.15439 20.1594 50.0292
9.08332 20.8727 51.0145
8.51312 18.4957 43.7743
8.14421 20.2019 50.8916
9.52192 21.498 49.7446
8.77054 20.3127 46.4233
7.53803 18.4502 48.117
8.52189 19.932 49.694
8.55616 19.9218 47.8066
8.31597 19.2291 46.53
8.32678 19.642 48.0496
8.42875 21.072 52.3008
8.53039 19.483 46.5323
7.6607 17.5236 46.3806
8.33339 19.3537 48.9628
8.9487 19.7087 46.503
8.73359 22.0509 53.7381
8.45988 20.0884 49.4941
8.10892 18.2367 45.6106
8.83595 20.4776 47.9632
8.54529 21.803 54.0872
8.46878 18.7036 42.263
7.20084 19.1498 49.5187
7.70281 19.0839 48.045
7.54972 18.3958 50.0699
8.88763 21.0735 52.0784
8.63211 21.0078 50.0029
7.471 17.9586 48.5237
8.16692 18.6043 45.2454
7.6805 19.6017 50.0818
8.00068 19.3038 48.1628
8.40984 20.6909 49.8559
7.10086 17.1961 44.9216
7.99797 19.7943 47.2653
6.86052 17.9337 48.8069
7.61411 19.1881 52.0501
7.74088 18.315 46.9817
7.8831 18.4669 47.021
8.00614 19.9913 48.4901
7.39988 18.3009 47.1919
8.01292 20.6716 53.6429
8.32144 20.8541 52.4125
8.03914 19.564 49.5514
7.82205 19.9178 51.8158
7.91664 19.8162 50.4933
7.0417 17.7712 48.6195
7.81421 19.001 48.5108
7.56523 17.925 44.827
7.48619 19.1891 50.1585
7.89037 20.2181 48.7959
6.65316 19.4453 65.1455
11.296 26.7063 59.7083
7.91711 18.2952 46.4417
7.43373 20.2079 53.2885
7.35527 18.6939 48.7395
7.26851 18.8485 49.5193
7.11768 18.3091 49.6553
7.6904 19.691 51.2246
7.17984 17.8867 49.6874
7.4599 17.613 44.8185
7.17589 18.4845 46.8399
7.08524 18.8796 51.2581
7.95276 20.0682 50.49
7.3351 19.7023 51.2908
6.70386 16.9717 46.4459
6.89137 18.155 50.3224
7.25687 17.9256 45.3101
6.73616 17.638 49.1432
7.28926 19.3099 49.0489
6.91674 17.9454 50.4028
7.48409 18.8201 48.3485
6.40764 16.6894 46.2181
6.89991 18.0909 48.2198
6.7524 17.7783 46.6175
6.20922 16.3318 45.5025
6.4954 16.6556 47.2486
7.24553 19.37 51.0994
6.77331 16.523 46.6424
7.04794 18.2204 46.0625
6.45768 18.2889 51.6558
6.98333 18.3297 53.369
7.57773 18.3199 46.6325
6.68038 18.7832 50.2296
6.77699 17.4648 49.164
6.69314 17.5025 47.0268
6.67656 17.8692 51.2127
6.90408 17.5347 47.3168
6.23555 17.545 49.0156
6.9325 18.2468 48.4716
6.49275 17.9105 50.6873
6.84887 18.7731 53.1325
6.43887 17.3252 50.1014
7.07314 18.852 50.9692
6.51541 17.8115 48.6407
6.56304 17.3558 49.1877
6.71834 17.8608 49.6126
6.49946 16.2653 47.4858
6.92625 18.5703 50.1477
6.33443 17.4115 51.5196
6.92223 17.3955 46.9616
6.11073 17.1023 50.176
6.77727 18.111 49.5573
6.41791 17.0257 48.0844
6.43917 16.8706 48.6605
6.65605 19.1881 53.1332
6.61019 17.78 51.4884
6.68446 17.9024 46.1201
5.72899 16.8487 49.3545
6.07996 16.4564 50.0392
6.65924 16.7455 45.0959
6.01018 16.6566 51.3717
6.77537 17.4948 47.8298
6.02074 17.05 51.8684
6.51396 16.5621 44.62
6.01698 16.9703 46.856
5.68581 16.4016 49.9099
6.31191 15.9537 45.509
6.02745 17.6631 51.5387
6.43419 17.4157 50.918
6.40776 17.4192 49.0977
6.32958 18.3332 52.0362
5.95108 15.814 45.5169
5.95208 17.6762 51.0411
5.89539 15.9494 45.3642
6.00454 17.6219 50.9739
5.9811 15.6273 44.7188
5.74556 16.6166 49.1887
5.72586 15.3015 47.0197
6.27478 17.4754 51.2209
5.97477 16.4001 49.6674
6.40257 17.6858 51.2002
6.17219 16.4041 45.3101
5.87679 17.3852 49.5419
5.85168 15.9866 48.2576
6.26464 19.1579 53.4407
5.81331 16.3473 50.6514
6.07257 16.4511 46.824
5.91826 17.8361 53.0899
5.96702 16.1447 47.5033
5.60917 16.9645 53.7321
6.36913 17.5381 49.8254
5.69637 16.7252 49.2239
5.78302 17.2586 54.1928
6.31614 16.9144 47.6506
5.54865 17.2742 53.6447
6.0355 16.1048 48.2563
5.73956 17.3577 60.3958
8.03468 21.2778 51.2147
5.71693 17.2466 49.9393
5.5948 16.9657 51.2669
5.28447 14.0684 45.3561
5.93312 17.8207 49.3726
5.2609 15.0282 47.2533
5.58925 16.2062 49.99
5.85366 16.7925 53.3497
6.15266 16.938 47.2994
5.11217 14.9531 48.6233
5.43959 14.9824 47.7375
5.9655 16.8312 48.6583
5.65671 16.9973 52.2548
5.92361 16.6028 49.1857
5.42015 15.4015 45.8748
5.28509 15.1276 45.9547
5.2995 15.7807 50.7871
5.80502 16.2996 47.2584
5.25868 15.2614 46.4105
5.11343 15.1127 48.7637
5.36054 14.9551 44.6536
5.36836 16.6399 50.383
5.33456 15.5261 53.0777
6.1879 16.7675 45.1644
4.85304 14.851 45.4615
4.98541 14.7858 47.0233
5.54945 16.9748 51.2637
5.09494 14.4252 47.6018
5.65699 17.1365 49.49
5.28033 15.8573 51.248
5.52065 15.4673 47.8636
5.18848 15.7185 49.5031
5.2708 16.0974 52.5969
5.73343 15.6974 46.1772
5.25282 16.3164 46.1835
4.67326 14.8156 48.581
5.11448 15.6686 51.5415
5.43981 16.4612 48.4551
4.80618 13.9483 48.0341
5.13375 14.1707 47.9257
5.57058 15.3114 47.201
5.34046 16.8194 52.5742
5.5614 15.1962 46.7968
5.23967 16.2785 49.4548
5.16447 15.9398 49.0741
5.10531 15.4501 48.8
5.22858 16.0571 49.3272
5.18366 16.1981 50.0327
5.30381 15.6773 49.7339
5.25277 16.2723 50.5737
5.08635 15.8726 51.2601
5.0932 14.1326 43.0344
4.64445 14.9065 52.4403
5.55143 16.4652 51.2862
5.23419 16.3643 49.925
4.86531 13.9014 44.8459
4.80538 15.3494 49.7097
4.89172 15.5957 50.7141
4.98331 14.2846 43.3338
4.53509 15.6978 49.8803
4.92879 14.2516 48.5554
5.00856 13.9333 46.9097
5.23326 15.7508 45.6426
4.62282 15.6556 49.6272
5.01219 15.7971 52.774
5.10251 15.0329 49.9748
5.00932 15.0566 48.2196
4.94212 15.6674 50.4582
4.9939 15.2388 49.6536
4.81298 14.5857 49.2327
5.07255 15.2713 48.3673
5.13256 15.6418 49.7184
4.86985 14.8165 47.5391
4.58435 14.6454 48.8382
4.9293 15.9139 52.5819
4.98558 13.4276 43.8972
4.60924 14.0138 44.3407
4.52613 14.2852 43.2294
4.27964 14.8921 48.1521
4.377 14.0682 50.5453
5.00674 15.7547 50.2188
4.75352 15.8236 51.9099
4.89827 14.1035 44.7071
4.58831 15.1474 50.1694
4.85573 14.9439 49.5036
4.72844 14.8177 48.3985
4.62885 14.4082 48.023
4.78935 15.6408 48.3817
4.36749 13.6634 48.4221
4.64143 14.2877 48.2209
4.84383 15.1354 48.4876
4.43174 14.0501 47.0916
4.802 14.7491 50.151
4.84974 14.7221 48.7012
4.79114 14.853 47.5428
4.50442 16.7584 69.8605
6.94309 19.4351 55.2598
4.78795 14.829 48.8051
4.55818 14.3862 47.7477
4.63611 14.8441 48.8216
4.59933 14.1047 48.5162
4.72144 15.394 49.3679
4.28919 13.5052 47.9518
4.63366 14.3388 48.4689
4.5615 13.9165 48.4554
4.83122 15.514 47.6533
4.33065 13.4775 48.0699
4.59514 14.634 48.5674
4.54938 13.6844 40.4399
3.80785 13.1702 47.7953
4.30605 13.8457 49.6494
4.74309 15.5026 51.2514
4.68223 14.3786 47.4547
4.4803 14.7576 47.6477
4.41268 15.3434 51.2597
4.51827 13.6957 47.3616
4.45328 14.7222 48.874
4.44899 14.0803 49.7653
4.67301 14.8416 48.8332
4.38439 14.4246 49.4863
4.47168 14.3186 48.5057
4.25309 13.245 48.221
4.56124 13.9729 47.2452
4.26223 12.8981 45.3451
4.25699 13.6289 45.6326
4.29894 14.2903 50.9928
4.65367 15.1866 47.1899
4.10593 13.5475 46.3007
4.34543 13.6004 46.9991
4.4788 15.1569 51.3379
4.28747 13.2596 48.2838
4.63768 15.6558 50.7728
4.23311 13.0126 46.4503
4.41052 14.8527 51.3501
4.55845 14.8803 49.7028
4.15594 13.6962 48.716
4.23899 13.8806 47.2456
4.22837 13.7347 47.1358
4.0557 13.1217 50.3244
4.75617 15.739 47.1247
3.85965 12.3708 46.7955
4.26986 14.0577 49.3614
4.56027 15.1561 49.9361
4.17825 12.8278 44.2092
3.97936 13.562 48.5954
4.33811 14.2405 49.828
4.38074 13.8267 45.6703
4.03454 13.2559 47.4701
4.14321 13.3032 45.5324
4.00168 14.072 47.2124
3.88984 13.0588 48.9029
4.29883 12.052 42.1039
3.83087 13.4591 48.2509
4.24727 13.4393 47.239
4.26991 14.2697 47.0289
4.02433 13.2115 48.4959
4.18955 13.7876 50.451
4.60364 15.3549 46.8475
3.83513 13.7612 52.4416
4.54871 14.6755 49.3383
4.11679 13.6626 47.2537
3.93614 12.5646 45.2312
3.91625 14.21 49.9657
4.15796 13.517 46.8726
3.97212 13.9024 49.9188
4.07101 13.2571 48.3829
4.15542 13.8205 49.2717
4.08828 13.6856 49.7771
4.19336 13.978 49.3114
4.04886 13.3214 47.3723
4.21451 14.3225 46.0053
3.86643 13.2413 47.8566
3.88471 12.3347 46.5554
4.10269 13.8244 48.802
3.89695 12.6471 47.744
4.13254 14.0119 51.313
4.04044 12.9428 47.2253
4.06939 13.3133 47.9393
4.17535 14.6461 49.2463
4.02369 13.5661 47.187
3.97052 13.1257 46.7835
3.9357 14.2251 51.8091
4.19225 13.0841 48.6181
4.09399 13.654 46.9421
3.98526 14.321 50.877
4.01762 12.7529 46.0714
4.00401 13.4892 47.3914
3.93368 13.3377 48.3985
3.86045 13.2699 50.7373
4.1507 13.6694 48.7362
3.97262 13.1424 50.9997
4.22665 14.4389 59.985
5.29901 17.7484 54.0868
4.36018 13.4393 45.7771
3.75131 13.569 50.472
4.16284 14.9758 50.4583
3.94094 13.5844 48.3302
3.94242 14.1657 49.3928
3.90002 13.119 47.7693
3.83041 12.4045 42.4569
3.54163 13.5508 50.6744
3.99005 12.9107 46.5221
3.67519 12.7362 47.2043
3.79512 13.2678 51.8748
4.25465 13.6735 46.0261
3.70636 13.4206 48.7836
3.78467 12.5073 44.8018
3.66217 12.6596 47.8316
3.78356 13.2903 49.2568
3.86505 12.0041 46.6438
3.94009 13.5189 45.1245
3.66792 12.0147 45.5768
3.70186 13.9264 52.4651
4.01232 13.3792 47.3584
3.87872 13.2427 46.3624
3.5063 11.7101 43.4976
3.66691 12.9135 48.0087
3.93099 13.7702 47.8073
3.61886 12.5527 46.9156
3.71569 12.906 46.9123
3.71787 13.1056 46.7775
3.59354 12.9601 47.7998
3.84284 12.2442 43.7577
3.68368 13.9745 51.4623
3.90611 12.3988 43.2639
3.55893 12.6719 48.1368
3.59781 11.8361 48.4931
3.9665 12.8175 45.5524
3.65574 12.7452 45.7729
3.5536 12.4792 48.7439
3.9228 12.9468 49.7346
3.88462 12.1805 46.0057
3.65604 12.5714 46.8112
3.62865 12.9804 44.1741
3.32081 12.3792 46.8553
3.55581 12.3638 45.4331
3.52863 12.8801 46.8193
3.62711 11.8297 43.458
3.40247 12.259 41.6323
3.0936 11.5183 49.1479
3.80675 13.1674 45.9396
3.43624 12.1513 45.8531
3.5684 13.3728 46.0388
3.53537 12.2289 47.411
3.64274 12.037 43.5194
3.39517 12.3409 45.2088
3.43854 12.2362 46.4971
3.45928 11.9766 44.4263
3.30025 13.2155 51.6442
3.84367 12.5799 48.98
3.72994 13.087 47.9291
3.57826 11.805 45.9455
3.53918 13.0581 46.5127
3.43694 12.5913 46.9973
3.35972 10.9983 43.0436
3.42715 12.6653 46.5568
3.62599 12.739 47.7002
3.61306 11.4922 43.9314
3.47294 12.6709 49.0224
3.6686 12.64 46.6121
3.52707 13.106 49.5923
3.6476 11.847 44.1166
3.44695 12.5859 45.4205
3.52635 13.326 49.2894
3.76851 13.0831 47.4845
3.34687 11.3792 45.8614
3.50571 12.6778 46.3808
3.493 12.6615 50.0528
3.59781 11.6581 44.7513
3.5138 12.7182 44.1409
3.18636 11.6999 45.1416
3.43992 12.2099 44.5877
3.25161 10.8932 42.2395
3.22295 11.5558 44.1862
3.29246 11.9133 50.7306
3.85838 13.0641 44.6771
3.36949 11.7308 45.0615
3.47562 11.9107 40.2402
3.08583 10.8279 39.6365
2.90948 11.886 48.5487
3.55473 13.0783 53.946
4.02178 13.6499 46.6017
3.36237 11.8892 47.6011
3.53481 11.9509 46.2618
3.3621 12.0925 45.3297
3.5071 12.9392 52.0557
3.69944 12.9295 45.97
3.29929 13.5831 64.2744
4.70731 14.0213 44.7634
3.20787 11.9475 44.9798
3.2108 12.3484 46.497
3.29469 11.074 42.7162
3.16728 10.6453 43.2973
3.32804 13.0107 46.066
3.30272 11.6376 48.4049
3.51904 12.446 46.5908
3.41174 12.4432 46.9304
3.35207 11.8224 45.0384
3.23912 11.6354 45.4744
3.35969 12.1471 46.2303
3.36783 11.9746 46.1824
3.30331 12.0638 41.4747
3.03178 11.3448 48.5984
3.59806 13.0634 45.2487
3.26443 11.2203 45.4413
3.37924 12.3644 48.2729
3.47765 11.9745 45.3404
3.2201 12.2756 46.7372
3.49622 11.8726 42.2038
2.93847 11.6434 47.5268
3.3628 12.2418 48.2946
3.56785 12.7542 49.3567
3.52165 12.247 48.0816
3.45727 11.9578 45.4395
3.41354 12.12 49.8026
3.74472 13.0926 49.5987
3.53754 12.0749 45.4982
3.34062 11.6782 42.8126
3.11994 10.6938 42.1933
3.09629 10.9949 46.3286
3.42449 11.8827 44.7991
3.3029 12.6755 45.5453
3.22451 11.1911 48.1574
3.48224 11.5882 41.341
2.95697 11.7414 45.0253
3.33996 12.6097 47.7146
3.34341 11.6415 48.5342
3.45846 12.3139 44.2865
3.20565 12.4688 48.9684
3.39622 12.4886 46.4562
3.14988 10.9973 48.1273
3.47292 11.545 41.5443
2.89249 11.6661 47.4697
3.37559 12.6453 49.0312
3.44372 11.8674 43.8246
3.14199 11.9804 44.9811
3.35561 12.1296 46.6818
3.36699 10.8412 44.4859
3.20269 11.2114 44.0074
3.30152 12.1325 45.3203
3.17505 11.6053 46.0137
3.1805 11.7456 44.4851
3.00399 10.8621 42.6989
3.04851 11.4071 49.6742
3.34721 12.4165 45.0989
3.31165 12.1251 45.4398
3.12459 10.9592 44.0176
3.23574 11.9868 48.7408
3.48456 12.5255 46.4626
3.21996 11.5153 44.9621
3.13359 12.5094 48.4197
3.39396 12.1607 50.7801
3.44804 12.1351 48.5166
3.36022 11.5084 44.4284
3.1759 12.2266 46.0582
3.21263 12.0013 44.0475
3.09244 11.3295 46.8865
3.23509 11.8894 45.9946
3.20501 11.5587 47.3579
3.38157 11.8424 45.1035
3.1839 11.2443 45.291
3.30757 12.5897 50.9679
3.59973 12.2499 45.556
3.24056 11.1125 42.7216
3.04467 11.8971 45.1124
3.15935 11.7963 45.5294
3.08754 11.6116 50.6403
3.56398 12.0972 45.4771
3.02642 11.5633 44.5395
3.15686 11.1475 42.2734
2.96515 11.6142 44.9868
3.06064 10.4369 45.6151
3.2212 11.6339 43.4919
3.03337 11.6908 43.6878
3.13692 10.8694 42.4295
3.02645 11.6202 47.8373
3.26588 11.9004 45.5125
3.19617 11.1393 44.5391
3.08921 10.9506 42.0669
2.89207 11.6197 45.2921
3.12982 10.5736 42.9848
3.0231 12.3591 46.2551
3.14166 11.9015 41.8242
2.91792 12.6897 64.1168
4.27512 12.8999 46.9035
3.25017 13.0333 49.3451
3.24492 12.5491 47.168
3.27764 12.1245 46.0728
3.01355 11.1562 48.293
3.39026 11.9984 44.85
3.06068 12.2388 45.098
3.09903 11.6186 49.2752
3.3979 11.6612 45.6528
3.07463 10.9854 41.3101
2.8813 10.5611 45.8864
3.24439 11.7086 46.8353
3.22795 11.2269 43.3135
3.0018 11.706 45.6079
3.0978 10.4386 44.0914
3.03318 12.2236 45.095
3.06721 11.5563 44.1226
2.98208 10.3859 42.855
3.04643 11.4451 45.4255
3.17508 11.0534 46.4699
3.27564 12.093 44.5752
3.15883 11.6961 46.3229
3.11374 11.614 47.1274
3.27459 11.2426 43.2743
2.97503 11.1246 45.9167
3.12385 11.57 44.2438
3.10668 10.8952 40.9812
2.82387 11.4397 48.4381
3.22479 11.8927 45.1729
3.09123 12.356 52.1018
3.5151 12.5765 46.7183
3.13149 11.8973 49.8818
3.38381 11.62 46.9441
3.12206 12.0343 45.4262
3.07153 11.2827 44.7981
3.10474 10.9335 42.3758
2.94097 10.6135 43.6053
2.98988 11.4988 45.2103
3.03577 11.7149 46.8606
3.18454 12.2954 43.977
3.03191 10.532 43.883
3.08182 10.9751 45.3787
3.08829 11.0022 42.807
3.04623 11.5552 45.5422
3.12156 11.4736 46.1947
3.23901 10.9688 43.1263
2.97703 11.8805 43.7329
2.98263 12.3264 49.2746
3.36059 11.7392 50.7998
3.43762 12.7397 47.276
3.11205 10.906 40.7374
2.78378 11.0967 48.2779
3.39263 12.0464 48.1648
3.27923 12.1078 44.5149
2.99057 11.8197 46.061
3.11332 10.6051 45.626
2.99354 11.43 47.4312
3.18588 11.0697 45.2947
3.20139 13.4293 45.8528
3.10284 10.9641 47.9366
3.2591 11.4845 44.5731
3.02991 11.6506 48.5484
3.37142 12.0393 47.8059
3.20914 12.0005 42.8652
2.98856 10.9296 44.5008
3.13222 11.1969 45.4341
3.10176 11.6581 49.0387
3.27994 11.2537 44.4236
3.09208 11.9165 47.6839
3.19715 10.8431 44.2157
2.9341 11.1754 44.9914
3.0355 12.6409 49.1701
3.22123 11.4233 42.4193
2.85529 11.2524 45.9815
3.10638 11.3174 47.5741
3.18543 12.2767 48.824
3.33365 12.2163 46.3829
3.15965 11.8212 46.4826
3.19949 11.0459 45.2666
3.03202 10.681 44.3018
2.95059 11.0656 44.2623
2.99627 11.9774 44.2883
2.93055 12.3955 49.3216
3.31258 10.952 42.326
2.85786 10.1277 45.0465
2.94807 11.0619 45.8494
2.97408 12.1073 45.9208
3.09807 11.7127 51.0632
3.36824 12.6619 48.9852
3.33139 11.183 44.6062
2.99515 11.6646 42.1625
2.88801 12.1077 47.1663
3.14653 11.296 44.7849
3.0312 11.5027 52.0271
3.51368 13.1692 53.4946
3.52642 14.1544 59.8999
4.08921 0 0