# pn-170911/RbIIR-44-USNO-1280-1959.psd
# Power spectrum* (dif=0,1,2) (really just |FT|^2)
# NOTE: only the first half! (symmetric)
# weeks: 1280-1959
# 11 clock-days, 0 excluded
# PSD: 1441
559.58 0.15334 0.0211027
34137.4 1.13847 0.0173553
86669.2 1.79362 0.0211696
56584 1.75345 0.0157039
40409.9 2.81727 0.0187327
12856.2 1.41604 0.0170576
5109.96 0.583501 0.0161091
5740.46 0.801852 0.0238622
5806.62 0.852054 0.0136731
3122.26 0.878567 0.0267304
2481.09 0.640515 0.0164714
2739.92 0.71369 0.0206441
1451.25 0.537059 0.0209765
2517.48 1.65888 0.0106102
1952.1 1.08117 0.0302609
1519.33 1.0601 0.0131272
1072.85 0.819137 0.0271044
1477.98 1.92622 0.0258635
1010.57 1.28129 0.0146416
1530.67 1.92976 0.0327719
1177.15 1.5909 0.011172
897.884 1.46527 0.027271
1066.19 2.88681 0.0224353
634.465 1.28494 0.0161867
640.369 0.908871 0.0288006
982.576 1.48571 0.0223407
885.312 2.06809 0.0321218
1586.88 4.84195 0.0436449
609.415 2.19544 0.0303679
1439.38 5.3178 0.0412874
585.491 1.61972 0.0184038
718.447 3.34886 0.043089
925.989 4.29544 0.0457335
1561.08 7.12811 0.0543617
495.307 2.65007 0.036825
949.839 5.01244 0.0568957
992.77 6.21937 0.044641
1462.87 9.89463 0.109033
834.142 5.15169 0.0445421
608.34 2.88559 0.0316121
1083.79 7.63271 0.0962398
763.803 6.01925 0.0576511
371.089 2.61087 0.0325961
918.056 8.75987 0.0978462
1929.75 15.3986 0.159099
1553.6 13.3071 0.143167
797.868 8.50085 0.0817706
1192.93 11.8626 0.14082
1169.96 14.1652 0.163699
570.99 6.9037 0.0953041
605.001 5.67128 0.0739601
447.987 6.16521 0.102883
1190.43 13.1098 0.213469
635.354 7.77192 0.101014
1010.68 14.2836 0.245889
696.304 9.87467 0.157787
928.227 14.0383 0.240113
365.319 5.63981 0.103934
178.465 2.52224 0.0496422
229.021 3.6588 0.0541733
385.465 5.16699 0.0903658
866.576 16.382 0.363297
1088.15 19.0088 0.334487
420.15 9.86113 0.214827
637.091 12.4177 0.302985
1297.22 23.1457 0.512021
734.774 13.5792 0.311673
567.963 11.6628 0.260875
905.168 21.6663 0.525338
637.087 11.8145 0.235114
884.337 18.8297 0.482551
447.187 8.40615 0.218414
505.783 10.4382 0.262009
492.688 12.5661 0.327219
389.293 11.1764 0.305758
245.059 5.67716 0.160224
474.001 12.3965 0.374341
1003.51 28.6717 0.877888
555.832 12.052 0.378032
557.926 16.2827 0.497013
242.11 5.54674 0.191824
423.057 12.4421 0.385171
692.617 19.7555 0.582198
236.149 6.85585 0.230485
266.703 10.3883 0.355541
442.5 13.9309 0.527699
498.907 16.327 0.5471
730.238 25.8537 0.976693
357.84 14.0738 0.548793
602.455 21.8652 0.911734
478.078 17.4919 0.652067
387.129 15.7938 0.661332
481.505 17.6169 0.74495
303.499 12.8281 0.553613
391.914 16.4723 0.71688
472.945 19.624 0.880728
359.171 13.1223 0.481796
257.588 12.8529 0.6426
213.579 9.19522 0.475184
219.253 11.8122 0.573184
309.847 13.9911 0.709968
315.28 13.3286 0.675286
237.173 9.30268 0.460417
293.842 15.2618 0.764495
159.88 7.31132 0.364617
235.197 10.422 0.542705
188.157 8.27843 0.459969
321.024 17.0314 0.988844
293.503 15.3922 0.865165
383.661 19.2999 0.986281
106.124 5.6176 0.372174
327.757 17.0955 1.03325
268.952 13.9785 0.83975
352.789 20.852 1.26602
250.66 15.8905 0.921863
322.771 19.3303 1.22376
204.766 13.5594 0.873684
291.058 17.3475 1.0217
301.864 16.8215 1.08661
147.356 10.108 0.699033
194.184 14.1427 1.05413
324.285 21.6639 1.50083
184.561 12.2747 0.959775
261.645 17.5019 1.27065
118.527 7.75027 0.595866
210.853 14.6218 1.14112
282.857 20.8669 1.65476
397.083 28.1894 1.97133
145.396 10.1776 0.824154
98.3626 6.97854 0.604758
143.881 12.2031 1.00203
333.497 27.0294 2.1733
194.156 12.4854 1.03488
79.0301 7.23449 0.537321
148.408 12.631 1.11113
89.439 8.62525 0.799255
146.954 9.8469 0.782199
155.373 11.0875 1.03519
152.834 13.3823 1.09251
142.272 13.3952 1.24533
151.023 11.6608 1.15153
110.408 10.5613 1.01742
146.889 13.6826 1.3965
126.758 9.82372 1.0025
135.986 11.3751 0.993477
71.1173 5.03997 0.587636
148.09 14.6249 1.60946
211.996 21.6672 2.49434
153.283 12.7641 1.1428
190.056 21.1527 2.19575
207.594 19.1104 2.05449
109.678 11.0007 1.17239
139.937 13.8919 1.5637
153.009 19.5642 2.20861
121.058 13.6966 1.61273
258.952 24.4741 2.74191
145.572 17.0885 2.14363
150.01 15.7586 1.71286
145.527 15.2185 1.79875
196.496 20.5016 2.45963
158.965 20.1747 2.47058
171.258 21.0408 2.7502
177.335 20.168 2.53217
67.5458 8.71888 1.18566
155.501 19.9842 2.52219
119.284 15.2784 1.91841
140.574 19.0055 2.70959
134.824 18.3624 2.90488
249.142 32.6698 4.21119
97.0197 12.4163 1.61104
94.6169 14.1531 2.04686
121.44 16.4662 2.2407
97.6813 13.1554 1.85006
140.446 16.9097 2.21916
116.456 13.2018 1.75368
93.1344 12.9767 1.89199
74.0804 10.2893 1.6237
148.167 19.4628 2.79372
83.8692 12.3773 1.77038
153.781 22.8793 3.21845
109.89 15.2973 2.29802
89.1183 12.1319 1.83577
93.4326 14.6305 2.33515
151.481 21.8144 3.52508
161.673 22.7528 3.72938
79.045 11.8582 1.95346
103.109 16.6604 2.86331
85.9139 16.7817 2.96194
81.3135 11.4461 2.16096
88.1977 11.5138 1.72355
128.668 22.765 3.8734
72.2265 12.5312 2.41577
202.381 34.3217 5.88561
44.2378 6.02042 1.11053
87.8623 13.8673 2.74447
101.161 16.4856 2.82221
64.837 12.3252 2.14989
126.224 23.6427 4.41016
106.679 16.3808 2.69127
88.8634 15.7567 2.88873
55.0051 10.1293 1.78521
83.6773 15.6074 3.19843
136.429 24.2354 4.32795
150.916 26.7909 5.35827
86.2355 16.072 3.20492
110.542 20.7289 3.91634
73.0916 13.1134 2.81172
64.8638 11.0899 2.04724
122.828 26.903 5.55542
105.024 22.9085 4.64881
80.5933 15.4376 3.22574
122.935 24.6881 5.07536
56.8101 13.338 3.03582
84.4195 18.5574 4.08284
88.795 19.0815 4.06626
77.5374 16.1308 3.52333
69.0516 13.6244 3.23844
67.9134 14.9951 3.40968
92.3417 17.4783 3.50219
67.4947 14.0673 3.4967
111.789 22.7821 4.89628
79.4011 17.0354 4.37365
82.9071 17.8245 4.07712
101.706 24.4094 5.91302
56.6516 12.8547 3.05242
104.986 22.7939 5.60568
66.9087 15.0695 3.68322
82.4697 20.4466 4.99313
69.6552 14.9989 3.64786
86.0341 21.7705 5.20755
112.527 25.4695 6.33546
79.1822 22.0522 5.32323
44.413 11.9059 3.1359
90.3544 20.5174 4.86456
87.6754 20.7586 5.28048
110.594 29.5854 8.05995
94.2924 19.089 4.53503
111.953 23.8278 6.04164
70.6835 16.4442 4.09675
85.1606 20.0348 5.95641
46.1976 12.9016 3.88241
83.2951 21.7383 5.55148
81.2797 19.0941 5.28026
68.7598 20.3833 5.87029
71.3873 17.4453 5.00657
72.6611 21.8535 5.92633
63.9598 16.0007 4.46224
71.6194 19.2648 5.83392
77.6219 21.1126 5.66085
133.32 36.3996 10.7697
58.5534 16.7901 5.2871
64.3072 17.9211 5.73644
77.0169 22.4053 6.59959
89.4848 26.3496 7.34946
59.9666 17.0699 4.94853
32.7563 9.83036 3.113
67.598 19.5342 6.23398
53.0577 18.8134 6.13587
46.0896 13.2347 3.76693
40.0901 13.1675 4.32817
76.7004 20.0978 6.13279
75.8671 22.9097 6.93761
69.3041 20.9326 7.21851
54.7015 21.9644 8.1318
93.0188 25.4783 7.67998
65.4423 20.2027 6.63091
72.7031 25.0215 7.9427
34.9082 10.5287 3.41563
55.7032 20.5032 6.92395
74.2016 20.993 6.7165
62.518 18.9114 5.98744
56.2891 19.3272 7.03108
56.7314 19.8811 7.01373
67.7902 18.2897 5.39391
120.469 42.8112 14.9529
38.7792 14.7976 6.5901
52.2282 17.6771 5.52084
66.5033 25.2299 10.0585
73.9998 24.49 8.91357
43.7396 14.7558 4.7291
91.7638 31.5697 10.9305
75.0838 24.0607 8.12037
80.7022 28.4605 10.6154
60.4462 19.9967 7.37585
72.5693 30.1553 11.7684
71.21 25.039 9.97773
48.3869 17.4251 6.51983
49.6082 18.6525 7.55141
135.598 51.9227 18.398
42.5264 16.6452 7.19136
34.1087 11.8808 4.63266
52.9997 17.5432 7.23424
26.205 8.68285 3.51124
87.6814 38.4699 16.3405
78.0804 27.0599 9.54982
81.0829 27.723 10.5721
61.8222 25.9114 10.4616
41.1352 16.4547 7.52276
45.0067 17.3281 6.75706
59.8871 23.4659 9.72361
100.453 39.0201 15.865
68.5664 28.2154 11.7995
64.1201 26.1014 10.2037
56.6745 29.7425 14.881
68.3416 26.5796 11.1744
67.7067 27.4763 12.1895
54.4889 22.998 9.05326
31.8592 15.2093 7.0018
59.275 21.3723 8.27214
34.3134 15.5308 8.35187
72.0726 32.4805 14.4874
44.4946 17.7835 7.11762
44.9633 19.1223 7.80637
35.9536 19.2505 9.40204
50.8881 20.9515 8.91753
44.5679 17.8099 7.87055
72.8672 29.3836 13.5419
42.5881 20.3415 9.55178
64.2487 24.6636 9.95203
35.4869 17.3227 7.81158
42.3439 21.8273 10.9045
28.1707 11.4361 4.88929
47.6217 22.9021 12.361
47.918 20.7088 9.12575
38.7864 22.8201 11.8301
44.8176 20.8176 9.2446
60.5152 31.4772 15.2332
26.7722 15.3773 9.0967
34.8323 14.7052 6.88573
30.6538 11.0769 4.81626
36.7195 17.8367 9.10401
30.4128 14.2451 9.20771
97.4503 47.0428 21.089
29.5381 10.5845 4.81524
63.1479 34.1332 17.1148
58.9021 29.768 15.4598
47.382 22.8724 10.6366
31.3919 17.0503 9.35125
22.4502 9.54983 5.75512
38.5728 18.9721 9.64172
53.4983 28.5122 15.0963
34.5618 18.6598 8.67709
29.3824 17.5409 11.15
37.4832 17.3724 9.51229
34.2017 15.5958 7.62911
36.7082 20.6868 12.1359
48.6938 22.6129 10.1152
33.6007 16.6881 8.54852
30.2679 18.5089 11.5488
38.6572 20.5937 11.3742
23.0403 14.4667 8.6297
35.7744 16.5699 8.94755
31.1768 15.8203 8.17954
29.6524 14.9977 7.2216
18.9111 11.6099 6.19019
42.9759 26.3499 14.8516
39.6107 24.1085 16.6867
55.077 25.322 12.7532
49.9747 29.5364 17.0154
22.598 13.2516 10.334
49.9472 28.6283 16.4051
20.9424 11.0963 7.22147
33.0638 19.9259 13.2672
47.2277 22.5416 11.2318
28.0113 13.226 7.43986
34.8184 20.3655 13.6893
47.4942 24.614 14.0496
44.7329 24.7354 13.5702
33.9556 22.3039 14.7482
38.9658 22.1975 12.8787
45.8556 27.2656 15.352
30.9031 19.497 11.6751
47.4906 33.0859 20.7755
25.9076 13.8768 9.91649
32.1541 20.6569 12.497
32.6547 17.1554 9.61287
24.9386 15.7295 10.6194
26.5075 16.5579 10.6381
22.0434 10.7764 6.88106
23.3618 15.0877 10.3192
39.7523 22.7357 15.0534
40.5886 27.0739 17.1139
28.7417 21.2607 14.0454
36.2477 26.5334 20.1035
72.5813 49.4207 30.5147
22.0437 11.4875 7.74875
35.1106 23.4661 15.587
24.496 17.5891 15.3479
25.3255 15.1161 10.5592
40.1407 22.1593 13.3197
36.989 24.4929 17.0447
42.4791 27.2293 18.1659
26.4782 18.4469 10.9363
17.3391 12.9706 10.4397
30.9926 20.0082 12.8357
41.9422 31.094 21.0293
40.1827 32.4211 24.0028
26.9315 16.7499 11.5341
26.721 17.4338 13.7711
38.1352 23.0892 14.8488
22.4312 19.1662 14.4229
21.7073 17.2454 13.4894
35.9918 29.5241 22.637
37.6589 22.7995 14.4056
40.6157 29.2711 19.994
29.779 20.9817 14.5945
29.8414 26.0235 23.0189
30.7056 17.0495 9.65798
22.1043 13.9271 8.74387
24.2445 22.1412 18.2902
37.6411 28.1592 20.8011
29.1063 20.6714 16.2562
33.8664 23.0142 17.3778
28.0459 20.4372 14.6049
22.8404 17.2255 12.2078
25.5873 22.4053 19.0815
45.2966 33.5292 22.6028
23.9392 20.9469 16.1422
17.8112 17.146 16.8045
43.5452 30.2372 21.3492
35.1083 27.6351 22.8192
32.8365 22.7579 18.8582
25.7636 19.3186 14.3965
33.5199 23.5395 15.9455
23.2489 17.8713 14.1351
26.5662 21.8728 18.1382
21.3949 18.9021 16.2846
27.9439 18.9135 14.6955
26.5125 26.4965 24.9212
34.7591 27.1295 19.544
21.2387 18.2574 15.1846
26.8064 22.0889 17.9025
21.4722 15.0545 12.9847
37.5019 34.9058 30.3933
24.8015 17.4046 13.7019
25.8064 20.7101 18.4669
30.5211 22.9161 17.5978
25.6686 19.4461 14.4519
22.406 18.7507 15.5923
34.3282 29.921 27.7875
20.3 15.3495 14.1743
21.7272 17.1821 16.267
22.9222 20.4237 16.4487
23.0704 19.4077 16.0848
39.3047 35.4794 27.4254
21.304 21.4565 19.9065
24.2284 16.5223 13.2873
25.349 21.7851 21.2267
32.6608 31.2162 29.4866
41.1735 33.9973 27.182
28.6937 25.6529 19.8608
17.9721 20.9343 23.5712
40.093 30.5704 23.5025
30.889 28.3153 26.3972
23.1682 21.352 18.3298
14.9145 13.3657 11.9683
24.5888 26.7577 25.3355
27.3341 22.9093 22.7823
31.2913 22.1115 16.3192
13.0112 15.8857 19.0393
27.2163 22.5302 17.2452
31.3954 32.138 30.8416
26.7299 21.1597 20.8089
23.0227 18.4306 15.1085
24.0926 29.2496 31.5912
24.6453 20.8092 17.4554
15.7221 11.5036 10.2134
21.9997 24.7884 24.3198
9.20582 8.35336 9.50523
19.4597 17.4121 16.8353
23.4055 21.9975 21.4105
24.908 26.5241 26.3565
17.0295 13.264 11.3456
21.9078 21.4816 22.572
17.9492 13.5285 11.0409
12.1898 14.3351 16.1359
25.3188 21.9899 20.8612
13.5039 13.0814 14.7491
24.218 21.1735 18.9356
20.9813 19.398 20.3842
37.2766 34.4084 29.6367
15.1454 17.7328 21.2775
22.7759 17.9912 17.0339
21.541 25.8356 30.5973
32.5366 26.8779 24.9023
16.6957 19.0656 22.6619
19.344 20.4264 20.0097
16.7632 17.0805 19.3488
20.8879 19.426 18.6221
11.9695 10.8474 11.3428
18.4054 16.5327 17.5461
23.9627 30.0978 35.2846
36.3446 33.2795 32.1979
17.7162 14.1951 14.2384
22.415 20.4096 19.8509
19.4598 20.7251 22.0255
12.9245 8.71821 9.66482
32.7189 36.7904 37.78
12.2097 14.6025 18.2876
13.9773 13.4223 16.0905
28.7557 25.9677 25.4359
17.8957 19.7122 23.2904
20.4155 17.927 15.9168
21.5503 24.2684 21.8875
19.1123 20.766 21.7629
14.546 16.4701 20.0154
10.4346 8.61173 9.8804
17.8264 17.6954 18.678
16.6119 18.6322 19.0143
23.7598 28.5517 33.1425
14.4147 15.1964 17.6294
11.8371 17.9037 26.316
15.3479 14.5026 18.6831
26.6421 27.8193 30.5104
25.5289 29.1944 30.734
23.5303 27.9125 27.657
24.6217 26.688 27.2013
18.0001 22.3979 25.0553
11.7834 14.9549 17.9012
20.2008 24.4178 30.8791
27.2281 26.3309 27.8271
19.2401 20.8767 18.5359
10.2786 13.2354 15.8298
21.9938 25.9814 30.8787
15.1192 13.8329 13.5059
12.0794 15.1631 17.8624
22.9864 30.4592 37.5893
25.4604 30.6222 34.4512
11.9837 13.7997 15.6486
9.83678 17.1159 25.8898
18.8828 23.829 30.7922
18.5151 19.8953 21.8926
21.4421 26.7214 33.9892
17.9266 19.4493 27.5028
31.336 31.8543 31.795
14.1745 13.8388 16.3581
11.2973 16.4236 20.479
17.4448 24.1399 30.1449
18.9655 19.9458 22.2254
11.722 11.8778 15.2755
21.947 25.479 31.5244
22.0808 27.5848 36.3378
12.9109 14.6043 24.3411
25.9268 28.1062 26.306
11.6266 16.4261 21.9564
19.8641 24.8677 31.2773
13.9735 13.085 17.7489
14.1191 20.515 28.4677
25.3617 30.7293 37.2395
32.0497 39.5733 49.6004
17.9665 16.9247 19.8868
21.1906 25.8739 32.2625
22.5024 31.9348 42.8798
21.1425 23.0549 31.4385
22.4132 24.9335 29.2992
15.0511 18.7724 26.8523
23.0154 34.7016 44.1276
11.1139 12.4103 17.7513
9.40578 13.4029 22.784
17.5609 23.2782 27.582
13.0021 17.1123 26.7617
19.8854 22.7778 26.6475
18.6775 24.9809 32.8316
13.6484 21.1709 32.7202
17.7205 19.8109 25.0381
17.8174 26.708 38.2071
16.7538 20.6806 24.0095
15.2742 17.1292 22.4831
13.8973 16.4171 21.5104
14.5845 19.9408 27.1671
16.2099 24.1678 32.0151
8.80364 9.74452 14.5076
10.971 14.4387 19.3813
10.9962 18.1077 29.9481
18.0306 22.6534 29.2347
16.7944 25.8317 46.9888
46.1637 57.5595 66.024
11.1332 12.939 20.9542
16.1467 18.8878 20.3791
11.4518 14.6259 19.955
10.863 14.9731 21.0286
14.6976 20.1048 26.7869
14.6844 27.8566 43.8022
11.9718 12.6562 18.6401
8.2906 11.9084 17.7859
10.8983 17.5016 25.2279
14.2359 18.8629 24.2676
8.69716 13.3046 20.9806
11.0211 16.262 29.317
20.0875 24.8947 36.0517
12.7692 13.4149 20.9933
21.3188 25.4116 26.4057
6.74668 12.3008 19.5375
21.4903 34.879 44.6973
8.58815 8.81439 13.6873
13.2243 22.0421 35.1004
15.7335 19.3194 27.2608
14.7248 25.5508 35.4477
14.4131 22.1622 39.4768
21.065 23.6829 25.2684
9.47311 16.6042 25.758
12.3244 20.4927 33.3617
17.5282 21.8893 26.4872
10.9412 16.5477 23.7668
9.64439 16.3114 25.2379
7.71764 15.4895 32.6093
15.602 16.5228 19.1566
12.9862 18.7228 23.1989
4.63488 10.7813 23.5264
10.8312 16.3772 30.6151
15.3649 18.016 25.8599
10.5919 16.2992 25.0648
8.64658 12.1191 17.2147
8.46527 14.5742 29.0861
13.2507 16.7477 25.0947
11.7746 17.7647 28.6471
13.5303 16.6217 15.6834
10.3187 22.1083 38.8122
13.9966 22.0891 33.8636
18.9627 36.0669 60.5309
13.5158 20.3257 37.8988
19.5772 25.3704 33.1754
8.77228 14.5092 28.2775
16.017 18.68 24.6445
12.5683 18.0808 22.4533
6.26117 12.489 31.026
18.7218 31.9348 47.3033
20.3962 32.4025 44.2048
9.33729 14.1627 30.7557
17.5293 30.2933 46.938
9.82335 12.1323 18.8784
5.63512 11.4755 30.7696
16.1444 17.7766 28.0251
25.0082 39.2805 57.9135
14.4835 20.6638 33.2523
13.1449 20.4476 33.0526
14.6676 22.9486 31.9604
6.30461 11.4304 23.9019
10.3137 18.6304 31.71
13.1995 19.205 35.1004
12.7567 21.5291 42.5511
11.2754 13.1184 17.5628
18.0526 28.9246 40.572
15.2229 27.9521 48.1757
12.22 20.9072 36.8921
7.99965 10.0763 21.2902
10.5065 16.7059 28.9549
16.8187 28.1785 43.0605
11.8495 16.9854 25.1916
10.4731 15.2455 24.8397
15.8034 26.3373 46.4119
15.4606 21.9063 28.4675
6.78481 14.3359 33.172
15.0428 20.3556 28.8841
15.2851 28.2941 44.1123
15.7372 30.2068 54.3647
11.1691 15.3691 23.1391
9.22696 13.5712 25.2039
20.149 31.3741 38.3406
9.32217 24.1172 47.9406
8.41402 14.8509 31.4895
13.8554 29.5063 57.0797
15.8653 22.8721 31.2899
8.43656 14.5623 33.0084
9.21093 12.7026 24.9137
14.3256 20.6718 28.8238
9.95432 18.5818 31.7159
13.6248 22.8222 30.6349
6.27772 14.1584 29.9421
9.29433 21.3686 43.2025
11.9293 25.5801 51.3406
11.1624 14.7282 39.1026
27.69 44.5058 56.9686
9.11116 20.0119 37.7934
6.14129 13.0037 31.6336
12.2915 16.3461 25.4716
10.2789 18.2772 37.4859
11.2226 16.5089 21.9536
7.32277 15.6684 30.4352
11.72 18.5617 38.3938
8.28769 13.8549 24.8192
13.9588 21.968 35.1053
8.31047 13.4464 25.1086
8.43874 15.1458 31.7666
10.7365 13.049 14.8991
5.35969 12.5164 30.8136
14.2498 27.6484 48.3212
8.39293 12.1041 19.2496
7.2004 15.5299 42.36
13.4946 24.6614 51.3557
17.3345 29.2728 43.2212
8.18697 14.6033 28.3761
7.8103 12.4419 25.4547
8.96034 14.127 23.7077
10.8923 22.6104 41.5272
12.1104 23.8058 43.2921
8.55293 15.648 30.0569
9.41499 16.1922 25.7598
8.60073 21.124 43.1734
12.2314 25.1188 46.1569
8.4031 19.7389 42.2891
8.97141 16.124 34.8433
10.0262 15.771 30.2697
10.1867 18.241 25.2887
5.77899 13.3724 30.2369
7.98833 16.4033 31.2887
7.58628 16.229 36.2896
12.4137 18.759 31.7916
9.53059 20.1539 38.3129
15.6234 27.6083 44.7869
7.0546 17.4023 41.7061
11.5644 23.3232 48.885
10.8696 16.3908 32.6402
11.9263 22.4271 40.3176
12.9426 24.4316 44.1414
13.7655 29.3954 51.0786
7.1083 14.373 26.0651
7.54285 21.0949 45.0899
7.42134 14.7645 33.3356
7.92985 16.4613 52.3966
21.5783 40.2612 65.1825
8.65149 15.1174 27.962
5.48127 13.4232 34.1161
8.04399 13.3289 22.9971
7.85327 21.876 52.3371
11.3242 15.4924 25.9521
7.63406 15.9156 23.701
7.33574 16.0765 38.4298
11.3528 24.9974 51.5951
8.06236 15.5843 41.0474
11.6141 18.4764 25.263
5.3514 15.4742 35.4596
12.3768 20.1291 29.9531
5.54464 16.396 41.7038
8.64944 24.4718 55.1231
12.9514 25.7038 59.202
11.3358 16.308 31.4252
7.81606 15.682 34.7192
5.33763 9.28281 27.2113
9.67821 16.4472 29.1178
9.43511 18.8575 29.2148
8.47541 20.1421 42.2067
7.58864 17.6776 38.1856
6.35762 12.6562 34.5774
11.5999 26.8135 46.3084
6.76662 10.8679 34.1789
11.7731 25.7349 49.3821
9.08024 21.8228 49.2607
11.2311 17.5006 38.366
7.42374 13.2151 25.0498
6.92963 17.7235 41.5451
7.82876 16.1925 37.1291
8.73369 16.475 36.3653
6.46984 12.6837 26.3791
9.55282 23.2367 44.2218
6.86524 17.0158 42.9583
6.24328 7.82266 17.7274
5.5366 10.5456 26.0299
8.59242 18.5552 35.5762
6.80592 14.5649 32.9722
5.59355 8.00671 22.7168
11.3403 23.9691 42.6533
6.91624 16.438 46.3798
11.1031 19.5084 29.4671
4.59251 8.5402 18.768
6.82025 14.0453 33.0389
8.72826 23.7515 59.0695
10.7719 27.6679 82.1296
23.5342 38.9373 49.9255
4.41223 11.3013 25.8585
6.66529 13.4401 35.3932
8.29696 20.3086 36.5144
10.4263 25.3529 48.3464
4.64972 13.1982 37.2899
5.79106 13.3147 35.0115
8.94053 18.6826 40.7218
7.78426 14.3229 26.6367
4.79937 11.1905 34.3802
8.02382 16.5295 32.6167
6.08663 16.8012 46.674
9.09271 13.8898 37.5214
9.94962 15.9987 27.162
11.9658 30.3558 52.2482
4.92579 12.2971 31.7038
4.90673 7.6879 19.1805
6.42798 15.9432 28.5408
5.92424 18.1092 50.4462
8.76821 14.9968 38.1251
11.6897 20.6476 41.2841
8.80093 19.8371 35.0142
4.84228 12.4228 34.7636
6.32146 20.6775 63.8233
10.55 17.1175 32.4245
5.74512 11.0393 19.7322
3.57317 12.7044 39.0657
9.18948 16.6568 33.4723
4.86302 14.1357 41.1451
8.10257 15.3244 43.5508
11.5326 24.4334 49.8982
8.71069 18.5517 38.3641
5.37681 12.5633 33.6278
6.34082 15.3786 37.6998
6.3616 10.9622 22.7398
5.03744 9.17694 21.5369
8.76256 23.9865 54.7738
7.81452 19.8506 56.4745
10.1299 21.7095 43.6954
8.85615 19.3229 41.0709
5.421 11.6048 32.7759
7.99022 17.8667 38.2813
6.80991 16.4417 36.451
4.8652 10.7067 28.7159
5.82534 14.5254 34.1898
4.10233 10.2029 33.1737
5.34767 12.6428 32.3869
5.89681 12.8554 35.5142
5.95461 13.2113 31.1662
6.26204 14.2198 28.2275
5.19594 11.9046 28.4835
5.16964 11.8598 33.2994
6.6186 13.3057 23.1207
5.36347 18.8633 49.3438
7.05648 12.5831 27.4917
6.59504 19.8236 52.5346
6.73297 14.3622 40.2987
10.6814 26.3105 45.3548
3.51893 9.34211 23.7006
4.60439 12.9922 37.1503
6.12901 19.1831 58.3146
9.03412 12.806 20.6964
4.00126 9.07806 29.3826
7.26924 23.7564 44.2498
3.91002 12.5227 39.9188
7.3513 21.807 66.9711
10.4976 14.7858 31.6828
6.58663 13.8081 36.3441
7.17765 13.6966 26.0392
4.9764 12.7033 28.7093
4.63468 13.8886 38.4787
5.43106 13.0119 42.3915
7.7597 12.9907 26.4108
4.33207 11.1945 31.3699
5.26313 11.5061 27.8907
6.70715 12.9021 28.0116
4.32972 11.8599 35.6072
7.11837 15.0027 32.1094
5.91765 16.2414 39.4459
6.99594 18.8231 44.1756
3.28633 8.31794 42.4633
7.19552 12.936 35.0654
6.09395 11.1545 26.42
6.9808 17.0368 41.413
6.33725 10.9936 33.1565
8.63611 21.1853 43.0766
7.42401 17.6496 41.1963
7.06349 15.8361 36.0688
5.98232 12.4025 26.7469
5.07845 13.8923 36.3071
4.714 11.7772 28.9995
3.1137 8.67031 30.6335
6.82342 15.4091 32.761
5.3681 16.2075 47.8518
5.61173 14.2475 35.8906
4.07241 15.9792 73.4902
17.215 38.8176 66.7995
4.21189 9.72835 36.0376
8.83266 22.9403 55.1501
7.04951 17.198 34.1738
3.84067 10.345 29.7871
3.39542 8.55531 28.2334
4.68242 16.6136 58.7521
7.18431 9.35813 19.0365
4.31382 10.6519 19.9608
5.20201 15.9045 39.8475
6.28218 22.2814 51.9682
5.93517 18.3141 51.5647
5.46045 18.6536 67.9495
10.3036 19.8319 61.6306
9.04554 13.2329 15.8061
5.75355 18.2543 32.6441
3.09822 11.9045 38.6998
3.51212 11.4196 38.0994
4.46441 10.7383 38.246
6.144 16.6029 37.7043
4.14671 7.91941 24.7404
4.60963 10.879 25.5486
5.75466 17.542 35.749
5.02306 16.1394 43.1046
3.18578 8.58525 33.5019
4.47761 12.4404 36.9044
4.22132 11.0319 33.8479
6.08155 16.826 50.6646
5.8757 14.2313 46.5116
7.11691 15.3373 36.1736
4.7032 9.22428 32.3814
7.20964 15.7749 32.8085
5.15444 20.2853 53.0253
4.9583 12.414 41.7502
7.22566 11.0657 16.6669
4.11368 15.672 46.5251
7.98098 16.2273 44.1134
6.92952 18.5136 50.8535
8.97947 27.0692 64.8121
6.45088 19.6201 48.8023
5.31682 14.5435 39.0943
4.06871 18.5647 57.6208
5.14172 9.85534 28.1127
3.72403 10.2104 24.8231
3.67177 8.97916 24.7406
2.00313 4.59732 21.5109
5.27333 13.1962 27.7439
2.46596 9.38626 38.6255
4.28152 12.1175 28.8295
3.07795 8.84657 41.0169
5.46464 11.0242 16.446
3.24154 14.7742 38.0013
4.7429 14.0512 52.7359
8.28686 16.3734 33.7441
4.01379 15.0215 44.5904
4.76955 14.7444 56.9818
7.6532 17.6029 39.1257
5.17937 16.9428 55.3598
7.26867 19.2914 61.845
5.57763 9.49198 27.3353
6.09398 18.2155 43.3661
3.9945 10.6931 27.9241
5.2327 18.5039 53.0296
3.5489 5.92203 22.5257
3.65365 7.78039 31.9129
6.71124 22.9565 66.9991
5.58016 16.0747 51.1982
6.80932 18.3315 50.4886
6.55093 15.1004 40.6815
5.14169 17.6307 51.4974
6.48549 19.6608 49.499
5.99709 14.1577 39.7015
5.19032 19.4939 56.1451
6.20853 19.5707 61.3896
5.09196 9.33352 32.3454
3.91502 9.70877 19.2637
2.95763 11.8224 46.5427
5.12602 8.97856 40.1416
6.83449 18.4587 38.1325
4.15029 7.32793 17.739
2.90488 10.4167 41.0299
5.97402 14.9619 39.8607
5.35507 13.517 26.952
2.93448 11.8009 39.2071
4.10259 8.04742 27.9771
3.06189 10.4566 45.5152
6.27097 13.7396 24.2446
4.28672 14.2619 43.5417
6.49478 19.0809 49.7395
3.58422 6.47158 23.5706
3.89913 16.812 60.3733
5.61363 9.54546 39.9036
5.84231 14.676 33.0752
4.73841 16.3712 39.4121
2.97246 11.6897 49.2876
5.25784 15.1899 86.3642
14.1736 35.8506 50.2452
3.26197 10.9562 41.9501
4.91682 16.0951 45.271
5.66823 12.1466 21.2733
3.31484 14.3951 35.8685
3.89012 20.019 62.5521
4.74139 12.0694 44.2082
4.3132 10.528 38.8931
5.67586 16.1288 52.4599
5.54393 9.79285 19.9481
2.21055 7.75202 29.1402
3.63487 14.7321 44.3891
3.52055 6.73081 27.8946
4.36534 11.1601 32.2298
3.97686 9.17638 23.3077
4.19331 22.4811 68.5316
6.87915 27.1136 92.7624
8.06675 16.2989 43.4766
4.60253 15.1967 50.9537
6.93471 17.5923 39.2131
3.55054 12.941 53.4477
5.00175 12.8401 42.1478
5.51092 12.4744 29.2171
2.92707 11.5679 30.5166
2.955 12.7182 40.2808
3.90891 7.96032 29.7261
4.21998 14.3503 45.3881
5.35012 14.0862 29.234
1.96068 7.35712 24.1367
3.35519 13.373 41.8436
3.73245 11.6355 35.9741
4.58123 11.6424 38.4341
3.93221 14.9766 61.489
6.07168 22.5833 85.9949
8.73581 16.0967 41.3168
3.91782 9.48762 25.2905
3.95458 14.7947 42.3189
3.75619 10.0342 36.2216
3.81448 6.24032 19.382
3.28584 9.95825 37.024
4.68058 11.0748 26.2125
3.01281 10.0552 39.4935
4.7146 14.6394 46.6031
6.14151 14.5053 25.1461
2.58449 15.6939 49.5016
5.35956 15.5896 42.2166
4.44271 13.6658 44.1489
3.95358 15.0052 71.893
7.95729 19.4836 42.7532
4.709 18.6841 71.7255
7.17022 15.8158 33.063
2.56431 9.67042 34.577
3.69563 13.0377 50.3846
5.66681 15.999 35.1892
3.08261 9.01527 22.9374
1.56123 7.10519 46.3883
4.94949 10.9327 24.679
2.68053 9.26992 25.1358
3.47007 13.652 47.9364
5.11539 13.3074 31.1225
2.33924 12.1899 48.5958
5.78899 17.7225 49.7912
5.64922 22.0936 60.5755
3.99752 8.54195 46.4259
4.67281 9.5874 26.945
2.62793 10.5326 36.5245
4.67318 16.1464 49.1904
4.07575 7.8551 23.3303
3.47836 12.9317 29.0247
2.9358 9.17482 33.1905
3.39368 10.2063 42.9872
4.1261 12.8143 31.4895
3.76002 15.7354 45.7478
3.80182 10.454 24.6446
2.24039 12.3451 58.2413
5.56446 16.2615 49.8937
3.90649 7.12151 18.721
3.07627 14.6765 65.2626
5.13628 14.1233 36.7259
3.91923 9.14838 37.8891
3.4076 10.6685 29.6921
2.29849 8.45181 37.3614
3.97728 15.0966 61.0557
5.81255 12.3594 30.5102
4.99124 26.848 69.3775
3.92857 10.6098 34.9371
3.08108 6.7449 29.3231
3.3189 10.1284 34.1664
3.37688 10.6943 40.294
3.37351 5.86427 23.798
3.5912 17.3641 56.2918
5.51522 13.6276 58.7453
6.56869 21.5682 55.5122
3.85243 11.3614 40.9097
2.48569 9.81082 56.1538
5.79536 16.158 103.75
12.8952 37.3639 54.4328
2.66295 9.73647 43.0593
4.28044 8.01033 19.2388
2.15242 9.59094 38.0605
3.57379 12.4199 38.9399
3.31649 9.87256 31.6947
3.09076 10.7575 37.774
4.25385 11.9202 29.8776
2.98357 13.6374 44.3544
3.6949 10.5522 44.8705
4.48325 11.1073 27.2477
2.41925 8.70736 23.275
2.31396 6.33182 32.7641
2.79642 7.50831 19.6801
2.86492 11.008 33.0715
3.02964 12.4769 44.0574
4.84415 18.9907 70.4636
5.75132 13.0419 47.364
4.07281 11.4098 21.6971
2.02354 11.4635 33.5139
2.32004 14.4151 53.7137
4.48655 12.4669 49.6455
4.88822 10.6633 29.4417
2.28106 7.63157 31.1701
3.06994 7.85008 35.4467
4.30105 11.1299 39.1602
4.3294 12.9232 29.6049
2.88569 14.577 49.5484
2.44581 3.457 33.3019
5.10597 11.5593 26.7723
3.10879 9.55408 33.0374
3.42585 16.0199 58.9041
4.83582 12.9507 41.6742
2.84189 9.22108 30.5291
2.81145 7.02755 35.4836
3.38308 14.1341 40.88
2.67077 9.81063 52.0207
4.71371 13.2591 34.3505
3.244 6.21088 12.2394
1.46842 5.42879 32.3915
3.83381 11.0436 31.6059
2.71156 11.7072 41.5881
3.69549 12.4061 43.8283
3.32459 9.20308 52.7221
6.61536 20.8991 49.6867
3.72923 11.4453 20.1268
1.72452 7.5945 25.1273
1.55592 6.70782 27.4138
2.49227 8.22527 38.7273
3.14486 6.28492 28.1414
2.87204 10.8161 43.3944
4.9189 14.601 29.0995
2.68531 9.97429 33.7687
2.19652 7.57181 42.6217
4.76965 21.5495 75.1366
5.79589 14.9086 52.0689
4.12053 12.7697 27.3871
2.54541 12.2488 43.3407
2.35947 4.97489 44.3209
4.14061 11.6309 34.1406
3.62526 10.832 35.2508
3.2575 11.5434 26.494
2.31261 8.94218 41.9179
4.23654 17.1829 48.8001
2.2514 5.55673 30.4973
2.18382 9.11324 40.5144
4.1209 14.0295 47.5771
3.23717 10.6536 32.5785
3.03548 8.57539 39.3517
2.83293 9.44334 26.4218
2.45617 13.7706 39.6633
2.12189 6.50349 39.5351
2.76456 7.40358 18.7299
1.96274 13.1031 52.4605
3.95844 10.3971 35.0831
2.8843 12.0146 38.2003
3.34838 5.80325 22.2748
2.31209 11.0571 41.6721
3.4117 9.75387 25.0317
1.91146 6.98846 40.2366
3.35129 10.0859 24.1037
2.21537 6.2908 36.24
2.87104 7.11233 20.0952
1.5904 6.26815 17.2492
1.45226 6.91316 46.4848
4.01649 11.7975 27.4031
1.89516 7.00629 40.0927
4.14614 11.4306 34.2979
2.80171 11.0975 35.8264
2.43697 8.11837 22.591
2.0994 9.59986 30.6603
3.35617 14.7122 51.1954
3.73105 14.8784 63.3957
3.94756 5.76665 36.9967
3.48613 13.6864 32.432
2.90803 16.3193 117.791
9.35286 26.1687 55.5054
4.13938 8.41874 29.7682
3.2448 12.5812 27.6732
2.264 9.49585 43.1749
3.45755 10.5811 38.9522
3.3919 12.8574 29.3641
2.13193 10.4583 39.1143
2.54101 6.53643 32.2401
3.20761 10.494 30.5074
2.37521 12.3726 52.4211
3.87533 10.3409 54.2694
3.74886 12.2159 27.2121
2.19709 8.91673 33.9149
2.61204 7.70801 43.6937
3.97754 8.82989 24.7997
2.53764 9.2192 19.7934
2.39235 7.92768 27.8634
2.41046 9.31326 34.8225
2.69045 11.9386 36.7647
2.42716 7.28966 13.2217
1.0937 7.80138 47.9601
3.29573 9.29337 36.4296
3.33777 11.5862 30.2638
2.36855 7.05806 35.2774
2.78306 9.16013 31.0395
2.26684 12.5061 40.5815
3.05083 8.92831 37.1186
2.80652 9.35744 37.9932
3.07071 7.91954 25.5802
1.40581 6.4254 36.4143
2.7994 5.15546 22.1026
2.39253 9.14864 24.6628
2.12802 8.25432 54.9808
5.16499 17.7131 50.7896
4.29923 12.3949 47.6901
3.44501 7.42421 20.1241
2.13865 9.1412 40.5678
3.49054 15.3231 35.7021
2.34383 9.069 32.2157
2.60073 11.4419 37.8572
2.64227 6.28149 44.978
4.93162 18.5089 53.7604
3.11533 9.03153 25.8817
1.9882 3.18192 18.8104
1.97769 9.48529 37.6256
2.69184 10.4826 46.0874
3.0367 7.65525 33.6958
2.17934 11.1397 33.2795
2.57791 6.27858 18.3515
1.68752 7.29636 24.6038
2.00325 7.80578 35.2699
3.20409 9.53763 27.0489
1.88361 7.9964 29.1637
1.7354 5.7923 32.6916
3.2506 12.2899 44.5037
2.73511 7.57195 23.9126
1.54238 6.17441 28.6478
2.34752 6.45157 22.1403
1.89602 5.23045 16.6867
2.10744 12.8846 41.074
2.82605 11.8627 65.4821
4.61878 11.3014 40.9139
3.01767 8.89755 28.3488
2.49063 6.46091 32.7783
2.70963 8.00865 29.9227
2.69653 10.4261 29.2881
2.15703 9.12764 41.0193
3.14998 9.305 27.8774
2.46427 10.2667 22.2146
1.54255 7.97736 38.9918
2.66863 12.5171 58.4319
4.34263 13.3668 44.8127
2.5182 9.6075 29.9736
2.16239 5.4832 37.1476
2.86928 9.7727 25.5775
1.99984 11.1551 36.7113
2.62688 4.68097 24.9416
2.10357 9.39432 35.125
2.42727 9.37945 34.3568
2.3742 11.7281 68.4274
4.0956 9.78937 52.8279
3.4477 15.0796 33.2227
2.14085 7.20786 33.2387
2.13541 7.17064 29.1008
2.73182 13.6424 58.186
3.69723 8.77856 30.9193
2.26724 8.06872 29.6149
2.47281 9.12554 34.2672
2.64062 9.93423 26.6638
2.10375 12.491 36.4238
2.21066 7.74392 39.7281
3.08339 13.296 45.513
3.41863 10.4303 24.3816
1.52405 5.45097 19.7323
1.99165 5.33124 27.5739
2.24534 12.5404 98.0927
7.13027 21.5904 44.1739
3.307 12.6608 31.0377
2.05894 8.83154 45.0178
3.07451 10.9545 39.447
2.66918 10.4125 29.8925
1.65224 6.98628 54.6572
3.73878 16.6787 47.5128
3.52118 9.71726 44.6898
3.20087 11.909 34.4397
1.99884 6.68302 31.9568
2.83172 13.3047 44.1933
2.6341 6.5892 40.527
3.12072 11.8619 39.2164
2.90292 9.89581 33.6712
2.45837 9.11415 26.2301
2.11451 8.48573 36.6076
2.39279 8.67863 27.1068
1.65878 4.14741 28.7852
2.19042 7.17645 26.7465
2.40394 9.17052 36.8725
2.27239 6.25722 28.0473
2.15327 9.83575 35.0537
2.20337 7.26913 31.8243
2.31634 6.40399 18.4
1.30908 10.7881 45.323
2.93194 5.87232 31.5681
2.38208 9.36825 34.3337
2.76468 10.8342 27.1498
1.55165 8.60379 35.7164
2.66324 7.63807 14.3248
1.1474 8.79522 32.2998
2.30864 6.71135 30.9083
2.54938 8.4903 29.3358
1.91647 7.07546 23.3182
1.52931 6.31793 33.5995
2.69999 12.1387 67.812
4.47502 11.2592 27.5752
2.77952 13.1662 43.1432
2.29388 7.11641 39.4603
2.87241 10.6685 20.7551
1.32737 6.34957 48.3192
3.4047 12.6996 40.4768
2.83182 5.58441 22.5724
1.79484 5.87183 18.876
1.56831 11.888 48.5514
2.72874 8.51597 25.9097
1.80225 9.21595 37.7976
2.60528 6.57387 33.8274
2.1614 6.55624 29.1802
2.86072 9.27672 26.8937
1.5664 5.64483 29.7083
2.43991 12.4366 47.814
3.44721 12.2518 35.041
1.59368 4.36652 41.9163
2.61327 8.90943 22.029
1.91462 6.90808 28.7585
1.75483 6.18141 23.5651
1.86742 8.16133 33.5475
2.59076 4.91771 26.7437
2.14818 11.0499 37.0286
2.54873 6.97346 25.1104
1.90693 9.46378 49.5412
3.96364 7.57798 19.6811
2.34198 11.1145 21.9474
1.14443 3.74027 22.8447
1.83078 10.5217 43.2656
2.71935 12.1399 43.6116
2.47158 7.68628 36.8497
2.59714 16.3489 57.6797
3.49229 8.38172 28.6887
2.24131 10.6131 37.3377
2.29231 8.38276 42.6833
2.89601 11.1449 27.3426
1.76475 6.63121 30.2564
2.13752 11.1838 45.3628
2.63546 8.10013 25.7394
1.85099 9.25271 39.7987
2.65475 10.4525 41.2366
2.65989 8.45653 34.7932
2.70744 11.953 49.8933
3.40811 8.91021 25.9854
1.3271 7.73695 38.6575
2.67714 15.0921 50.0407
2.96759 9.6507 43.9823
2.61455 9.20967 72.6746
5.70531 17.4132 48.4307
3.49005 6.52683 24.8856
1.73984 8.53412 45.8033
3.19715 13.3225 44.7848
2.29432 6.12815 45.8474
3.12279 10.1642 35.6246
2.82185 15.7532 38.1069
2.39236 7.12463 23.6304
2.21545 7.67418 28.1769
1.84304 9.47587 41.7093
2.87016 18.2158 122.592
8.39648 16.2787 31.8596
2.38778 11.0694 47.9123
3.84785 13.6492 38.5083
2.30117 10.3462 44.6266
2.62471 6.50215 39.5914
3.29183 7.68848 29.2355
2.12467 8.10793 31.8526
2.05936 5.46287 21.539
1.64812 12.3329 51.2764
3.71803 12.1606 46.4439
3.18256 6.91703 29.135
1.81481 7.28621 20.2975
1.42596 6.00422 33.8996
2.71553 12.4275 25.1251
1.36415 8.58703 30.0537
2.46574 6.67232 31.0946
1.92982 8.71651 24.8548
1.84495 7.7028 35.8635
2.05218 6.2382 36.3378
2.61892 8.26907 39.3377
2.52273 12.1034 32.9919
2.04206 6.44751 38.4495
2.34034 11.6886 50.578
3.59184 5.91763 25.0265
1.81026 6.88547 20.0024
1.46815 3.334 14.5051
1.1703 5.58673 31.0967
2.17007 10.1541 26.5951
1.92581 4.65917 24.2553
1.86273 8.31646 29.7311
2.11221 5.33626 36.4881
2.42851 9.35161 34.7412
2.61721 9.37547 39.1949
2.68092 9.51285 25.9148
1.61636 9.4328 49.1437
4.00508 10.0952 34.7422
2.05747 8.00356 38.5565
2.17521 8.31652 24.8862
1.40161 8.79828 31.1571
2.12286 5.93002 27.7679
2.36625 7.07703 18.9416
1.25976 8.37937 45.0397
3.27912 9.04677 32.6215
2.09714 4.48102 30.7037
2.02676 11.0788 19.6256
1.45723 5.79511 22.3118
1.62625 8.29379 35.5121
2.12036 7.83976 45.9448
2.91865 12.857 39.5928
2.45901 9.83547 40.8195
2.53475 14.5275 40.9949
2.52467 6.5361 25.4803
1.57144 6.24183 24.2541
2.30594 6.6346 34.5445
2.58792 6.06158 32.5373
2.50974 11.0294 47.6724
3.27421 7.73856 34.2323
2.4348 12.475 33.8368
2.42366 6.93383 29.0391
1.92817 9.57961 23.8279
1.52472 7.17016 40.9602
2.6953 9.59324 32.0299
2.028 7.93393 34.218
2.4202 6.6687 34.6154
2.17566 7.95386 22.1983
1.76884 10.4333 35.651
2.59725 8.16832 44.3316
2.96847 8.24997 22.0398
1.87597 7.31768 44.8175
2.52273 15.6145 55.2093
3.92373 12.5777 30.4021
1.95143 5.448 31.0289
2.20994 7.12347 34.5525
2.41366 14.1283 54.6298
3.89344 7.81815 27.7571
1.6724 9.19471 42.7766
2.87092 13.7787 40.9917
2.52321 5.9666 31.1761
2.42365 9.20243 69.5386
4.09095 14.423 45.6878
3.12363 4.85778 17.6171
1.02057 4.43973 33.2521
2.36767 10.7328 20.2111
1.43814 9.05155 41.0831
3.17421 10.4454 31.4187
2.13328 7.63117 52.1785
3.34075 8.37795 38.8698
2.89801 9.40477 22.0735
0.998422 5.20635 27.1808
1.96025 8.868 23.3607
1.39097 8.82051 26.3636
2.07452 5.97615 33.3943
2.67552 5.78614 27.1561
1.46203 8.94037 45.2576
2.76674 11.6784 31.601
2.46669 21.6987 158.323
9.86921 0 0