# pn-170911/RbIIR-av-RbIIA-1280-1959.psd
# Power spectrum* (dif=0,1,2) (really just |FT|^2)
# NOTE: only the first half! (symmetric)
# weeks: 1280-1959
# 68895 clock-days, 3323 excluded
# PSD: 1441
6273.95 0.232659 0.033793
568873 11.7192 0.0336852
1.74688e+06 32.7489 0.0339449
340329 10.8469 0.033753
224351 13.164 0.0346414
103571 7.61906 0.0344336
70634.4 8.01064 0.0344348
46486.8 6.92693 0.0350567
38586.5 7.38322 0.0354726
27675.8 6.63083 0.0356592
23948.8 6.92315 0.0359227
18715.3 6.34696 0.0365739
16013.5 6.69397 0.0377156
13112.6 6.26152 0.0384775
12004.9 6.946 0.0398735
9858.92 6.23795 0.0396838
9325.62 6.91816 0.0414428
7767.14 6.38822 0.0417475
7427.98 6.99491 0.0435382
6035.11 6.15129 0.0432246
6103.83 7.22747 0.0469629
5177.99 6.5101 0.0470911
5088.41 7.47968 0.050704
4304.42 6.51489 0.0499797
4352.46 7.47168 0.053964
3694.57 6.6617 0.053349
3685.1 7.49151 0.0572658
3161.34 6.73506 0.0566327
3304.46 7.98183 0.063157
2843.54 7.15049 0.0620342
2899.84 7.92082 0.0672397
2548.85 7.2209 0.0668745
2570.45 8.22203 0.0737899
2273.2 7.53312 0.0720247
2320.05 8.32787 0.0792769
2088.52 7.65454 0.0784719
2115.73 8.82494 0.0872766
1909.62 8.05369 0.0866817
1917.92 8.8829 0.0933661
1706.76 8.00942 0.0914688
1753.5 8.98937 0.101971
1593.75 8.39336 0.101052
1621.97 9.39045 0.111754
1521.37 8.82376 0.111308
1511.64 9.58644 0.120892
1365.26 8.80998 0.117785
1432.2 10.0138 0.134319
1290.51 9.21434 0.130737
1344.98 10.2453 0.144974
1217.28 9.58429 0.143371
1229.62 10.3493 0.157028
1142.99 9.66434 0.152977
1179.16 10.7709 0.17218
1087.85 10.0826 0.167824
1124.85 11.0903 0.187294
1026.96 10.4626 0.184086
1058.45 11.4308 0.204338
969.308 10.5932 0.197677
980.652 11.4412 0.217297
922.555 11.0121 0.21553
942.297 11.8253 0.235578
884.156 11.1801 0.229836
896.378 12.0298 0.252383
831.395 11.261 0.246263
854.598 12.1404 0.269377
800.277 11.7071 0.268735
811.804 12.4355 0.290266
764.627 11.9172 0.286039
761.495 12.5563 0.308367
740.805 12.4349 0.315766
751.267 12.8886 0.334588
707.953 12.5334 0.333625
716.831 13.324 0.362088
665.082 12.505 0.349488
690.024 13.3728 0.380353
648.618 12.8685 0.377319
663.219 13.6484 0.407487
617.137 13.1247 0.40057
622.372 13.7455 0.430749
595.078 13.2067 0.425454
601.403 13.9221 0.456428
576.637 13.427 0.450276
588.943 14.4174 0.493788
550.614 13.7427 0.481066
556.758 14.4329 0.51342
543.935 14.1224 0.516685
540.352 14.6548 0.549344
510.832 14.0948 0.536581
517.955 14.6397 0.570036
497.398 14.3878 0.574095
503.554 15.0116 0.60908
489.743 14.8521 0.614922
480.371 14.9644 0.635144
465.087 14.706 0.634959
462.525 14.9987 0.662423
458.076 15.2519 0.683604
507.225 17.8657 0.812622
444.534 15.3034 0.713481
438.191 15.5877 0.740551
420.637 15.1288 0.734377
419.68 15.6321 0.771732
418.874 15.7781 0.794798
421.198 16.4502 0.843349
402.728 15.8132 0.825881
402.841 16.2524 0.865512
389.303 15.9507 0.86557
388.781 16.2698 0.897661
372.061 15.8072 0.888031
377.093 16.5236 0.944089
368.528 16.3842 0.953977
366.632 16.6961 0.98779
353.482 16.1885 0.977417
351.261 16.5683 1.01512
350.065 16.8136 1.04838
352.776 17.3886 1.10201
338.658 16.879 1.08989
335.168 17.1055 1.12062
321.095 16.3774 1.08981
327.977 17.3043 1.16836
322.953 17.1713 1.18231
322.026 17.607 1.22905
314.948 17.3842 1.23634
310.576 17.4256 1.25669
304.573 17.4605 1.28131
306.281 17.7865 1.32158
296.613 17.5861 1.33093
299.953 17.9103 1.37427
287.297 17.2776 1.34479
284.935 17.761 1.40517
282.112 17.7296 1.42602
280.374 18.0642 1.47402
277.304 18.1356 1.50301
275.491 18.5209 1.55339
267.709 17.94 1.52879
266.646 18.2526 1.57617
262.42 18.2421 1.60212
263.022 18.5282 1.6475
258.134 18.4108 1.66316
257.059 18.7184 1.71207
248.741 18.2407 1.68983
252.827 19.0385 1.79311
244.897 18.7554 1.79206
240.51 18.6018 1.79607
240.797 18.8529 1.85377
239.311 19.128 1.89551
232.436 18.6831 1.88606
232.721 19.0667 1.95132
233.997 19.2557 1.99048
228.245 19.142 2.0084
225.542 19.1564 2.03413
232.34 20.1011 2.15961
220.741 19.2473 2.09451
221.184 19.7861 2.18432
219.149 19.7684 2.20885
214.27 19.6822 2.22805
214.027 19.8912 2.28467
213.531 20.0966 2.33184
208.483 19.8188 2.32465
212.139 20.381 2.43036
203.063 20.0337 2.41507
204.342 20.2556 2.47108
202.662 20.3107 2.51199
200.514 20.3976 2.54747
199.846 20.4888 2.59393
195.956 20.5899 2.63584
193.042 20.1165 2.59777
190.607 20.5694 2.699
191.965 20.8334 2.76257
190.568 20.9353 2.81224
187.236 20.7113 2.8068
184.287 20.7079 2.83848
184.07 20.9597 2.89911
182.44 21.0654 2.96148
178.726 20.7959 2.9549
178.65 21.0259 3.02564
178.243 21.2156 3.08046
175.626 21.2247 3.10801
173.381 21.0827 3.12813
174.381 21.4482 3.22081
170.656 21.2566 3.22523
170.258 21.5089 3.29855
167.269 21.318 3.31252
167.959 21.5274 3.37399
166.479 21.9736 3.49566
165.75 21.8925 3.49495
163.824 22.0044 3.56596
163.704 22.0116 3.5819
159.939 21.8594 3.61363
161.201 22.2008 3.70781
156.738 21.7638 3.67167
154.635 21.6695 3.69611
155.644 22.2903 3.86705
186.582 27.7834 4.79085
151.395 21.9442 3.83733
150.454 22.1101 3.93548
150.679 22.5814 4.05588
149.745 22.4688 4.06069
148.65 22.6484 4.13153
147.076 22.5468 4.1737
145.917 22.4303 4.18468
143.261 22.5602 4.26112
142.836 22.7467 4.32714
144.749 22.978 4.4061
139.865 22.5886 4.38839
141.76 23.1535 4.53255
138.403 22.9123 4.53821
139.171 23.2349 4.62488
135.893 22.8999 4.61606
138.296 23.5024 4.77579
136.828 23.4822 4.83168
134.361 23.3904 4.83483
131.034 23.1467 4.85578
131.547 23.2254 4.8978
130.543 23.2945 4.96044
130.004 23.4131 5.04619
130.43 23.9114 5.18711
128.25 23.6064 5.16817
128.188 23.7039 5.23247
126.653 23.6898 5.27755
125.851 23.8138 5.34554
125.541 23.9734 5.45166
124.234 23.7336 5.43556
124.711 24.1472 5.58166
122.759 23.9645 5.57678
121.5 24.0533 5.64788
120.734 24.0373 5.69419
120.604 24.3866 5.83273
118.654 24.2775 5.84825
119.798 24.7177 6.03934
120.679 24.9091 6.08979
116.996 24.4207 6.01768
115.147 24.2981 6.05286
115.408 24.5483 6.1891
114.434 24.6742 6.28061
115.997 24.9375 6.35896
113.285 24.5746 6.34279
112.506 24.7732 6.4314
110.849 24.4994 6.4284
111.325 24.6656 6.52592
110.77 25.1148 6.71501
110.212 25.201 6.75474
108.313 24.7121 6.69641
107.661 24.827 6.80247
107.886 24.9295 6.86151
105.95 25.0576 6.97943
107.932 25.6159 7.15563
106.313 25.4475 7.16836
105.486 25.3636 7.20956
104.111 25.4448 7.27939
103.682 25.2329 7.26128
102.418 25.3616 7.39561
101.68 25.1831 7.40209
101.436 25.5757 7.56898
101.428 25.5466 7.61389
100.679 25.6509 7.68762
100.704 25.781 7.80461
99.3802 25.6574 7.8225
98.3245 26.0101 8.00061
98.6393 26.053 8.04362
98.3413 26.0713 8.13717
97.7499 26.0641 8.19133
96.9587 26.0068 8.18401
93.6795 25.5369 8.16361
94.9419 26.0597 8.38378
94.9497 26.2232 8.48269
93.8582 25.9483 8.44793
93.8538 26.2089 8.5838
92.662 26.053 8.62653
92.1271 26.2505 8.75341
91.1342 25.9549 8.7025
91.7968 26.5848 8.98308
90.5245 26.1328 8.86992
90.1619 26.4012 9.058
88.9676 26.1777 9.06365
89.7218 26.5444 9.19803
88.8124 26.5822 9.30451
88.784 26.8159 9.47773
88.1058 26.5708 9.42024
87.3054 26.5106 9.46521
85.9635 26.3376 9.47212
85.8544 26.6368 9.6439
86.0793 26.9886 9.89192
85.8868 26.9059 9.85671
84.1389 26.7375 9.88331
83.3185 26.5337 9.90868
83.0416 26.5383 9.96744
82.4884 26.7162 10.1494
82.6155 27.1569 10.4834
106.352 35.5798 13.2399
82.2613 27.3905 10.6083
80.5767 26.9051 10.4753
80.5788 26.9633 10.5528
79.7598 26.8332 10.5656
80.9988 27.4502 10.8335
79.0281 27.1682 10.8572
79.4938 27.3378 10.9426
78.1603 27.0933 10.9195
78.0163 27.2938 11.0765
78.0701 27.4094 11.2058
77.1656 27.2118 11.1983
77.1634 27.3338 11.3286
76.0374 27.2165 11.3206
75.9259 27.3107 11.4424
75.5308 27.4767 11.5922
75.0811 27.465 11.6609
75.143 27.446 11.733
74.8375 27.8072 11.9512
73.9093 27.4435 11.8908
72.751 27.3889 11.9418
72.9516 27.4374 12.0568
72.527 27.3665 12.0714
71.9573 27.3095 12.122
72.6927 27.8192 12.3666
71.3761 27.6433 12.4317
71.297 27.5497 12.4535
71.1778 27.7808 12.6088
70.0438 27.5611 12.6466
69.6679 27.6895 12.7305
69.8013 27.6082 12.8259
69.6495 27.9363 13.0021
69.1138 27.8413 13.0431
68.9594 28.0703 13.2064
68.789 27.93 13.2416
67.6271 27.8267 13.3058
67.4112 27.7627 13.3002
66.8795 27.8373 13.4757
67.1722 27.9779 13.5816
66.7409 27.9974 13.6834
67.1521 28.4942 14.023
66.3507 28.1119 13.8911
65.8734 28.177 14.0035
65.8553 28.2572 14.127
65.1954 28.2331 14.1641
64.7875 28.1139 14.236
64.8701 28.278 14.357
63.9861 28.1514 14.4141
63.2615 28.1571 14.4531
63.7512 28.5467 14.7737
62.9349 28.1821 14.6329
62.5394 28.3894 14.8806
62.2132 28.1721 14.8418
62.682 28.564 15.1627
61.9772 28.4316 15.0545
62.0393 28.6657 15.3075
60.6117 28.2733 15.2207
60.7451 28.3483 15.3359
60.5739 28.4249 15.4652
60.5412 28.572 15.6233
59.7333 28.1714 15.5508
59.4933 28.3547 15.6653
59.9692 28.5986 15.9254
58.9541 28.448 15.8702
59.0759 28.7133 16.1525
58.8186 28.6816 16.2171
59.0852 28.8669 16.351
57.8202 28.5659 16.355
57.9787 28.7999 16.529
57.4416 28.6822 16.5668
57.345 28.6158 16.595
56.9267 28.5829 16.6984
56.9961 28.7596 16.8214
56.299 28.6723 16.9203
56.1387 28.8524 17.1106
55.7555 28.5083 16.9959
55.5275 28.7927 17.2256
55.0756 28.7585 17.3142
55.2787 28.6651 17.325
54.9123 28.8763 17.5639
54.4575 28.7805 17.587
54.3632 28.6653 17.5968
53.4834 28.5034 17.6189
53.6133 28.7631 17.9199
53.2039 28.6956 17.9358
53.0329 28.7626 18.0069
52.7057 28.7748 18.1897
52.8123 28.894 18.3143
53.1289 29.2041 18.534
52.1888 28.7421 18.3922
51.3217 28.4821 18.3335
51.4822 28.7775 18.609
51.2285 28.7753 18.7861
50.8505 28.5851 18.6756
50.9344 28.8274 19.0182
50.9735 29.3329 19.8622
65.6114 38.4382 24.395
50.0981 28.9633 19.4143
50.3098 29.2241 19.6021
49.7971 28.9838 19.4769
49.8703 29.2579 19.7176
49.242 28.805 19.6163
49.2182 29.0867 19.8721
49.2187 29.1142 19.9494
48.662 28.8267 19.7688
48.1082 28.9535 20.0676
47.9428 28.8329 20.1211
47.9757 29.0307 20.253
47.7792 28.9641 20.281
47.5738 28.892 20.4336
47.1697 28.767 20.3726
47.3614 29.0366 20.6664
47.2056 29.1431 20.8282
46.2192 28.8024 20.6616
46.6444 29.0929 21.0485
46.2002 28.8472 20.908
46.156 29.2092 21.2764
45.8907 29.2367 21.4682
45.873 29.1088 21.3797
45.267 28.8211 21.3058
45.6114 29.1964 21.6933
45.0187 29.0719 21.6347
44.4218 28.818 21.598
45.0083 29.203 21.9531
44.986 29.2988 22.0846
44.5558 29.1133 22.1142
44.0871 29.1393 22.2375
44.133 29.2319 22.3866
43.8941 29.1841 22.4805
43.9249 29.4016 22.7312
43.4764 29.0347 22.5651
42.9789 29.0593 22.6564
42.5922 28.9307 22.6459
42.9875 29.1552 22.9584
43.2998 29.5962 23.3763
42.7126 29.1024 23.0462
42.3583 29.2964 23.3201
42.3073 29.2444 23.4592
42.006 29.2765 23.5169
41.8223 29.3378 23.6757
41.4638 28.8706 23.4535
41.6071 29.3246 23.8191
40.8509 28.984 23.7147
41.3604 29.2227 23.8907
40.928 29.2577 24.2046
40.5304 28.9893 24.0198
40.5984 29.2758 24.3861
40.6437 29.344 24.4955
40.4961 29.1234 24.4148
40.1257 29.1372 24.5527
40.2862 29.3025 24.7659
39.6677 29.0896 24.7363
39.996 29.3406 25.0525
39.245 29.0559 24.887
39.2496 29.2315 25.1197
38.874 29.0977 25.2238
39.0449 29.3919 25.4839
38.4009 28.8246 25.1915
38.4906 29.2306 25.5572
38.4229 28.9074 25.3905
38.129 29.0772 25.5914
37.8734 29.1368 25.8848
38.3378 29.2956 25.9457
37.336 28.8025 25.7724
37.6893 29.2688 26.3348
37.8759 29.3211 26.3346
37.2653 29.1132 26.4512
37.5392 29.4354 27.0647
40.4835 31.7744 28.2593
37.0572 29.4082 26.9291
37.0236 29.6001 27.2993
36.6228 29.2325 26.927
36.8577 29.4298 27.2122
36.2178 29.1848 27.2061
36.0526 29.0135 27.1006
36.0899 29.1667 27.284
36.106 29.227 27.5449
36.0364 29.2666 27.6115
35.6991 29.2203 27.7303
35.3478 29.0718 27.7504
34.9659 29.1234 27.8682
35.4028 29.2773 28.0158
34.949 29.2317 28.0994
34.7963 29.1248 28.1977
34.598 29.0992 28.3143
34.8293 29.0902 28.3632
34.5072 29.0113 28.3169
34.0561 28.864 28.5037
34.3941 29.1896 28.739
34.3695 29.271 28.9364
33.9461 29.2059 29.2833
33.7358 29.3581 30.6611
44.1217 38.8051 36.3814
33.1218 29.0099 29.455
33.4049 29.1027 29.4329
33.4173 29.216 29.5807
33.0556 29.0874 29.6355
33.1674 28.9798 29.5435
32.599 28.827 29.5657
33.0061 29.1895 29.9312
32.5665 28.9362 29.7857
32.5306 29.0582 30.0581
32.4972 29.1844 30.3116
32.1381 28.869 30.0647
31.8914 28.944 30.4576
32.1944 29.0682 30.4353
32.0056 28.9852 30.5214
31.7031 29.0061 30.7036
31.9801 29.3144 31.0544
31.4326 28.9959 30.9282
31.3678 28.8343 30.8783
31.0491 28.6754 30.7828
31.2444 29.1239 31.3245
30.8809 28.7452 31.0493
30.7812 28.7572 31.203
30.5348 28.7726 31.4193
30.5824 28.8292 31.4236
30.2691 28.7526 31.5274
30.2115 28.6782 31.5328
30.3964 28.9108 31.8574
30.1417 28.7963 31.8767
30.0596 28.8294 32.0804
29.8087 28.7125 31.9639
29.7183 28.7738 32.2648
29.7472 28.7818 32.451
29.8469 28.8677 32.3623
29.4237 28.7966 32.5526
29.3969 28.6779 32.5244
29.0556 28.5445 32.5353
29.0264 28.6831 32.823
28.8465 28.4342 32.6478
28.6421 28.5945 32.8838
28.7864 28.7713 33.3204
29.0814 28.9601 33.5697
28.7132 28.8192 33.3229
28.4405 28.7557 33.6111
28.5452 28.6664 33.6004
28.287 28.6468 33.6638
28.23 28.6896 33.8677
27.8813 28.6348 33.9616
27.8104 28.5613 33.9853
27.7398 28.3682 33.6456
27.7867 28.4408 33.9719
27.6666 28.4411 34.135
27.4515 28.5677 34.449
27.6151 28.5129 34.3754
27.3157 28.566 34.7269
27.4125 28.6088 34.6802
26.9869 28.3267 34.5442
27.044 28.5012 34.7522
26.8898 28.5954 35.1858
26.9254 28.3719 34.9429
26.9563 28.7099 35.5093
27.0599 28.6397 35.4022
26.5379 28.2475 35.124
26.4837 28.3847 35.4315
26.4891 28.6555 35.8768
26.2066 28.2742 35.3374
26.0635 28.3865 35.7857
26.193 28.442 35.9486
26.1135 28.419 35.8501
25.6717 28.3236 35.9511
25.7631 28.307 36.0952
25.8087 28.491 36.556
25.3693 28.079 36.0686
25.542 28.5281 36.9205
25.6883 28.2674 36.4141
25.2348 27.9439 36.2586
25.3128 28.2306 36.8749
25.254 28.3892 37.0555
25.4283 28.5048 37.1782
25.3749 28.8228 37.7322
24.8529 28.0174 36.8547
24.7979 28.2285 37.3016
24.9563 28.4099 37.59
24.5965 28.0281 37.2872
24.5488 28.1432 37.6073
24.5054 28.0274 37.417
24.3849 28.0651 37.7837
24.5568 28.3953 38.0889
24.1957 28.1265 37.8509
24.0617 28.1163 38.211
24.1133 28.2105 38.2431
24.1922 28.2997 38.4819
24.1864 28.3117 38.6932
24.0056 28.1437 38.707
24.1446 28.8039 40.0598
24.0341 29.0522 42.8203
31.1664 37.0633 47.0612
23.7385 28.549 39.6016
23.5688 28.1886 39.4412
23.4024 28.1925 39.5536
23.5135 28.2502 39.5654
23.323 28.161 39.532
23.2684 27.9944 39.2981
22.7589 27.5551 38.9529
22.8337 27.8032 39.6835
23.1853 28.1638 39.9764
23.0298 27.7506 39.3925
22.7543 27.7583 39.5039
22.6924 27.923 40.0807
22.7003 27.8865 40.0617
22.6187 27.8313 40.0515
22.3615 27.713 39.8505
22.1967 27.6541 40.1261
22.2322 27.6324 40.267
21.9317 27.5688 40.2851
21.9349 27.3554 40.0339
21.9849 27.6988 40.5946
21.9564 27.5299 40.481
21.8782 27.5813 40.5171
21.6113 27.5282 40.948
21.8352 27.4233 40.522
21.5683 27.443 40.8008
21.4435 27.3726 40.7778
21.5112 27.2127 40.7116
21.5936 27.7203 41.4866
21.5324 27.6167 41.543
21.0579 27.1648 41.1233
21.4211 27.475 41.359
21.1063 27.2013 41.134
20.9039 27.4751 41.9703
20.9264 27.0147 41.2171
20.9666 27.3622 41.6132
20.8414 27.2628 41.8379
20.7813 27.2367 41.9965
20.7475 27.1901 41.9096
20.8262 27.528 42.3181
20.5175 27.0599 42.2229
20.6348 27.2584 42.3352
20.4905 27.2331 42.5223
20.4623 27.1736 42.4818
20.3452 27.0688 42.289
20.1304 26.8718 42.1878
20.1773 26.981 42.6063
20.0184 27.0354 42.7342
20.1647 27.1976 42.9144
19.8925 26.9312 42.7064
19.6473 26.8599 42.7446
19.8305 26.9877 43.0911
19.6655 26.975 43.1213
19.7307 26.9797 43.4838
19.7085 26.9557 43.3653
19.4538 26.9035 43.6754
19.4003 26.7253 43.0854
19.362 26.8108 43.5747
19.2794 26.879 43.8017
19.2253 26.6465 43.3106
19.097 26.7436 43.7518
18.9751 26.4941 43.5493
19.0764 26.6738 43.9016
18.8916 26.5451 43.872
18.954 26.6657 44.0415
19.0787 26.868 44.4013
18.9523 26.695 44.2383
18.5356 26.202 43.8048
18.6906 26.6101 44.4188
18.4985 26.631 44.5678
18.5092 26.4335 44.5469
18.5268 26.6507 44.9003
18.5552 26.6073 44.6464
18.2357 26.1979 44.3419
18.1133 26.1621 44.5957
18.2567 26.3195 44.5713
18.3368 26.3818 45.1371
18.2702 26.4628 44.9197
18.1061 26.4708 45.5568
17.9778 26.2218 45.0376
17.8056 26.2016 45.1688
17.9573 26.2052 45.1536
17.9771 26.4962 45.6438
17.6375 25.8712 45.0179
17.7147 26.2397 45.63
17.5776 26.298 46.0853
17.933 26.3821 45.973
17.637 26.2749 46.1924
17.7667 26.4729 46.2699
17.4778 26.1521 45.9692
17.5357 26.2219 46.2027
17.3178 26.1043 46.3168
17.2607 26.0762 46.4294
17.3343 26.2037 46.7334
17.1742 25.7314 46.2935
17.1011 26.5707 52.691
22.872 34.4913 54.8928
17.1515 26.3078 47.241
16.7781 25.5046 46.0938
16.8642 25.7475 46.6776
16.7033 25.6265 46.2987
16.7763 25.5953 46.4105
16.6822 25.6416 46.6155
16.6256 25.7548 46.7676
16.5739 25.6296 46.7668
16.5971 25.5737 46.9205
16.5431 25.6278 47.0684
16.4659 25.7988 47.5676
16.5021 25.8646 47.4902
16.4139 25.7144 47.5303
16.4425 25.6408 47.4859
16.4299 25.6396 47.5505
16.3403 25.5171 47.2206
16.1241 25.4182 47.5856
16.1837 25.6468 47.7832
15.9548 25.4341 47.9863
16.0951 25.4471 47.7906
16.0406 25.3704 48.0222
15.89 25.3724 47.8476
16.0254 25.6297 48.3633
15.9357 25.2999 47.896
15.8625 25.0951 47.7736
15.7484 25.398 48.2458
15.8261 25.5516 48.9396
15.6977 25.2055 48.4511
15.7446 25.2131 48.1092
15.6042 25.2732 48.5991
15.6235 25.2407 48.4599
15.4498 25.3371 48.8935
15.5653 25.5578 49.1598
15.3521 25.0825 48.8987
15.3005 25.1102 48.6841
15.3691 25.4437 49.5644
15.2406 24.9334 48.7985
15.142 24.9306 48.9288
15.3856 25.348 49.6039
15.1425 24.9174 48.7918
14.9659 25.0621 49.4663
15.0393 24.8125 49.1123
15.0457 24.94 49.0915
15.0277 24.9932 49.2935
14.7877 24.915 49.4834
14.7912 24.5573 49.1036
14.8269 25.0197 50.3557
15.0313 25.2314 49.7104
14.6036 24.7965 49.7994
14.6319 24.6711 49.6193
14.6137 24.6861 49.7676
14.5944 24.7122 49.6124
14.4611 24.6224 49.8674
14.5483 24.9978 50.6995
14.6372 24.873 50.484
14.4653 24.6375 50.2254
14.4346 24.6255 50.1519
14.4366 24.8759 50.6284
14.2899 24.7055 50.4201
14.2977 24.5305 50.2625
14.1176 24.4174 50.436
14.0298 24.4 50.3775
14.0217 24.0433 49.5924
14.0674 24.6105 50.7938
14.1165 24.6975 51.4681
14.2038 24.7909 51.1418
13.8558 24.0911 50.5317
13.9069 24.2957 50.5742
13.7913 24.4597 51.1102
13.8062 24.0775 50.5745
13.7329 24.2699 51.0583
13.9047 24.3877 50.7881
13.7052 24.2116 50.9963
13.603 24.0659 50.9246
13.7149 24.3199 51.4063
13.5988 24.0841 51.2547
13.4409 23.9384 51.265
13.6148 24.155 51.1842
13.3969 23.9975 51.5334
13.4262 24.0228 51.5532
13.3681 23.8529 51.1304
13.4335 24.0393 51.3908
13.344 23.9902 51.66
13.3893 24.1277 52.0193
13.253 23.9988 51.8044
13.2603 24.1682 52.3363
13.1472 23.708 51.4312
13.1314 24.0646 52.2982
13.0812 23.7903 51.987
13.0759 23.8463 52.2092
13.0431 23.833 51.7666
12.8334 23.6476 52.425
12.863 23.53 51.8563
12.9829 23.7116 52.3507
12.7469 24.4823 61.5843
17.0392 31.023 59.3837
12.9271 24.0053 53.0277
12.8661 23.8746 52.8944
12.8245 23.7141 52.6339
12.6803 23.4203 52.4797
12.6986 23.6811 52.7275
12.5153 23.5678 52.6076
12.4721 23.3018 52.4639
12.5689 23.4515 52.5611
12.482 23.3593 52.3458
12.5104 23.5714 52.801
12.2519 23.1852 52.2489
12.3263 23.1819 52.8063
12.2857 23.2514 52.8709
12.3689 23.3245 53.0268
12.4874 23.3934 53.1385
12.3703 23.5174 53.3191
12.1984 23.094 53.1499
12.2827 23.259 52.8907
12.1482 23.2338 53.1658
12.1433 23.0814 52.8094
12.1201 23.2913 53.2797
12.097 23.0359 52.7923
11.9595 22.8097 52.6341
11.9877 23.2037 53.5757
12.0331 22.8562 52.7145
11.8177 22.8878 53.6466
12.0399 23.1712 53.8301
12.0734 23.2824 54.0323
11.8184 22.9448 53.7221
11.8784 23.052 53.5879
11.7764 22.882 53.8054
11.7982 22.8442 53.5357
11.6739 22.8407 53.9539
11.5942 22.7712 54.1067
11.7306 22.7227 53.4427
11.6294 22.903 53.7333
11.6507 22.681 53.8101
11.5007 22.7047 54.2225
11.5036 22.6019 53.8974
11.612 22.853 54.2209
11.5018 22.7866 54.0678
11.2341 22.3312 53.8043
11.4081 22.4234 53.7886
11.4329 22.7806 54.5325
11.3411 22.5253 53.9748
11.3846 22.7746 54.9162
11.3645 22.5165 54.2868
11.3953 22.5662 54.3901
11.1904 22.5485 54.1301
11.3174 22.5334 54.4971
11.3126 22.6269 54.9696
11.0104 22.2011 54.316
11.218 22.5528 54.9067
11.1708 22.3942 54.8951
11.0985 22.6494 55.4934
11.1447 22.3362 54.4856
11.0139 22.2901 54.7311
11.0486 22.4487 55.124
11.1625 22.4554 55.0051
10.9768 22.3394 54.9458
10.8207 22.0206 54.4133
10.865 22.1309 54.965
10.8313 22.2162 54.9251
10.8661 22.3062 55.4648
10.9303 22.2674 55.6176
10.8305 22.4196 55.3477
10.7295 22.1871 55.5701
10.7038 22.2793 55.4016
10.7504 22.0104 55.1184
10.6514 22.2833 55.9894
10.8051 22.14 55.6068
10.6538 21.9572 55.5942
10.6808 22.1319 55.289
10.5194 22.0442 55.6324
10.5424 22.0385 55.7059
10.4105 21.7468 55.5598
10.5808 21.9405 55.3743
10.4539 21.9037 56.0733
10.5401 21.8921 55.6155
10.5247 22.1204 56.5088
10.4319 21.7251 55.5283
10.46 21.6733 55.4928
10.4957 22.0426 56.3783
10.3243 21.85 56.1149
10.32 21.9518 56.3876
10.3007 21.896 56.4716
10.3271 21.9525 56.8856
10.2847 21.8064 55.9359
10.2077 22.0314 57.2046
10.3812 21.9817 56.9162
10.3401 21.9205 57.015
10.2685 22.0194 57.1968
10.2039 22.1397 58.3112
10.3566 22.7174 59.8334
10.4526 23.4594 70.7342
13.4742 28.28 63.7495
10.3605 22.7413 59.6395
10.3868 22.6298 59.2241
10.3311 22.3521 58.5987
10.1753 22.024 57.3589
9.98747 21.8079 57.798
10.0763 21.7491 57.2801
9.99019 21.7368 57.3573
9.88476 21.6266 57.9469
10.1509 21.8256 57.7244
9.8701 21.5051 57.2981
9.89083 21.5781 57.4381
9.79738 21.4329 57.063
9.79617 21.4749 57.0195
9.67128 21.2438 57.0872
9.70995 21.1713 56.6245
9.63584 21.3258 57.1511
9.69525 21.3095 57.4484
9.63284 21.2082 57.3954
9.65242 21.0116 56.7064
9.59569 21.1133 56.6092
9.54932 20.8971 57.0209
9.53398 21.1359 57.3754
9.53345 20.9223 56.5872
9.50032 21.0763 57.342
9.50176 21.0503 57.4878
9.51805 20.8899 56.4758
9.35902 20.7877 56.6049
9.3712 20.9628 57.0447
9.34284 21.0147 57.6629
9.39766 20.9774 57.1299
9.26841 20.7019 57.2006
9.30088 20.6298 56.5291
9.30447 20.7865 57.0996
9.30468 20.7699 57.2013
9.15946 20.7751 57.5625
9.27974 20.7847 57.2299
9.22577 20.6422 57.0046
9.09369 20.7237 57.47
9.22823 20.6744 57.3459
9.21135 20.7341 57.4599
9.09609 20.573 57.1862
8.97531 20.3081 56.5576
9.05894 20.6378 58.0711
9.04683 20.3576 57.0121
8.99614 20.6253 57.9242
9.05779 20.7668 57.9604
9.00614 20.5049 57.8327
9.05675 20.6212 57.5476
8.91491 20.3491 57.4412
8.88727 20.413 57.2047
9.02781 20.6324 58.2905
8.91795 20.373 57.6064
8.88382 20.5102 57.9446
8.88444 20.3602 57.6944
8.83819 20.304 57.4984
8.82118 20.1815 57.6196
8.86397 20.4236 57.945
8.68475 19.928 57.0459
8.78479 20.3146 58.2875
8.83557 20.2963 57.6915
8.72302 20.1458 58.0237
8.70298 20.2004 57.8496
8.6427 20.233 58.1225
8.60258 20.0803 57.6815
8.65714 20.1873 58.0661
8.60823 20.1532 58.2397
8.71718 20.4929 58.9091
8.50371 20.0626 58.4612
8.70592 20.3021 58.4597
8.63786 20.1433 58.0912
8.55414 20.0592 58.4268
8.51105 20.0272 58.2993
8.52884 20.214 58.9431
8.50616 19.9641 58.1727
8.4549 20.0051 58.491
8.48841 20.0709 58.9424
8.53056 20.1367 59.2768
8.53453 20.1386 58.4847
8.40355 19.8615 58.5192
8.47646 20.0774 58.6164
8.40832 20.0786 58.9387
8.34498 19.8568 58.2363
8.33282 19.8468 58.5689
8.29122 19.7836 58.5598
8.30877 19.8552 58.896
8.33163 19.8507 58.846
8.27119 19.8667 58.5375
8.22372 19.7217 58.2809
8.22208 19.6214 58.6941
8.30316 19.9955 59.6853
8.2589 19.8476 58.8754
8.18861 19.6991 58.9246
8.20316 19.7951 59.1308
8.20285 20.2137 60.7863
8.25057 21.1764 75.7826
10.8511 25.2692 62.9218
8.12736 19.9445 59.8438
8.09186 19.8531 60.1161
8.1916 19.5323 58.6569
8.07228 19.6689 59.1332
8.07171 19.5463 59.0047
8.06194 19.5136 59.056
8.03147 19.4037 58.3987
7.9928 19.5602 59.2376
8.04933 19.9667 60.1969
8.1015 19.6266 59.2545
7.89467 19.513 59.5961
7.9595 19.442 59.2075
7.85165 19.2834 59.3654
7.92066 19.4923 59.171
7.88298 19.4865 59.3158
7.90877 19.5211 59.8011
7.97777 19.568 59.5442
7.79673 19.3866 59.9629
7.9647 19.5686 59.3962
7.82717 19.2329 59.5506
7.86974 19.3889 59.273
7.77365 19.2039 59.1102
7.71606 19.1113 59.1451
7.79459 19.1948 59.1591
7.76831 19.1299 59.2685
7.751 19.0539 59.1668
7.69887 19.1535 58.9249
7.74152 19.5181 60.4442
7.76404 19.3277 60.1529
7.67211 18.9356 59.3564
7.69533 19.2222 59.8115
7.70604 19.3319 59.8402
7.69096 19.3178 60.5225
7.66019 19.1164 59.9116
7.63199 19.1355 60.0905
7.70865 19.3563 60.1777
7.61534 18.9506 59.9095
7.68376 19.1581 59.9752
7.66713 19.0858 59.5129
7.55856 19.2032 60.0907
7.58072 18.8737 59.3881
7.55327 18.9653 59.6478
7.55413 18.8769 59.4173
7.45682 18.8984 60.0472
7.50923 18.9251 60.0556
7.52111 18.964 59.7514
7.43299 18.7272 60.0215
7.5573 18.8869 59.3726
7.37153 18.9661 60.3825
7.55111 19.1917 60.6886
7.4599 18.8219 60.8858
7.563 18.9102 59.4984
7.3469 18.7037 59.8562
7.38417 18.8045 59.837
7.38735 18.8948 60.3918
7.31834 18.7046 60.1322
7.36385 18.6681 60.0177
7.3314 18.6961 60.3019
7.41629 18.8075 60.2058
7.34401 18.7882 60.1423
7.25128 18.6549 60.5274
7.37333 18.736 59.7798
7.23846 18.7537 60.6295
7.28579 18.7249 60.1485
7.17257 18.6619 60.9313
7.29469 18.7141 59.6726
7.15521 18.588 60.4599
7.25987 18.4895 60.2759
7.27784 18.7764 60.6436
7.20311 18.3661 59.7885
7.16869 18.7548 60.7633
7.219 18.4717 60.9026
7.26119 18.653 60.5654
7.19052 18.7035 60.5772
7.11206 18.4748 60.9306
7.11871 18.4686 60.205
7.10897 18.4039 59.9677
7.0474 18.6137 60.5324
7.05408 18.3602 59.8824
6.97272 18.3884 60.9165
7.11792 18.2694 60.2056
7.02204 18.224 60.3167
7.08298 18.5094 60.516
7.01029 18.4006 60.5537
7.03718 18.6014 61.1474
6.95967 18.4153 61.2162
7.02741 18.4418 60.9802
7.03375 18.3894 60.5783
6.93079 18.1634 60.984
7.00502 18.5692 61.1761
7.05142 18.491 61.1462
7.00217 18.5356 60.8419
6.87825 18.1659 60.2761
6.8569 18.3507 62.0796
7.06431 20.2657 81.8896
9.27341 23.1084 63.7868
6.9298 18.6739 61.3365
6.87194 18.2788 60.9305
6.8378 18.2978 60.6549
6.7367 18.1021 60.2766
6.73064 18.0823 61.2326
6.87858 18.2214 60.8821
6.76379 18.0908 61.2103
6.87561 18.2547 60.1908
6.70779 18.0219 61.161
6.72252 18.1071 60.7169
6.74376 17.9862 60.8167
6.84357 18.3051 61.5819
6.80259 17.9972 61.2784
6.83809 18.254 61.3197
6.75606 17.8442 60.7606
6.74695 18.3399 61.8409
6.75281 18.2307 62.1705
6.76446 17.8748 60.6585
6.67109 17.9337 61.2743
6.69234 18.0305 61.2773
6.62988 17.9829 61.109
6.60171 17.8373 60.96
6.61022 17.7907 61.174
6.67119 18.0111 60.9799
6.58749 17.861 61.2123
6.61156 18.0187 60.8756
6.61454 17.7753 60.8393
6.6441 17.8689 61.3857
6.61968 18.0204 61.2828
6.54797 17.8372 61.3708
6.66476 17.7398 60.9091
6.51987 17.7811 61.3629
6.64287 17.9904 62.2402
6.76518 17.9457 61.4811
6.55335 17.9065 61.6283
6.46568 17.6889 61.1666
6.50641 17.7275 61.5305
6.6062 17.934 61.1669
6.47731 17.8267 61.751
6.53759 17.835 61.1847
6.51485 17.7339 61.6851
6.46173 17.3022 61.0985
6.57423 17.78 60.864
6.44492 17.4528 60.9706
6.44586 17.5784 60.517
6.36512 17.7928 62.0181
6.45432 17.7468 61.8539
6.43082 17.6271 61.3755
6.44559 17.7315 62.0642
6.49914 17.6702 61.4191
6.43821 17.8986 62.2901
6.42016 17.6487 61.2976
6.39024 17.6545 61.4976
6.39498 17.6152 61.6702
6.33883 17.5473 61.6172
6.40645 17.4328 61.2638
6.38327 17.6887 61.7036
6.3865 17.6244 61.9289
6.2993 17.5082 61.8168
6.39969 17.4954 61.7317
6.32366 17.4361 61.6644
6.34812 17.4024 61.5125
6.34541 17.4313 61.1476
6.27198 17.5033 61.6204
6.28688 17.2674 60.9238
6.29196 17.2306 60.8391
6.21667 17.2808 61.0877
6.23246 17.2408 61.3774
6.26445 17.4784 61.8676
6.23773 17.4147 62.1265
6.29061 17.6587 62.2428
6.2541 17.3196 61.7146
6.22317 17.2691 61.5289
6.23272 17.3937 61.4843
6.21629 17.3545 61.3946
6.20404 17.0614 61.1518
6.23075 17.4052 61.4892
6.159 17.2424 61.9784
6.22368 17.3402 61.8785
6.16032 17.3179 61.6067
6.22703 17.6126 63.4414
6.22592 17.5147 62.7961
6.21526 17.3969 62.2169
6.21434 17.3694 61.6849
6.12731 17.1554 62.6055
6.29283 17.759 63.7299
6.17605 17.551 62.731
6.19797 17.6035 63.4284
6.24339 17.5007 63.1708
6.28029 17.6388 63.0227
6.2264 17.8281 64.1457
6.22343 17.8224 64.23
6.29751 18.0929 65.6682
6.43833 18.7269 68.0685
6.47805 19.9699 86.6457
8.22112 22.0194 67.452
6.40077 18.627 66.4457
6.3935 17.9103 64.526
6.26141 17.9745 64.4483
6.19684 17.4019 63.0928
6.1752 17.5015 62.671
6.06551 17.4185 63.7777
6.12636 17.5004 62.9331
6.05614 17.3279 62.7876
6.11293 17.2559 62.2376
6.02564 17.34 62.5259
5.96764 16.9064 62.4636
6.03946 17.1924 62.823
6.07293 17.2008 62.2763
5.98005 16.9798 62.2128
6.02911 17.0022 61.6164
5.99504 17.0719 62.6402
5.93261 17.0602 62.6796
6.04731 17.1053 62.5313
5.95742 16.9038 61.9426
5.96588 16.9472 61.861
5.93483 17.1396 62.9848
5.96642 17.0313 62.6408
6.0072 16.9265 61.523
5.87689 16.8611 62.3198
5.90351 16.8865 61.5569
5.81015 16.8076 62.2662
5.90989 17.1015 62.5883
5.91157 16.8274 61.1169
5.81723 16.926 62.0968
5.77798 16.6804 62.0619
5.87948 16.7992 62.1898
5.86758 16.8139 61.3135
5.78566 16.8196 61.9531
5.77922 16.6822 62.2204
5.84264 16.8276 62.4746
5.84782 16.7847 61.8952
5.84953 16.6023 62.1734
5.82047 16.9715 62.7682
5.86061 16.8749 62.8507
5.89446 16.9178 62.6626
5.82101 16.831 62.3148
5.82215 16.8979 62.2867
5.82836 16.5308 61.839
5.79671 16.6251 61.3153
5.73143 16.4326 61.8596
5.83445 16.7571 62.2307
5.72311 16.6251 62.1341
5.7785 16.7531 62.513
5.8203 16.6922 61.7943
5.72671 16.799 62.7598
5.81225 16.6411 62.2094
5.79409 16.5982 60.954
5.68526 16.5014 61.9067
5.69535 16.3819 61.6194
5.68473 16.4308 61.9192
5.65942 16.5739 61.945
5.66509 16.6422 62.5704
5.6876 16.6533 62.3504
5.68764 16.4618 61.9507
5.69138 16.6372 61.6448
5.62389 16.3688 62.1099
5.62004 16.5096 61.0916
5.58138 16.5676 62.941
5.72127 16.713 62.3301
5.64676 16.4759 61.5787
5.6258 16.5361 63.3459
5.80042 16.6499 62.2466
5.66554 16.415 62.1601
5.66276 16.4473 62.2456
5.68384 16.4251 61.8723
5.64608 16.3903 62.0701
5.64249 16.5178 62.5223
5.66714 16.3622 61.9006
5.65822 16.365 61.5698
5.60096 16.4592 62.7322
5.65439 16.4435 61.2332
5.49802 16.4534 62.7258
5.56924 16.2169 61.3972
5.58313 16.3496 61.8731
5.59074 16.4088 61.4986
5.5503 16.1824 62.2218
5.58123 16.3793 61.3561
5.51362 16.214 61.8001
5.5693 16.1641 61.7407
5.48111 16.4687 62.995
5.62163 16.2345 60.9127
5.5019 16.1603 62.3246
5.61748 16.2598 62.4628
5.54907 16.2232 62.0615
5.50082 16.4764 62.0589
5.55875 16.3157 62.224
5.49861 16.1341 62.4412
5.59328 16.5862 62.041
5.48734 16.3658 62.0349
5.48927 18.1947 87.0238
7.3216 20.0172 63.0529
5.53958 16.4759 62.1992
5.52448 16.464 61.8943
5.49382 16.2327 61.8265
5.41468 16.1192 61.8637
5.48907 16.1057 61.4997
5.49103 16.2391 62.1898
5.45197 16.2602 61.8814
5.40707 15.9945 61.3758
5.38273 15.9579 61.0569
5.38449 15.972 61.9629
5.45502 16.2933 63.4303
5.56414 16.3526 61.6717
5.38897 15.9734 62.3498
5.45543 16.2929 61.7564
5.41903 16.3028 62.2218
5.43025 16.2065 61.9092
5.37706 15.9987 61.8804
5.48951 15.9823 61.8685
5.37299 16.1917 62.7818
5.45631 16.0127 61.8239
5.36496 15.9933 61.5504
5.40266 16.0654 61.884
5.36754 15.9857 61.4256
5.35651 15.7395 61.7043
5.44574 16.1749 61.8325
5.3766 16.0223 61.3739
5.40555 15.9522 62.438
5.45616 15.9865 62.0908
5.40691 16.0227 61.4932
5.30808 15.7698 61.5608
5.31333 16.0375 61.6556
5.27675 15.9321 62.208
5.4489 16.0795 61.3798
5.31474 15.9923 62.848
5.38434 15.973 62.283
5.38856 15.9941 62.1002
5.2959 16.0453 62.2749
5.36984 16.1091 62.6113
5.38139 16.106 62.4567
5.40974 15.9995 62.0193
5.34986 16.0345 62.3558
5.3551 16.1933 62.4032
5.33142 15.8654 61.9614
5.34782 16.2035 63.1149
5.40307 15.7189 61.2637
5.2898 15.9032 61.091
5.28764 16.0533 62.4106
5.31638 15.8408 61.9361
5.24092 15.7827 62.0136
5.30829 15.898 62.3565
5.27877 15.9371 61.3907
5.25402 15.7703 62.1632
5.33188 16.0082 61.6639
5.27177 15.8209 61.8435
5.26595 15.775 61.5864
5.24671 15.8512 62.1563
5.36509 15.9106 62.2317
5.32314 15.7461 62.0614
5.35797 15.9714 62.2239
5.31309 16.0663 63.0737
5.37343 15.8986 62.3045
5.31783 16.0211 62.1056
5.27659 15.8983 63.0672
5.34956 15.9441 62.3918
5.25701 16.2348 62.3149
5.2661 15.6976 62.1069
5.31021 15.7661 61.7861
5.20394 15.8084 62.0847
5.25708 15.7413 61.9099
5.2788 15.8319 61.9472
5.26304 15.9268 62.1387
5.2608 15.9157 61.3723
5.15455 15.7301 62.7066
5.32726 15.6964 61.889
5.28696 15.8269 61.9635
5.24076 16.0185 63.3657
5.36862 15.8647 62.8789
5.34136 15.9682 61.7889
5.15061 15.7895 62.8319
5.27482 15.7206 61.7894
5.21583 15.6938 61.4206
5.23369 15.6825 62.4008
5.27034 16.0004 62.2641
5.26691 15.8008 63.3394
5.3256 15.8994 62.3772
5.25615 16.0426 62.5884
5.22079 15.7404 62.3819
5.23868 15.66 61.352
5.12109 15.5304 61.9114
5.18065 15.9221 62.228
5.20384 15.5993 61.735
5.21185 15.716 61.8802
5.17281 15.9818 62.7865
5.29215 16.0556 62.0592
5.24598 17.9689 89.3491
6.94956 19.0285 63.3433
5.24806 16.3182 62.0846
5.21277 16.1245 62.9593
5.15805 15.9554 63.0279
5.30404 15.8746 62.6244
5.24309 15.8193 62.0674
5.18157 15.5548 61.5956
5.11785 15.6367 62.3004
5.1941 15.7226 61.3587
5.16193 15.6252 62.2872
5.21941 15.6514 61.8948
5.17624 15.7749 62.8252
5.22638 15.8804 62.8623
5.22073 15.9863 62.5274
5.20755 15.5458 62.1109
5.17319 15.7469 62.0135
5.106 15.6994 62.0953
5.14678 15.5556 62.6174
5.18955 15.7589 61.8549
5.12216 15.6302 62.1084
5.09671 15.5638 62.6097
5.11709 15.5499 62.3069
5.20121 15.7586 61.6038
5.11663 15.6532 62.3764
5.18088 15.7219 62.374
5.16016 15.832 62.4676
5.11444 15.5774 61.65
5.06754 15.7215 63.1949
5.19474 15.9531 63.4903
5.19779 15.8375 62.7789
5.18633 15.6691 62.1758
5.14225 15.6011 62.6917
5.15948 15.8828 62.0142
5.10246 15.56 61.9166
5.00448 15.5926 62.1692
5.12278 15.8242 62.6319
5.19536 15.5323 61.7722
5.11195 15.5817 62.5009
5.14768 15.7553 62.4002
5.10415 15.7299 62.904
5.13175 15.7859 62.4663
5.18429 15.7947 62.8134
5.22751 15.6041 62.5366
5.13555 15.7019 62.1618
5.10236 15.7339 62.5171
5.13785 15.7864 62.6504
5.1592 15.724 62.8455
5.12654 15.6815 62.8778
5.15754 15.7922 63.1613
5.18421 15.8363 62.3731
5.07005 15.6484 62.6977
5.13355 15.7538 63.189
5.19044 15.9097 62.1601
5.10621 15.5733 62.0262
5.09628 15.7097 62.0205
5.08479 15.5255 62.3724
5.09705 15.6194 61.9289
5.04008 15.5753 62.3232
5.13308 15.7562 62.7875
5.1694 15.777 62.3802
5.11468 15.6466 63.489
5.15722 15.606 62.4144
5.17559 15.5752 62.819
5.16758 15.7565 61.8863
5.12979 15.6049 62.6216
5.13771 15.3963 61.4282
5.03807 15.7278 62.9973
5.15712 15.6301 61.4809
5.06757 15.619 63.0329
5.15716 15.5978 62.1913
5.0919 15.782 62.9018
5.14064 15.8372 63.866
5.24939 15.92 62.8302
5.10938 15.713 63.3331
5.17895 15.6812 62.6144
5.13952 15.8137 63.0114
5.14438 15.7075 62.5257
5.09465 15.7872 62.5537
5.18744 15.7207 63.2855
5.18101 15.8481 62.8516
5.0861 15.7919 64.103
5.21926 15.8728 62.9093
5.09802 15.8247 62.8429
5.15323 15.7067 62.3541
5.14302 16.066 63.8586
5.20456 15.8475 63.3506
5.1962 15.7619 63.0744
5.09361 16.0955 63.5702
5.18235 16.016 63.7463
5.18658 15.708 64.6588
5.27544 16.295 64.8904
5.29036 16.3263 65.4172
5.27483 16.4945 66.2521
5.3353 16.7985 67.4313
5.43303 17.6845 68.8701
5.54883 19.3786 92.4949
7.02469 0 0