# pn-170911/RbIIA-35-RbIIR-1280-1959.psd
# Power spectrum* (dif=0,1,2) (really just |FT|^2)
# NOTE: only the first half! (symmetric)
# weeks: 1280-1959
# 1433 clock-days, 488 excluded
# PSD: 1441
31094.9 0.550774 0.0202687
3.00315e+06 69.6352 0.0129188
5.21002e+06 83.8569 0.0147988
1.38683e+06 33.6581 0.0128727
575519 21.872 0.0136588
344627 14.4754 0.0130869
199660 10.9498 0.0131856
134701 7.7401 0.0150467
106012 7.26484 0.0139545
82018.5 7.0175 0.0140384
61034.7 5.76797 0.0146324
53849.4 5.6096 0.0152894
43775.7 4.84633 0.0151997
35554.4 4.49765 0.0162532
32208.7 4.6325 0.0152514
26231.6 4.11273 0.015811
24328.2 5.0441 0.0192749
19854.7 3.07351 0.0167154
18292.3 3.2855 0.0168756
15879 3.16272 0.0175919
14576.1 3.33605 0.0184308
12906.4 3.1852 0.0184154
11781.4 2.73826 0.0187799
10725.1 2.68773 0.0178643
10261.8 3.10059 0.0203121
8938.89 2.63511 0.0204501
8600.39 2.95863 0.0210361
7979.39 2.81988 0.0226268
7390.64 2.83264 0.0222288
6751.09 2.76423 0.0227106
6312.83 2.4506 0.022525
5883.53 2.4444 0.0237648
5727.58 2.83979 0.0258009
5177.02 2.67467 0.0257088
4933.43 2.66214 0.0263345
4556.39 2.59548 0.0265982
4418.58 2.68687 0.029681
4186.49 2.77201 0.0303886
4035.95 2.89218 0.0316529
3847.31 2.72142 0.0306779
3680.29 3.16526 0.0359765
3460.31 2.92171 0.0348481
3238.12 2.83651 0.0363084
3081.47 2.72197 0.0359444
2966.1 3.05252 0.0390705
2883.78 2.95569 0.0423681
2724.24 2.99367 0.0419896
2621.87 2.94135 0.0429793
2579.71 3.48392 0.049639
2492.96 3.22044 0.0491232
2272.76 3.11767 0.0492678
2262.92 3.45788 0.0552934
2162.91 3.26376 0.0525137
2107.63 3.72711 0.0626522
1975.41 3.5275 0.061577
1908.49 3.4014 0.0613162
1840.5 3.38822 0.0619124
1814.47 3.47611 0.0676716
1723.45 3.53639 0.0678115
1692.36 3.79741 0.0760805
1624.24 3.73177 0.0767619
1639.96 3.82408 0.0801417
1543.14 3.83584 0.0813048
1508.66 3.95717 0.0862093
1466.91 3.92467 0.0885646
1427.75 4.06245 0.0958239
1373.83 3.80669 0.0909095
1322.18 3.98104 0.0956345
1344.77 4.30819 0.105312
1262.64 4.51939 0.114452
1241.7 4.2034 0.114436
1225.91 4.64903 0.122748
1160.01 4.47731 0.12266
1166.21 4.51138 0.124524
1120.11 4.51355 0.131567
1103.06 4.69846 0.140419
1078.53 4.71183 0.141107
1053.96 4.81427 0.147211
1002.66 4.78591 0.153873
1003.26 4.91661 0.155041
965.485 5.38642 0.17761
938.512 5.3015 0.176799
925.354 5.25767 0.17581
931.811 5.38888 0.194212
886.965 5.25101 0.193182
874.252 5.35975 0.195264
840.907 5.11183 0.192077
835.389 5.38077 0.207184
823.97 5.45936 0.214044
807.722 5.81705 0.235735
750.135 5.84947 0.239453
758.582 5.92349 0.245998
742.044 5.98125 0.252646
737.234 5.8078 0.249365
749.317 6.16899 0.274701
703.406 6.29663 0.285718
707.357 6.66812 0.302808
677.698 6.21768 0.290019
687.096 6.45391 0.313128
663.061 6.50786 0.313491
659.216 6.55832 0.328535
630.53 6.53365 0.331029
637.215 6.74795 0.344813
608.683 6.53796 0.342662
606.422 6.80484 0.358165
605.377 7.04684 0.381035
589.406 6.91983 0.380079
598.607 7.19042 0.406346
574.242 7.18152 0.407974
555.835 7.24899 0.424047
539.141 7.23432 0.425379
550.754 7.20251 0.4347
535.447 7.69268 0.470249
522.471 7.30883 0.451575
529.448 7.73804 0.492156
522.553 7.71535 0.497355
505.725 7.76532 0.51386
495.473 8.32355 0.550978
487.353 8.10602 0.544749
501.03 8.39848 0.576298
483.9 7.60165 0.524875
466.731 8.22744 0.586005
466.029 8.5499 0.616097
449.43 8.52499 0.626079
468.705 8.92672 0.667152
445.97 8.99725 0.684613
438.247 8.97458 0.684197
429.221 8.61248 0.665609
437.431 9.19652 0.722935
417.966 9.41581 0.744122
420.742 8.81493 0.724703
416.087 9.35662 0.767655
404.805 9.80085 0.815191
405.274 9.48578 0.810106
403.993 9.49641 0.821384
397.723 9.63599 0.842695
381.177 9.694 0.862724
382.958 9.3857 0.844267
380.327 9.97376 0.91543
382.658 10.0639 0.935469
368.182 9.94018 0.93932
371.218 10.223 0.973754
351.531 10.124 0.965363
358.984 10.211 1.00791
368.899 10.4674 1.03448
358.615 10.6626 1.06845
343.798 10.0491 1.02063
350.576 10.2918 1.07902
331.516 10.8077 1.12758
336.744 10.6522 1.12077
325.604 11.1294 1.19367
334.77 11.279 1.22864
316.431 11.1897 1.22803
327.478 11.2098 1.26284
317.765 11.3398 1.28212
303.472 11.5943 1.32292
303.404 11.3883 1.32196
305.358 11.0938 1.31263
302.037 11.3279 1.33038
310.089 11.8494 1.42591
296.974 11.4961 1.41315
288.524 10.828 1.32532
292.928 11.2319 1.40614
293.641 11.7388 1.47758
283.822 11.8129 1.51772
281.694 11.8093 1.52694
284.021 12.389 1.6301
293.18 12.2998 1.62447
271.516 12.1804 1.62742
280.845 12.0975 1.64978
267.768 12.2623 1.6659
267.538 11.9014 1.67085
261.628 12.5542 1.75482
262.599 12.48 1.77088
262.819 12.5622 1.81391
250.654 11.8326 1.71573
259.794 13.0146 1.9089
252.968 12.8411 1.90815
243.859 12.5809 1.89876
246.707 12.9019 1.94142
238.288 12.9153 1.99371
245.706 12.8823 1.97869
241.587 13.0626 2.05766
236.945 13.0953 2.07545
234.101 12.633 2.02362
225.228 12.3017 1.99375
230.05 13.3506 2.18966
229.621 13.7503 2.27404
222.024 13.7353 2.32699
228.451 13.944 2.34089
234.342 14.0603 2.40176
221.83 13.6305 2.35359
217.524 13.662 2.39943
227.678 14.5293 2.52846
220.339 14.5742 2.59164
219.33 14.5942 2.60943
220.366 14.6763 2.65185
208.54 14.1987 2.58364
205.117 14.2294 2.64444
212.257 14.5496 2.70814
213.946 14.97 2.83251
205.937 14.461 2.7425
206.738 15.7186 3.05718
199.521 14.9891 2.9003
202.561 14.546 2.84947
198.546 15.4452 3.03704
201.583 15.4323 3.12734
198.18 15.3001 3.07262
198.264 14.9757 3.0306
200.381 15.628 3.19715
186.761 14.5995 3.0143
191.049 15.1216 3.14452
193.215 15.1286 3.19737
185.795 16.0415 3.40814
186.539 16.2278 3.51792
191.359 16.4118 3.55403
182.016 15.0231 3.27096
176.464 15.5581 3.47208
178.682 15.6053 3.49847
182.481 15.6147 3.48429
174.918 16.0853 3.67343
177.71 16.1539 3.70745
174.552 16.3133 3.76347
173.653 15.3038 3.60168
172.617 16.1309 3.79593
170.992 15.9702 3.76653
173.968 16.0548 3.86779
167.631 16.541 3.96833
165.776 16.1575 3.9188
166.228 16.4629 4.04798
167.746 16.661 4.11105
165.371 16.8096 4.18935
164.669 16.997 4.27256
161.104 16.2437 4.11756
154.678 16.828 4.33328
158.97 16.8505 4.33576
162.83 17.3227 4.51298
157.975 16.7498 4.41338
152.393 16.9967 4.48558
158.339 18.0034 4.76866
157.742 17.2297 4.61401
154.639 17.007 4.62539
149.607 16.4979 4.56326
150.472 16.8151 4.58641
152.309 17.172 4.73411
150.022 17.9226 5.0766
148.498 17.8543 5.03818
143.891 17.8148 5.07888
141.943 16.9808 4.86956
149.122 17.8719 5.18275
140.421 17.3854 5.03485
145.102 17.9285 5.31777
145.122 17.5448 5.19138
144.269 18.325 5.41032
139.7 17.8197 5.35943
149.534 18.9302 5.67856
137.164 18.2773 5.63817
141.492 18.9824 5.81348
132.398 17.5868 5.38159
140.243 18.5569 5.78596
133.152 17.648 5.61349
139.97 18.7525 5.95021
137.009 18.943 6.0391
130.902 18.2723 5.82505
136.501 19.1932 6.21368
130.936 18.3085 6.00672
126.005 17.4991 5.73223
127.997 18.9004 6.27077
124.641 18.2745 6.10897
127.115 17.5154 5.878
126.178 17.9289 6.06812
132.374 19.1524 6.4526
127.507 19.5001 6.74055
124.656 19.1602 6.58126
124.982 19.7135 6.89874
120.662 18.205 6.37829
125.631 18.3014 6.51633
127.752 19.1532 6.71415
125.257 19.4467 7.06321
117.991 18.8484 6.7508
124.051 18.8456 6.81446
118.976 19.088 6.93071
121.143 19.0613 7.09279
118.179 19.7521 7.23075
118.046 19.1762 7.24083
115.38 18.9974 7.11926
117.441 19.1851 7.2215
115.414 20.035 7.66204
114.653 19.5268 7.38657
114.679 19.6628 7.5815
116.145 19.2639 7.40143
116.875 19.7686 7.76114
113.835 20.0805 7.83831
113.964 20.2696 7.91128
109.864 19.8503 8.02643
111.284 19.248 7.81797
110.783 19.7809 7.91733
112.688 20.0382 8.06437
104.769 19.5698 8.02463
104.877 19.8526 8.2411
110.925 20.2108 8.33881
104.972 19.9441 8.35488
105.216 19.0193 8.04993
110.035 20.7993 8.7143
108.495 20.4965 8.68716
103.927 20.3241 8.67958
100.018 19.4743 8.329
101.781 19.6047 8.45127
99.299 19.1765 8.31536
100.864 20.5831 9.09236
102.357 19.7275 8.64573
101.918 20.3282 9.06171
103.705 19.9955 8.85549
100.908 19.6567 8.9489
101.217 20.0773 9.05864
97.0639 19.1315 8.76089
100.24 19.9627 9.13979
95.2863 19.9931 8.99599
96.5868 19.9504 9.26935
95.0587 20.2517 9.4195
94.2938 19.5758 9.27933
94.7966 20.123 9.40651
96.0315 19.4382 9.23359
89.887 19.8953 9.57652
90.2813 19.0341 9.20794
95.2172 20.759 9.81448
90.9222 20.4236 9.98457
92.7539 20.5419 10.1732
92.7926 21.1551 10.3481
86.1931 19.8797 9.9138
89.2358 19.6694 9.73508
87.7268 19.1801 9.62937
88.6375 19.3718 9.70875
89.2846 20.1952 10.254
84.3105 19.5432 9.90887
84.2851 19.4121 10.1273
87.4396 20.2465 10.3405
89.2715 20.0339 10.2736
86.3908 20.0518 10.2367
84.8607 19.9067 10.5951
88.1458 21.3934 11.1413
81.9228 19.3087 10.1446
85.7057 21.5468 11.4446
86.6061 20.9316 11.2154
82.899 19.4984 10.72
83.0818 21.0424 11.287
80.761 21.3157 11.5917
86.2551 20.9629 11.4835
81.8765 20.4063 11.3154
83.4119 21.2958 11.8436
81.3764 20.4269 11.421
83.4659 21.7545 12.1291
78.9729 20.7527 11.7224
80.3083 21.6254 12.0801
80.7075 21.1104 11.9437
78.8991 20.5686 12.0022
80.711 20.9241 11.8118
79.139 21.849 12.7076
78.729 20.4179 11.8813
78.0436 21.3133 12.3813
78.8646 20.9079 12.2214
77.8173 20.8227 12.2912
74.4951 20.672 12.2615
78.1933 21.182 12.5606
75.2116 21.8647 13.0376
77.1379 20.8828 12.5588
74.8296 20.2215 12.2927
72.6253 21.4519 13.0312
74.6828 21.5949 13.1774
75.2215 21.1529 12.9323
72.0696 20.3899 12.6026
74.0451 21.7542 13.723
74.0642 21.4073 13.2184
71.9366 21.286 13.3883
71.9991 20.9766 13.164
72.1949 21.5909 13.8112
73.2847 21.2837 13.4401
70.5726 21.4046 13.8452
71.0206 20.3083 13.1139
71.5077 22.058 14.0667
69.5832 21.7401 14.3061
70.2764 22.1165 14.2765
70.8318 20.598 13.3168
67.8637 21.4294 14.0158
68.7923 21.0039 14.0142
68.904 21.5822 14.4129
71.0231 21.7685 14.7921
70.6023 22.3378 14.8661
70.4277 22.4944 15.3164
69.0003 20.9023 14.1854
70.7318 22.7667 15.6818
69.3499 22.4874 15.2719
69.9739 21.2759 14.8536
68.4591 21.3465 14.6065
63.5727 21.4462 15.0022
64.6159 21.2346 14.5702
63.4889 21.212 14.8304
63.4728 20.7616 14.7608
65.9043 21.4063 15.196
63.9629 21.0028 14.8914
65.0949 21.8418 15.5226
65.5995 22.3118 16.182
62.8522 20.9487 14.9588
63.1832 21.2132 15.4307
63.8704 20.7175 15.1523
61.6831 20.6824 15.3996
63.4836 20.6113 14.9586
63.9116 20.7756 15.2796
62.5098 21.4926 16.1331
61.4784 22.6236 16.6057
61.1735 20.9505 15.6793
61.2204 20.709 15.4377
63.8666 21.3948 16.4472
61.0818 21.2419 15.9455
61.7196 20.8187 16.1344
57.1048 19.8933 15.436
60.1674 20.0737 15.4222
58.9974 21.0436 16.0909
57.7021 20.3658 15.9011
57.0845 20.6653 16.2178
60.9269 22.0887 17.192
57.5059 20.9143 16.484
56.7017 22.0326 17.2219
57.9101 21.8413 17.3531
57.3017 21.3384 17.0697
56.768 21.1693 16.8913
57.0537 21.2039 17.0954
56.7518 20.9588 16.8991
57.2245 21.8388 17.6544
57.1392 21.3984 17.4363
56.0308 20.8856 17.1006
55.3884 21.4409 17.3581
55.5656 20.442 17.0102
52.3715 19.5796 16.3697
54.8879 21.0312 17.1145
53.2632 19.9957 16.8276
53.2716 20.9606 17.4821
53.8876 20.302 17.2108
55.3658 20.9302 17.8143
52.1372 20.296 17.2174
55.3957 20.9781 17.8998
52.9914 20.9374 18.0184
53.8241 20.5751 17.8465
50.6755 19.9904 17.1519
51.7026 20.4104 17.862
51.6108 21.0875 18.2188
49.8747 20.4004 17.7222
50.6953 20.2902 17.9508
50.2284 20.6408 18.4799
49.5635 20.2889 18.2252
51.4529 21.0059 18.317
49.6962 20.5423 18.4487
48.9521 20.1782 18.2183
50.9928 21.1787 19.011
50.5715 20.4656 18.6385
49.4799 20.6202 18.5184
48.0459 19.7855 18.0219
49.1437 20.3426 18.499
49.6108 21.3589 19.6452
48.5364 20.7326 18.9523
49.2465 20.7711 19.2815
50.0525 21.5579 20.0766
48.814 20.5774 19.4093
49.3369 21.2782 20.0118
48.8178 20.7529 19.8129
47.3164 20.4619 19.1597
47.5141 21.4445 20.6829
47.3825 21.6714 20.819
46.1958 21.5968 20.7237
48.3949 21.7675 20.6876
47.1998 20.4274 19.2962
45.7526 19.6688 19.3626
46.4322 20.4008 19.4665
46.9355 20.4762 20.2403
45.7866 20.0713 19.5331
45.1043 20.0623 19.6944
46.9538 20.8752 20.145
43.3378 20.2655 20.0381
44.6965 20.6875 20.5156
46.3262 20.3486 19.9906
43.5647 20.5795 20.8932
44.4449 19.3335 19.4853
45.7809 21.3289 21.4126
42.4733 20.6086 20.6539
43.113 20.9931 21.732
42.9111 19.9945 20.5254
43.6637 19.5536 20.148
43.011 20.3142 20.7747
43.3208 20.8468 21.6349
42.1809 20.1614 20.3988
43.8494 20.1721 21.0306
43.2034 19.8054 20.664
42.4897 21.0113 22.0958
43.0953 19.8719 20.4917
41.4158 19.9518 20.8644
41.1175 19.8238 21.6993
42.2825 19.2962 20.5278
39.6172 19.645 21.3251
42.0711 19.823 20.869
40.4097 20.2599 21.5497
40.8888 19.5998 21.2102
40.4521 20.8612 22.336
42.2051 19.9699 21.3489
40.244 19.5788 21.428
41.0144 20.3275 22.0263
40.0551 20.6322 22.4074
41.5492 20.7432 22.806
40.5985 20.7498 22.7018
39.6481 20.0242 22.5297
40.5053 21.1212 23.5297
39.7991 19.7091 22.0876
37.4681 19.3778 21.4734
38.9645 19.5131 22.0777
40.2012 21.1791 23.2175
40.3784 20.1181 22.9773
40.23 21.1287 24.2445
37.2917 18.4621 21.1378
38.7357 20.7778 23.6999
38.2795 19.4866 22.5612
38.1574 19.9316 22.5184
36.7315 19.0041 22.148
36.8477 19.7365 23.155
37.7052 20.1554 23.0145
37.3932 18.9523 22.5952
37.4204 19.7148 23.1749
37.0366 19.5043 22.5981
37.2582 19.8119 23.4975
38.0748 19.6588 23.2032
38.3167 20.1106 23.7808
35.8319 19.3624 22.8096
35.8458 19.1095 22.8983
37.0809 20.049 24.5998
38.0593 20.9085 25.1661
38.2872 20.4513 24.1989
35.4221 19.9103 24.2192
37.7321 20.3431 25.0169
37.9375 20.5498 25.2986
36.9665 20.241 24.7801
35.8228 19.4735 24.1921
36.6302 20.4079 24.751
35.2995 20.0511 24.7462
35.6359 20.1151 24.9408
36.3327 19.7082 24.2993
36.0062 19.7003 24.7391
34.7636 19.5031 24.6459
35.1489 19.7823 24.7358
35.6554 20.3168 25.6424
35.2532 19.8084 24.8798
34.2345 19.9485 25.5631
35.6898 19.4447 24.9242
35.7957 19.5474 24.53
34.3817 19.3842 24.3392
35.0463 19.7231 25.3042
34.6251 19.1987 24.7883
33.6285 20.4367 26.4409
32.9862 18.6273 24.2954
32.7465 18.5315 23.8836
32.226 19.2642 25.3545
34.3339 20.1931 26.1559
32.6732 19.3825 25.4997
32.1645 18.71 25.1534
34.1223 20.5323 26.9007
32.3173 19.3253 26.1722
34.807 20.1672 26.2263
32.952 20.0251 26.5277
33.0007 19.8188 26.3144
33.0697 20.0438 26.7785
32.0804 20.0597 27.3873
32.216 19.3006 25.4107
32.0718 18.6346 25.7099
33.6407 19.6837 26.3005
32.0523 18.4355 26.0622
32.7144 19.907 26.6193
31.5662 18.9579 25.9993
31.674 20.051 27.3694
30.9492 19.4143 27.14
32.5401 20.1686 27.9921
32.3279 20.918 28.503
30.5812 19.1492 26.7124
30.324 19.4026 26.901
30.2957 18.9885 27.3468
32.19 20.012 27.9651
31.3382 19.3827 27.8037
32.3498 18.8158 25.8255
30.2354 18.2499 25.6725
29.7107 19.4352 27.6425
31.3229 18.8521 26.812
31.106 19.7482 27.9913
31.1684 19.9876 28.4041
30.1732 19.496 27.8069
30.241 18.95 27.898
30.1358 18.5709 26.7615
30.082 19.1154 27.5812
29.8861 19.6972 28.8119
28.7195 18.0413 26.5449
29.2393 18.5036 26.9013
29.936 19.0664 28.0296
29.172 19.1293 27.5766
29.1342 18.8264 27.8725
28.4654 18.8268 28.1461
28.711 18.4131 27.3884
28.5444 17.314 26.3885
30.2083 19.3411 28.0489
28.0699 18.686 27.9661
30.0122 19.016 28.4068
28.6156 18.6198 28.0623
28.5725 18.8074 28.2225
27.9368 18.4315 27.7788
27.8742 18.2044 28.0432
28.1869 18.4925 27.8884
27.8093 17.1801 26.0216
28.7478 18.7563 28.2772
28.287 18.1754 27.6829
28.0479 18.0973 28.1202
26.7131 17.6202 27.0511
26.9071 18.3759 28.7627
28.1833 17.9619 27.9417
27.4397 18.1387 28.2135
27.6052 18.2945 28.3224
27.8696 18.4349 28.799
26.3125 18.1585 28.4744
26.8314 17.6621 27.5145
26.4613 18.8245 29.1328
26.1627 18.8815 30.0355
27.459 18.2399 29.345
27.1798 18.3787 28.7946
27.6506 18.6414 29.7174
26.8606 18.4698 29.5324
26.4009 18.1183 29.7412
26.98 18.4284 29.1221
26.9588 17.7316 28.723
25.243 17.357 29.007
27.212 18.4598 29.65
26.1365 17.6487 28.0606
25.9104 17.8076 28.8836
25.0016 17.1623 27.9944
26.9131 18.6576 30.5576
26.4868 18.5854 29.9685
26.266 17.6776 29.5991
25.1087 17.9695 30.0771
25.2252 18.1418 29.1106
25.2964 17.951 30.0624
25.4787 18.0405 30.3355
26.2495 18.7171 30.278
25.5733 18.0912 30.879
25.3398 17.7809 30.2199
24.9955 18.3642 30.7424
25.3829 18.0835 30.0605
24.3164 18.3469 30.7584
24.49 17.897 31.012
25.6966 18.2981 30.1676
24.7805 18.9315 32.1422
24.6513 18.2274 31.3304
24.5062 18.196 31.0129
24.6042 18.6218 31.7213
24.8806 18.4557 32.093
24.2349 17.9104 30.9747
24.7829 18.1609 30.9019
24.5346 18.1714 31.5855
24.921 18.6184 32.528
24.2938 18.0501 31.3529
24.2891 17.8344 29.949
23.7803 17.1611 30.4626
23.8002 17.3658 30.3418
23.3058 17.6486 31.5296
24.04 17.3752 31.0535
24.1677 18.5754 32.6744
23.9647 18.1272 31.6352
23.5244 18.0313 31.854
24.0391 18.8636 33.8997
23.9305 17.4676 31.0292
23.9985 17.7042 31.0499
23.2451 17.1877 30.7432
23.1112 18.1201 32.9308
23.8251 18.3554 33.2489
24.5953 17.9972 32.1544
23.9695 18.8373 33.6721
22.8922 17.2405 31.8983
23.0911 17.918 32.6585
23.0169 17.6115 32.7086
23.4558 17.7422 32.6668
23.1516 17.6902 32.3737
23.603 18.2186 32.7905
22.4062 17.3333 32.0511
23.5675 18.0177 32.9841
23.2098 17.8983 32.9078
22.5278 17.8356 33.9056
23.5856 17.6712 32.7297
22.722 17.8667 33.5863
23.1437 18.1552 33.3747
22.6971 17.2561 31.5128
21.8467 17.761 34.4755
22.3473 18.0194 33.6102
21.7764 17.1628 32.7799
22.3667 18.4623 34.3984
22.5429 17.3261 32.3865
21.6278 17.7249 33.8873
21.4627 17.4479 34.2916
22.6481 17.9024 33.5648
21.1478 17.0365 33.0359
22.3793 17.3444 33.1919
22 18.0126 33.3
22.162 16.9619 32.0073
21.8637 17.7926 34.508
21.5715 17.9445 35.3266
21.9437 18.0557 34.6896
20.7586 17.5237 33.7666
20.9373 17.5792 33.8654
20.9462 16.7624 32.6225
21.1689 17.3784 34.2479
21.2773 16.9776 32.9445
21.1147 16.8771 33.6542
21.5377 17.986 34.6085
21.8604 17.4264 33.7835
20.994 16.2829 32.5715
21.0571 16.7549 33.8768
20.2585 16.7396 33.5068
20.0545 16.5803 33.3433
21.1601 17.5398 34.6069
21.0249 17.6655 35.093
20.8655 16.8533 32.9501
19.8299 16.9558 34.5518
20.9737 16.9775 34.2174
20.7889 17.3807 34.1068
20.1529 16.3749 33.1674
20.2392 17.2101 34.9593
19.9673 17.4859 35.0071
20.0587 17.9301 35.5992
20.4408 16.9365 35.0955
20.3223 16.7796 34.3641
20.7806 17.8227 36.9314
20.0306 17.2042 34.273
19.6582 17.025 35.243
19.8126 16.2551 33.562
19.4046 16.2313 33.8124
20.1038 17.1851 35.5817
20.9968 17.9836 36.808
19.3961 16.1966 33.7412
19.5641 16.7908 35.6688
19.7331 17.4821 35.7157
19.4617 16.1378 34.2573
19.5766 16.4762 33.8354
19.4065 16.1541 33.569
19.4935 16.4988 35.482
18.9316 16.1713 33.3184
19.166 15.6175 33.4697
19.414 17.6316 37.3469
20.1973 17.4081 35.3087
19.61 17.1526 37.7385
19.4052 16.4759 34.9642
18.9726 17.3157 37.1724
19.4941 16.3676 34.4109
19.2544 16.1481 34.8622
19.293 16.1751 34.8426
18.5515 16.3147 35.4125
18.9606 16.9429 34.7226
18.8454 15.8681 34.3674
18.394 17.2613 37.1263
18.8121 15.9202 34.3346
18.243 15.8123 34.8958
19.4649 15.9992 35.0182
19.3945 16.044 34.1447
17.8258 16.7463 37.068
18.6882 15.6431 34.204
19.5667 16.2789 35.568
18.5846 16.4507 36.9531
18.0366 16.4677 36.4814
18.3873 16.4791 35.6128
18.5351 16.8358 36.8216
17.9312 16.7075 36.6099
18.9473 16.6316 37.3234
18.7893 16.5518 36.648
17.613 16.9851 38.4377
18.4388 16.4813 36.4811
17.7527 16.4299 36.4697
17.8681 14.9845 33.6902
17.6046 15.987 35.9766
17.9968 16.0411 35.2242
18.081 15.6148 34.819
17.7422 15.6071 34.7799
17.6164 16.0924 35.6958
18.3804 16.269 37.1926
17.7933 15.981 37.8039
18.1537 16.0829 36.2038
18.1772 15.8317 36.9293
17.5137 15.928 36.2582
17.6312 16.8541 37.8071
17.4062 15.3486 35.9792
17.7958 16.3081 38.0537
17.1737 16.2983 36.6006
17.7025 15.5253 35.7179
17.6273 15.8168 36.6512
16.7557 14.667 34.2638
17.3456 15.1152 34.608
17.6361 15.0316 34.7899
17.4097 15.1073 35.9866
17.2365 15.8675 37.0034
17.6065 15.7447 36.1045
17.2032 15.6455 36.664
16.8018 14.8649 35.0027
16.2666 14.8555 34.9823
16.7331 15.0121 36.162
16.7395 15.6749 35.6079
16.9085 15.071 35.5
17.5999 15.2051 35.8666
17.3029 15.8245 38.5473
17.402 15.4047 34.9531
16.8551 15.2178 35.8718
16.3533 15.0374 37.5663
16.7244 15.5112 36.7174
16.5547 14.7198 35.1166
17.0026 16.1021 36.9784
16.3255 14.7139 35.5351
16.4911 15.2755 37.9778
16.7557 15.2729 36.2762
16.3324 14.9761 36.8083
16.8304 14.6535 34.6615
16.299 15.2245 38.3926
16.5323 15.7071 37.3883
15.2789 14.9646 37.0312
16.727 15.0714 36.6778
16.371 14.9934 36.3727
16.0056 15.1605 38.0446
16.0302 15.5038 37.4082
16.1447 14.756 36.5089
15.8613 14.9832 35.7059
15.5573 15.2733 37.2066
16.5282 15.408 37.8293
16.2657 14.9317 37.9025
15.9311 14.6061 35.9762
16.1528 16.0248 39.6949
16.11 15.1837 36.5847
15.9855 15.0296 37.3662
16.039 15.2953 39.5952
16.5425 16.0697 39.1776
16.0515 15.403 39.359
16.0488 15.7986 38.4613
16.3879 14.5735 36.0728
15.7302 14.4048 36.4408
15.4057 14.6822 36.7598
15.475 15.3012 38.856
15.1051 14.4307 36.6616
15.4485 15.3057 38.5532
15.8316 14.931 37.4116
14.9647 14.4928 37.5319
15.8828 15.2525 39.2549
15.7513 15.957 40.1449
15.7683 15.1864 38.902
15.2957 14.798 38.1383
15.8977 15.1966 38.3498
15.5943 14.831 38.1711
15.4198 15.028 38.5966
15.4531 14.6058 37.8934
15.8197 14.9857 38.8569
15.9277 15.7111 38.4072
15.0563 14.7192 39.0409
14.6404 15.0375 38.7719
14.8593 14.6036 38.3847
14.9578 14.5746 37.1372
14.7467 14.4208 38.0178
15.0129 15.4222 38.0524
14.9977 14.7043 39.4054
15.3613 15.1875 39.574
15.6542 14.998 39.1461
15.3162 15.2957 39.7572
15.4089 15.3377 40.1691
15.0221 14.9894 39.7028
15.1596 14.6917 38.5687
15.0939 15.5228 39.9942
15.1511 15.3617 39.4516
14.97 14.6274 39.7315
15.2318 14.6221 38.8688
14.8237 15.44 40.0897
15.0791 15.6786 40.1829
14.744 14.0635 38.048
14.1613 14.4382 39.0487
14.5957 13.9807 37.8183
15.0712 15.0813 41.4365
14.688 14.4769 36.8894
14.3823 14.9827 40.8637
14.4135 14.3261 40.1329
14.3542 14.8635 39.7604
14.6215 14.1737 38.393
14.6168 14.8415 40.7418
14.3516 14.8417 40.3331
14.9461 14.4362 38.855
13.8699 15.224 39.3573
14.4659 14.3591 39.9751
14.349 14.4357 39.7515
14.5828 14.6795 39.3787
14.2038 14.3796 38.3931
14.124 13.7556 37.9598
13.4318 13.9005 39.0254
14.0645 14.2291 39.967
14.268 14.5294 38.6982
14.0916 13.8818 38.8026
14.0953 14.2512 38.9962
13.9576 13.8571 37.0034
13.849 14.2416 39.0526
13.9908 13.8967 39.1884
14.2342 15.2809 39.9351
14.0359 14.1227 39.9029
13.9617 14.3778 41.2332
14.4434 14.6398 39.8387
13.7864 13.7284 38.0846
13.9678 14.3503 39.8102
14.1138 14.0987 39.1836
13.7203 14.2162 40.0222
14.2187 13.9352 38.5583
13.2766 13.9086 40.1022
13.7753 13.8983 39.1007
13.7133 13.9509 37.3406
13.5647 14.1619 39.8667
13.4682 14.1585 38.9395
13.1719 13.7611 38.3284
13.662 13.6951 39.7457
13.5582 14.0258 38.4559
12.8106 13.4121 38.7447
13.6762 13.4397 38.5664
13.7947 13.9604 39.5789
13.934 14.1071 40.0933
13.6471 13.8146 39.9301
13.307 14.7329 41.307
13.5833 13.9387 40.2465
13.2658 15.004 41.61
13.5185 13.8926 40.6351
13.1228 13.6604 39.7056
13.3341 13.4804 38.9334
12.9751 13.805 40.0856
13.3809 13.3613 37.8933
12.8349 13.637 40.3686
12.9773 13.341 39.2631
13.2192 13.8614 39.7976
13.0625 13.9486 41.3265
13.4912 13.7699 39.1731
13.2081 13.7319 39.5448
12.9612 13.8709 40.9038
13.0238 13.1027 38.13
13.1424 14.0041 40.5884
12.7203 13.9745 40.985
13.0455 13.659 40.1436
13.4416 13.9797 41.1378
12.9139 13.2332 38.8827
13.1695 13.7715 39.9876
13.1396 12.9421 38.0695
13.1275 14.0531 40.3221
12.8006 12.976 38.2024
12.4641 13.4985 40.3913
12.7538 13.2376 39.9851
13.0216 13.4454 40.1501
13.4198 13.6693 38.8533
12.8906 13.1675 38.6618
12.8259 14.0612 42.1149
12.591 13.4829 39.7777
12.7704 13.8478 41.3435
12.8638 13.5568 40.2472
12.3501 13.423 41.041
12.6502 13.809 40.3816
12.5216 13.4337 41.0187
12.7846 13.2011 38.2427
12.4679 12.8752 39.4681
12.8243 13.2706 40.3815
12.4608 13.642 39.9246
12.2302 13.237 40.1874
12.0112 13.369 40.8079
13.1251 13.8276 40.8045
12.2566 13.8262 41.8224
12.6855 13.1153 39.7583
12.478 13.3133 39.7411
12.4287 14.1909 42.6044
12.4255 12.8045 39.9532
12.4654 14.048 41.6875
12.208 13.9278 42.9417
12.634 12.8282 39.2227
12.3299 13.6665 42.2265
12.53 12.968 39.3749
12.4982 12.5085 36.2006
11.8826 12.8418 40.5851
12.2431 13.004 40.2795
11.8864 12.9248 40.381
12.6043 13.1084 38.8516
12.5148 13.1557 40.3411
12.426 13.1298 39.484
11.7289 12.9332 39.9524
12.1711 12.595 39.0596
11.9579 12.5748 38.673
12.4273 12.6943 38.2429
11.7066 12.785 40.0388
11.8781 12.9488 39.4783
12.0445 12.5296 39.7651
12.2027 13.1874 40.2655
11.7421 12.5372 40.442
11.921 13.1119 40.3369
12.0806 12.8132 41.1827
11.9318 12.9244 39.9891
12.0597 12.9427 41.3013
12.1604 13.1529 39.2473
11.6165 13.0849 41.3412
12.0002 12.9462 41.2657
12.1756 12.5798 39.3877
11.3825 12.9028 41.2577
12.1983 13.004 40.1564
12.256 12.2542 40.0342
11.9838 13.2868 44.0444
11.8749 12.7468 38.8169
11.8432 12.8452 39.4947
11.8082 12.5579 41.2473
11.8792 13.537 41.8951
11.5762 13.0425 41.1599
11.3704 12.9995 41.4587
12.034 12.8502 39.4455
11.2803 12.5784 42.2778
11.7162 12.8547 39.939
11.7883 13.0076 42.4106
11.5359 12.9051 40.52
11.3156 12.733 40.1838
11.3946 12.9398 39.953
11.467 11.9353 40.4211
11.6359 13.0614 41.0791
11.6842 11.9016 39.5404
11.3631 12.9444 41.5847
11.7737 12.5852 39.7987
11.4656 12.9026 41.7237
11.7027 12.6109 40.3404
11.0467 12.5116 40.7328
11.7792 12.9123 41.9651
11.3904 13.7265 42.9746
11.4438 12.2253 40.364
11.6753 12.7091 40.476
11.6928 12.9863 41.3888
11.5807 12.635 40.455
11.0315 12.3672 41.8804
11.7642 12.7112 40.679
11.4717 12.7872 42.3659
11.7703 12.8721 40.7866
11.1291 11.5363 40.7369
11.4753 12.8242 41.1807
11.4918 12.3794 41.3923
11.4351 12.4067 40.4468
11.4045 12.446 40.6838
10.8842 12.269 39.6006
11.3837 12.797 40.9794
11.0485 12.0653 40.1503
11.1028 12.1476 40.2891
10.8616 12.1929 39.9095
11.0518 13.2006 44.1605
11.7053 12.4886 42.3321
11.6042 12.7566 40.7446
10.6518 12.0604 40.1521
10.7728 12.0266 40.6524
11.1034 12.7599 42.7822
11.3061 12.4336 39.6963
10.7573 12.5775 42.3597
11.4581 12.7931 43.0063
11.1715 11.9902 40.0682
11.325 12.9807 43.3115
11.0809 12.8909 41.0842
10.9683 12.2559 41.1843
11.1824 12.9617 43.9287
11.0057 12.1098 41.1642
10.6688 12.7199 42.0314
10.9433 12.6525 41.5946
10.5935 12.0605 41.1774
10.9406 11.7738 40.1107
10.8609 12.2127 41.1612
10.7903 12.0613 39.6713
10.5662 11.7921 39.76
11.2154 12.5897 41.2965
10.9083 12.5721 42.8082
10.7522 12.3433 41.9124
11.1427 12.6709 42.5947
10.7957 12.3549 43.9213
10.7353 11.9102 39.0872
10.5947 12.2037 42.5539
11.264 11.7748 39.0799
10.8564 12.1752 41.8322
10.5426 13.0673 44.7185
10.7255 12.6842 42.6412
10.8255 12.2181 40.3768
10.2225 11.5328 39.7425
10.7623 11.7745 40.6379
10.5708 12.3023 42.5935
10.936 12.7003 41.3278
10.5741 11.8065 41.4876
10.5515 11.7931 40.5735
10.65 11.605 40.0648
10.3284 12.2612 41.8085
10.9257 12.4602 42.8353
10.5803 12.0878 41.5162
10.5696 12.2923 42.8329
10.9886 12.1814 43.0819
10.9048 12.1922 42.273
10.6878 12.6144 43.4241
10.6248 11.8996 40.6642
10.6832 11.6784 40.1533
10.4326 12.5548 41.8121
10.6191 11.4502 40.7901
10.2846 11.5413 39.6754
10.724 11.7468 41.1394
10.5448 11.5197 41.3382
10.6641 12.0976 40.8059
10.7135 12.469 41.5041
10.3229 11.862 40.6351
10.1573 11.553 41.1621
10.636 11.8972 41.2307
10.4406 12.1992 41.3442
10.5028 12.3571 44.112
10.6197 11.7292 42.241
10.7429 12.729 43.4986
10.6016 11.7152 40.4971
10.1922 12.1736 41.7448
10.224 11.8684 42.773
10.474 11.5727 42.0748
10.6502 11.9553 41.0785
10.1707 12.1524 41.9067
10.415 11.8088 41.7447
10.3882 11.5696 41.031
10.2425 11.9669 43.0117
10.5174 11.8807 41.5507
10.3206 11.977 42.7183
10.5334 10.9516 38.5599
10.0208 11.8103 41.6371
9.80283 11.3555 39.6286
10.0791 11.3041 40.7828
10.2822 11.5112 41.8353
10.0163 12.2704 43.2662
10.1093 12.1076 42.417
10.2409 11.512 40.1436
10.1192 11.7465 41.6776
10.1757 12.08 43.4583
10.3275 11.7949 42.0695
10.0959 11.599 41.5886
10.1413 11.5895 40.725
10.2436 11.3061 39.9151
9.82375 11.7731 42.4201
9.834 11.368 41.896
10.0385 11.3458 41.1879
9.91909 12.1233 41.9458
10.2422 11.9307 41.9809
10.0088 11.4791 42.8197
10.3223 11.4824 43.8725
10.4987 12.1707 41.5101
9.82083 11.3975 41.0177
9.79517 11.8096 43.2994
9.99189 12.257 43.1057
10.0615 11.4219 42.3163
10.286 11.6769 41.7861
9.55562 11.5403 40.954
9.7362 11.9409 42.7678
10.1607 12.3965 47.2253
10.3187 12.4584 44.1802
10.2327 12.0568 43.361
10.3056 12.2306 44.6741
10.4918 12.1477 42.2911
9.64807 11.6897 42.0441
9.95761 11.7701 41.9537
10.11 12.1123 43.6264
9.90765 11.5732 42.8722
10.5157 11.7377 41.5398
9.80535 11.5494 41.8098
9.95858 11.8436 43.7718
9.77629 11.7632 42.9356
10.2304 12.514 45.2111
10.2571 11.6096 42.4468
9.8387 11.5233 40.8227
9.76446 11.4728 42.8014
10.1199 11.1947 41.4973
9.72114 11.7029 42.6871
9.60696 11.6877 42.2302
9.5959 11.9427 42.8495
10.205 11.4445 42.7322
10.0216 11.3472 42.5223
9.75414 11.3838 41.3779
9.76379 11.4429 41.4462
9.74351 11.7822 42.194
9.622 11.2039 42.6932
10.0399 11.2456 40.5194
9.67941 11.4089 41.0639
9.45548 11.1948 42.161
10.0111 11.2719 39.7637
9.61392 11.405 41.6937
9.91838 10.9693 40.0019
9.42925 10.9246 41.6995
9.79701 11.1685 41.5829
9.41062 11.4593 42.7637
9.61147 11.1544 42.1525
9.73271 11.459 41.2766
9.73829 11.3699 41.8919
9.69447 11.2493 42.193
9.79886 11.4876 43.1363
9.88808 11.6719 43.255
9.78411 11.9846 43.2016
9.65287 10.9112 39.9913
9.6482 10.9049 41.7686
9.52803 11.255 41.9133
9.84083 11.0444 41.4212
9.5562 10.7611 39.6668
9.72545 11.3367 42.4212
9.50209 11.4553 42.7465
9.92114 11.6646 43.1495
9.77732 11.851 43.5215
9.98667 11.3753 42.1657
9.3697 11.7422 43.0843
9.8291 10.7406 40.2981
9.30459 11.333 42.1887
9.41426 10.8291 42.2808
10.006 11.589 41.6411
9.30773 11.2295 41.3005
9.46282 11.2523 41.1839
9.4877 11.0067 40.8933
9.51372 11.0829 43.5301
9.85656 11.1557 43.1985
9.71543 11.5589 42.8786
9.31907 11.492 41.7582
9.39711 10.7082 39.5352
9.14963 11.658 43.9974
9.81612 11.5975 42.5408
9.52498 11.1876 43.5409
9.60458 11.4039 41.2141
9.62419 11.1349 43.1279
9.49332 11.3181 41.9136
9.53233 11.3222 43.459
9.52569 11.6098 43.644
9.64039 11.2095 42.1209
9.51989 11.0434 40.4337
9.23735 10.7625 42.2098
9.41767 10.9597 40.6365
9.44823 10.7059 40.6067
9.18773 10.6527 40.2165
9.08884 10.5886 40.3848
9.21534 10.6745 41.7374
9.40646 11.7288 44.0756
9.7378 10.7424 39.8731
9.33612 10.9712 41.7745
9.33275 11.2405 43.2272
9.29079 10.815 40.6848
9.14948 10.2965 41.4729
9.37574 11.5296 43.5496
9.44943 11.1689 43.1493
9.21549 10.8346 41.8461
9.61421 10.948 41.4147
9.10296 10.9604 42.4237
9.24972 11.0436 41.753
9.37681 11.4353 42.834
9.39326 11.0088 40.8149
9.26482 10.9164 42.8189
9.22523 11.0456 43.163
9.06581 10.8197 40.5509
9.20983 10.7971 41.4611
9.55168 10.6893 40.6642
9.14104 10.6648 40.964
9.29627 11.1204 43.0318
9.14391 11.1983 40.9773
8.94228 10.9612 41.2501
9.13753 10.7184 42.5691
9.16437 11.415 42.4731
9.32716 10.8112 42.7839
9.21409 10.9914 41.2858
9.04566 11.1497 42.7048
9.27937 11.2937 42.7879
9.24476 10.5024 41.1643
9.0168 10.8309 43.7868
9.05735 10.8676 41.1229
9.0206 10.9484 41.5105
9.10787 10.7769 41.6744
8.98481 11.0966 42.411
9.17822 10.7663 40.5515
9.30994 11.053 42.0646
9.12684 10.6181 42.5509
9.30745 10.6539 41.923
9.14692 11.1812 42.1747
9.08005 10.6325 40.6035
8.82088 10.7975 41.1146
9.08019 10.9928 43.4896
9.60316 10.5376 39.7634
8.75476 10.5379 41.3914
9.2237 10.2306 40.2027
9.11799 10.5082 39.7694
9.08036 10.5954 41.2674
8.77467 10.5088 40.0084
8.71205 10.9088 41.02
8.95013 10.4606 41.2619
9.18024 10.4692 41.8991
9.23042 10.9144 43.0875
8.9721 11.1376 42.8115
9.18972 10.9092 40.73
8.92894 10.661 43.9513
9.40318 10.864 41.9011
8.94149 10.2865 37.7308
8.8158 10.1835 41.1186
9.02373 10.4309 41.3739
9.19357 10.7226 41.0597
8.92091 10.3357 40.9498
8.79457 10.7954 40.5387
9.35209 10.477 40.7325
8.84016 10.641 42.0442
8.74314 11.2587 43.9789
9.11792 10.9044 41.5344
8.88668 10.6683 41.5302
8.87641 10.0147 40.0358
9.00089 10.9566 42.2081
8.9859 10.7258 42.0577
8.8305 10.6216 41.6684
8.78024 10.8259 41.5613
8.8355 10.4269 40.5775
8.94184 10.8557 44.415
9.12719 10.6878 41.921
9.04712 10.8975 40.9734
9.1015 10.7532 42.4641
8.86299 10.2575 41.2064
8.96785 10.7703 41.8461
8.93485 11.0258 43.0222
8.8327 10.6712 41.6373
8.88843 10.7083 40.5147
8.57644 10.7878 43.4689
9.04878 9.92469 40.5135
8.61072 10.564 41.9284
8.91252 10.7893 40.47
8.89542 10.8597 40.9033
8.95311 10.1161 40.2431
9.18811 10.3147 42.7691
8.69228 10.7617 40.2788
8.94801 10.3021 41.0925
9.09495 10.6169 42.0447
8.82578 11.1757 42.323
9.03881 10.1168 41.0252
9.01133 10.5606 43.094
8.91016 10.8527 42.2374
8.9616 11.0215 43.1918
9.29984 10.2497 40.9962
8.67729 10.2709 40.1163
8.54583 10.4851 41.9178
8.80164 10.7864 41.2805
9.01385 10.666 42.5464
8.64268 10.5192 43.0703
8.99372 10.8149 42.1456
8.64896 10.6649 41.7613
8.84759 10.2965 41.0657
9.14384 10.5972 42.3772
9.05334 10.621 42.3062
9.15278 10.7944 41.3263
8.78098 10.2158 40.7645
8.61893 10.6476 42.0002
8.83054 10.7367 40.9778
8.65358 10.2234 40.4347
8.56921 10.4524 40.4859
8.69661 10.6349 40.8133
8.78197 10.341 40.7213
8.7231 10.0266 41.6118
9.19724 10.9299 41.5727
8.76042 9.81287 38.9105
8.55743 10.2094 41.6929
8.70102 10.4256 41.9001
8.71037 10.4068 40.7139
8.90867 9.89234 40.7025
8.90185 10.9393 42.3024
8.97521 10.7801 41.9581
8.93256 10.4127 41.2311
8.79733 10.0149 40.4619
8.58778 10.4726 42.1364
8.95327 10.6215 40.9876
8.77374 10.6121 43.6498
8.79265 10.8333 41.1507
8.5845 10.0881 40.6365
8.65381 10.1716 40.552
8.4321 10.2463 41.2373
8.36923 10.4301 40.456
8.93127 10.2448 41.9458
8.94045 10.6496 40.7634
8.78536 10.7344 40.8901
9.04674 10.6397 44.5325
8.92627 10.8831 41.3519
8.84262 10.3643 40.6391
8.42832 10.1853 40.2925
8.65914 10.0691 40.9697
8.78022 10.4577 42.0964
8.72843 10.5398 42.0801
8.81595 10.2101 40.5065
8.58977 10.1551 40.6825
8.36922 10.7669 41.9342
9.04744 10.2908 39.0403
8.43069 9.75648 41.9854
8.86041 10.9111 42.6992
8.79035 10.7658 41.6693
8.65624 10.2075 40.4694
8.67771 10.4274 40.9481
8.86461 10.466 42.8114
9.0386 10.4366 41.7386
8.76513 10.6315 42.7507
8.71885 10.4604 40.9957
8.68854 10.1811 41.2128
8.30191 10.8296 42.2196
8.93271 10.3116 41.446
8.72289 10.2168 41.7235
8.75313 10.6097 42.5551
8.58441 10.7385 43.1064
9.18528 10.3938 41.0468
8.75963 10.8661 42.6521
9.00127 10.4469 42.4274
8.59859 10.883 42.7025
9.0217 10.5049 39.3814
8.58868 10.151 41.5695
8.59537 10.0447 41.4173
8.83129 10.3654 41.5354
8.6598 10.3343 41.1544
8.50768 10.4695 42.4614
8.9432 10.8531 43.2144
8.99826 10.7921 42.3105
8.92605 10.3032 41.8257
8.78083 10.3263 40.3458
8.5671 9.97386 39.2094
8.58249 9.91566 39.8968
8.57045 10.2029 40.874
8.52757 10.789 42.7627
8.61389 10.5576 41.7636
8.47592 10.2428 42.793
8.90323 10.9392 43.3271
9.01489 10.3555 39.8781
8.46941 10.5054 44.0278
8.75458 10.8268 42.8405
8.5567 10.5305 43.6512
9.15119 10.9653 41.7378
8.67648 10.9031 41.7292
8.76237 10.2593 40.3644
8.41223 10.0712 42.9263
8.67592 10.1485 40.3374
8.58727 10.496 44.5678
8.93286 11.0915 41.8981
8.9298 10.7434 42.3607
8.68889 10.5315 42.1995
8.7663 10.8338 45.3285
8.86871 10.5394 42.1586
8.75397 10.5301 42.1457
8.90016 10.2683 39.8063
8.52375 10.4343 42.6795
8.97635 10.9594 41.6987
8.72556 10.4464 43.1891
8.68657 10.9677 43.4038
8.83895 11.1788 46.1286
9.0668 10.717 41.146
8.90779 0 0