# pn-170911/RbIIR-50-PTBB-1280-1959.psd
# Power spectrum* (dif=0,1,2) (really just |FT|^2)
# NOTE: only the first half! (symmetric)
# weeks: 1280-1959
# 3 clock-days, 1 excluded
# PSD: 1441
671.122 0.099281 0.0134921
16037.4 0.188657 0.0288844
118240 2.21594 0.0291731
16320.9 0.570964 0.0299868
44962.4 3.61164 0.0279644
7113.66 0.821146 0.0261272
2133.91 0.510737 0.0288024
4346 0.632529 0.0294699
2644.67 0.762809 0.0288739
1435.9 0.598201 0.0304782
1007.32 0.594112 0.0322585
1341.79 0.797925 0.0270548
620.492 0.39362 0.0275352
730.859 0.430027 0.0333802
727.22 0.639129 0.0320346
603.47 0.649994 0.0253401
358.303 0.659775 0.0293246
111.572 0.261065 0.0302675
351.716 0.505306 0.021458
285.731 0.347517 0.02332
460.288 0.70999 0.0393238
162.375 0.530622 0.023757
360.451 1.10089 0.021541
320.73 0.947552 0.0275693
554.356 1.13068 0.0454232
149.203 0.40532 0.0370793
636.419 2.23876 0.0541294
205.784 0.775755 0.0332414
263.279 1.22047 0.0460938
193.815 0.693813 0.0344083
136.127 0.728537 0.0313212
466.793 2.2713 0.0228131
279.886 1.42524 0.0402207
105.521 0.540104 0.0416871
184.517 0.886049 0.0494615
263.968 1.46709 0.0645504
159.974 1.14201 0.0238048
251.686 1.84397 0.0444532
285.38 1.76404 0.0305769
140.783 0.875393 0.0146646
428.435 2.81958 0.082955
102.508 0.911842 0.0495674
89.2067 0.750952 0.0216373
101.16 0.922882 0.021966
134.316 1.22739 0.0295455
50.9662 0.692263 0.0338865
144.043 1.46964 0.0414339
321.141 2.79711 0.0270393
536.558 6.02844 0.10222
134.882 1.47625 0.0447577
156.435 2.38014 0.0373101
225.137 2.98029 0.032714
249.623 3.36938 0.0915216
288.267 4.18154 0.0459548
387.343 5.65342 0.0570003
115.172 1.51348 0.0480882
123.326 1.46753 0.0449041
159.832 2.97941 0.0638799
131.699 2.21388 0.0781578
261.793 4.24687 0.0948932
300.281 4.9851 0.0842772
108.905 2.13125 0.0338007
253.765 4.06853 0.158004
126.694 1.94144 0.106376
269.216 4.94141 0.181584
167.701 3.28357 0.115298
426.959 9.79351 0.207394
39.943 1.07769 0.0565514
191.412 4.17363 0.12596
230.991 6.24384 0.161229
257.101 5.02571 0.1137
140.355 2.83001 0.157367
90.2826 1.7033 0.0341742
67.5388 1.60082 0.0552902
257.034 6.63465 0.166501
142.233 3.48957 0.118599
181.692 4.42901 0.240488
76.7989 2.27687 0.140159
153.288 3.87823 0.182229
258.847 8.27071 0.339164
208.369 5.72601 0.233284
123.479 3.5894 0.241164
151.945 4.33763 0.059754
304.019 10.5415 0.350815
123.134 4.96901 0.167185
215.867 6.33297 0.191879
123.959 4.50661 0.151897
80.2477 2.43075 0.0986531
56.5248 1.97747 0.0956651
96.2336 3.35521 0.225743
40.7191 1.76922 0.0514687
298.8 11.5984 0.409595
137.907 5.73734 0.260433
79.3837 3.90809 0.114601
101.873 5.73364 0.211115
77.9425 2.54714 0.183082
264.622 11.52 0.458284
409.509 17.665 1.01883
119.126 4.96156 0.183525
140.293 7.39405 0.462121
116.715 4.24217 0.185284
331.792 14.0509 0.634526
96.2306 4.72627 0.187233
76.4631 3.03777 0.17899
213.877 10.2253 0.482326
49.873 2.99224 0.158226
117.1 5.59681 0.319462
104.227 5.78545 0.353328
87.208 4.07253 0.31999
170.521 9.04952 0.543076
185.892 9.95298 0.766203
122.154 6.28168 0.516427
190.871 12.0527 0.78087
354.199 19.7782 1.3155
113.057 6.95321 0.485585
83.6283 4.97134 0.434619
124.954 7.62802 0.366887
25.832 1.33978 0.112793
99.9805 6.70858 0.418936
126.985 9.09917 0.7918
19.6254 1.32527 0.0814422
96.4365 6.6489 0.579238
129.643 9.25559 0.957002
86.2754 5.37061 0.444434
55.5108 3.77376 0.23597
83.7991 6.12645 0.44462
66.2603 5.06293 0.568813
11.5414 1.11192 0.116866
111.808 10.2009 1.01538
167.345 12.2273 0.836827
219.659 19.9547 1.46954
73.7206 6.49289 0.528836
139.041 11.4234 0.958839
15.3629 2.33571 0.241531
166.515 12.9068 1.04425
200.38 15.3524 1.47496
95.889 8.73858 1.08981
34.1759 4.03902 0.532873
240.834 18.9754 1.64068
201.447 18.9706 2.22908
35.7369 4.74406 0.703752
254.216 21.4056 1.85201
66.5371 6.58708 0.801334
58.9211 6.52892 0.70666
81.9922 8.49505 0.985846
25.6317 1.79521 0.252905
230.358 22.7569 2.04781
55.8127 5.55556 0.384446
47.4769 4.66139 0.561934
31.8125 2.4047 0.257031
57.2757 6.35241 0.932083
71.1275 6.64228 0.529113
131.851 14.2031 1.8306
68.3534 7.43015 0.865314
58.7264 6.93896 0.723049
62.6194 8.39181 0.82394
45.1125 6.05553 0.909736
229.614 24.1165 2.61681
37.9057 4.50153 0.565827
62.1153 7.49355 1.01486
59.6836 6.09475 0.809291
60.6376 7.60169 0.811021
111.052 13.0819 1.51244
284.6 34.3406 4.42048
90.7984 12.6499 1.73391
55.2344 5.87359 0.843016
79.1412 10.7013 1.26669
111.578 15.9004 2.11716
64.6722 8.03316 1.20933
140.668 19.9141 2.64586
108.791 15.3152 2.26117
259.942 36.0385 5.71694
169.696 22.0187 2.72156
177.593 27.9597 3.78689
150.607 20.4048 3.25565
124.705 17.5182 2.38846
56.2341 8.49859 1.26425
178.671 28.0529 4.81601
182.593 24.4944 3.49618
89.2024 12.8459 2.06793
149.134 22.0071 3.42074
262.629 46.4235 7.32912
89.7458 14.5015 2.91751
303.783 42.9963 6.13386
236.525 36.3656 5.25585
117.413 19.7146 3.29289
53.2765 8.90201 1.39422
140.43 22.5441 4.00551
43.8304 5.81377 0.94007
60.2798 10.4565 2.01221
94.1874 15.1696 2.50968
133.349 24.0145 4.56393
164.904 26.6311 4.02623
115.812 16.6261 2.70157
87.1093 15.7268 2.87128
32.5791 5.81427 1.3924
64.1086 11.0651 1.98469
92.0318 17.4897 2.87349
75.3011 13.5257 2.71074
100.173 19.291 4.04107
60.5081 8.7119 1.25702
155.397 30.4188 6.74461
28.1776 5.24123 1.06274
72.769 17.1574 3.86802
120.632 21.4542 4.10938
135.146 25.8411 5.09155
138.607 32.8594 7.62183
160.062 26.3416 3.90594
55.3827 11.1309 2.12839
112.585 25.1318 5.24601
57.0065 10.3814 2.41913
31.0362 7.58329 2.15428
66.0508 16.8779 4.39515
140.483 28.3033 6.14146
43.3387 7.51397 1.48922
55.6435 12.1885 2.72163
116.409 28.9996 8.31987
181.657 36.0927 6.39667
136.386 31.9345 6.93873
117.426 25.2784 5.25137
78.0714 18.3235 4.9799
63.4592 15.5514 3.56831
86.6544 20.8187 5.98796
251.226 55.282 11.4066
26.0597 7.0957 2.04992
19.5035 5.88994 1.58608
167.403 41.0941 9.8229
81.18 17.2637 3.68947
154.089 42.7763 11.5825
94.3892 21.8611 5.56294
84.9043 20.7945 4.82715
37.7811 8.39579 1.63572
88.3151 21.3357 5.73714
175.373 45.3797 11.2448
63.8395 15.2262 3.32583
48.4314 11.2921 2.86881
114.625 29.9786 7.90159
36.6027 8.02452 2.13452
40.4112 10.3489 2.78769
113.067 32.6949 9.77618
138.194 34.8597 8.95552
72.9495 24.3969 9.04127
87.2306 17.8325 3.65043
93.7313 25.679 6.19369
46.1052 15.6354 5.17083
130.628 36.5325 10.7627
47.6156 13.591 4.00936
14.1399 4.50319 2.01861
170.829 48.8089 13.2621
49.9913 12.5454 2.74755
54.9821 16.6892 5.15272
29.0801 11.4063 4.48058
90.2188 25.2061 6.82769
53.4743 15.9526 5.62561
47.4077 12.1472 2.58773
27.3987 9.90918 3.90324
59.981 14.5557 3.12455
84.07 28.0006 9.12478
111.191 38.3561 12.0384
99.6106 27.9446 7.64241
61.0253 21.3976 8.0055
85.1182 25.9649 8.3713
103.428 34.1015 10.4102
19.0593 4.94238 1.54588
69.541 20.4217 6.07105
19.4693 6.86306 2.70681
54.5816 19.7287 6.73777
66.457 19.9995 5.23572
38.3345 16.5466 6.2264
57.1347 18.1446 6.23333
66.7916 20.0791 5.90719
34.4161 10.3746 3.58416
28.5449 10.3687 3.96002
42.4198 11.9916 3.33027
60.2818 20.0893 7.32428
57.2331 20.9385 7.90137
19.2598 8.89765 3.87845
43.8604 14.0836 4.62332
85.3163 38.4816 18.0005
157.65 53.2498 17.9651
53.9792 17.9897 5.91599
110.769 47.3033 17.6187
73.529 29.9518 13.1026
22.0207 5.87688 2.04198
58.8276 26.633 13.2708
73.3609 23.559 8.41047
215.514 89.7803 35.243
33.1298 5.6925 1.40355
79.7154 25.8536 8.2732
19.4884 11.9714 6.69171
135.227 45.3922 15.4975
82.271 28.9843 9.92296
118.414 54.0454 22.4038
53.8343 35.5552 21.4482
144.184 48.6905 17.0276
34.5264 14.7738 7.25649
62.7586 20.3785 6.28535
31.536 13.882 7.01772
42.0965 14.1077 4.49323
42.078 16.5742 7.56066
68.4148 23.8993 6.99676
57.2872 28.7077 12.5071
37.7583 10.2349 2.71239
38.7511 16.5674 6.77194
37.8824 21.0206 10.5527
78.1076 30.6861 13.0225
36.2224 16.1274 6.55025
70.0987 27.4801 11.4153
32.0472 17.6432 10.3925
116.557 54.0328 22.8164
16.5421 4.20796 2.26237
37.9649 19.6346 10.853
47.6124 19.0347 9.64828
65.1299 19.6954 4.59192
91.4307 45.7837 20.4359
60.2186 17.6171 4.21443
77.5268 34.6806 14.559
52.727 29.2254 15.9577
82.2677 34.9152 14.1117
68.4454 27.3832 12.1422
93.2171 46.9946 22.2805
124.623 49.3797 18.1029
32.3401 19.6888 11.0725
44.6105 17.7285 7.34087
72.7058 35.6253 16.8673
55.8657 27.2588 14.1147
72.8055 35.8976 18.1077
10.4994 2.91508 0.787458
79.9746 43.7234 22.5827
28.7632 17.9358 11.1605
32.8273 12.0396 5.32836
81.5341 48.0781 26.4587
32.2082 10.0196 3.70196
38.3385 23.0931 14.5953
67.2447 30.9445 15.142
35.5045 19.1104 10.9489
48.1275 23.3572 11.8734
45.3754 19.8778 9.30019
81.3908 38.8298 16.2108
37.1244 21.5037 11.2048
71.7792 35.3211 15.951
90.3048 50.752 24.162
59.1516 36.5432 19.6067
24.2417 12.6298 7.94915
9.10018 4.14949 2.75082
53.9063 30.9271 15.7496
20.2908 10.5838 7.90053
54.4448 28.4893 15.8684
55.5405 20.9313 6.58698
52.2784 24.7674 9.45853
19.0339 11.0944 5.942
88.4747 55.8939 31.2536
25.7737 11.6003 6.13454
63.1394 33.1753 13.34
34.1436 28.5052 17.4882
14.5475 13.7521 12.375
49.2158 23.1462 10.3571
25.723 12.6945 6.61945
22.821 13.1493 7.81649
97.008 61.1335 38.3874
61.3168 31.6844 19.8851
81.9022 45.2609 26.2843
72.4382 36.6854 20.7915
122.046 68.6349 36.0917
42.4928 19.6268 7.7265
31.1884 19.4675 10.3286
30.5232 19.1401 9.97396
58.5779 35.6769 18.9447
29.3502 25.7821 22.6804
60.7246 28.9227 13.4063
64.3612 37.2996 18.9178
36.3274 23.8415 13.0616
21.8132 11.0275 4.09893
69.0419 47.7534 26.7635
7.88033 5.63232 2.87906
70.6312 62.4174 44.7394
40.6469 17.0651 9.73245
66.3179 37.2685 19.0941
63.2708 36.5062 17.1737
40.2988 33.6956 20.4985
60.8553 50.0996 36.1799
55.7872 40.7072 27.5421
24.8882 15.7326 12.2228
76.7083 49.1622 27.0022
16.479 18.9643 18.217
63.1874 43.9129 28.819
49.5272 36.9915 25.183
35.5551 20.1789 10.7477
90.4396 83.5609 64.3256
118.91 74.9882 49.6828
19.0508 12.035 10.4856
10.798 13.3073 15.3493
49.7033 27.6807 17.5027
91.3165 61.854 37.0732
55.215 35.0006 21.116
146.869 131.829 103.236
52.0243 20.7968 13.3374
81.4096 53.0028 33.1472
31.6012 27.7653 22.8276
22.6022 14.2273 14.9467
75.8943 41.7563 22.7647
82.8624 65.4446 47.9176
42.5285 26.4119 19.8947
61.7134 47.9164 39.8167
44.5571 24.7825 12.4865
15.6315 15.5581 13.1303
19.6712 17.3003 15.706
44.7793 27.8921 19.046
53.6546 33.0199 19.0662
42.8339 48.0881 47.6075
79.8749 39.9414 19.7445
63.1478 46.1706 33.2794
46.9112 35.0454 26.4341
72.9566 59.416 42.5907
40.836 42.9299 42.9762
7.31485 6.59019 13.0716
61.0191 42.885 29.4877
37.5078 29.1145 21.9832
28.6744 19.7634 17.061
38.0033 32.0339 27.0022
25.6244 13.333 7.64086
40.5225 31.648 20.1614
16.1234 18.8783 18.4919
11.6686 7.98681 8.82326
23.2524 20.2787 22.9066
74.178 54.8842 43.0913
83.9501 61.4386 38.109
35.9701 32.9689 25.0568
11.7829 9.43357 11.5663
60.3951 60.6775 57.7325
63.1857 36.5115 18.6101
47.8177 48.3893 40.8592
40.3046 30.1892 21.3216
25.5472 20.1413 16.2203
44.2447 35.2529 28.7967
43.8795 37.8039 33.0627
69.4596 52.251 30.6594
13.8716 20.3948 21.2782
27.6455 19.7093 16.1072
53.4757 45.8061 35.5128
28.4287 33.7283 32.623
34.7126 42.6533 49.8954
87.2725 66.5771 49.6558
21.4262 12.7961 10.5013
20.4795 13.9732 9.52221
23.4497 23.2122 22.4853
28.442 27.8484 26.5196
45.2286 29.339 15.7976
21.8482 17.7637 9.4083
23.8519 27.4281 21.6423
53.9203 65.7677 61.9531
16.5039 35.5619 58.3265
100.925 66.1694 40.8342
2.52702 2.53365 6.78864
55.5448 46.9238 35.343
9.65432 13.6244 18.8404
48.2043 44.0558 41.3426
41.2822 37.2844 34.2764
30.6957 26.4629 24.2848
30.8175 28.8143 27.2496
11.7407 5.99117 5.75618
8.17479 4.35791 2.94537
30.6808 32.7196 31.1597
16.5348 16.7295 19.3848
25.8757 21.1903 20.4297
18.331 21.0292 27.4024
57.9919 36.3743 18.2425
21.3102 24.9845 24.3702
34.4167 28.4573 25.5498
51.4636 49.3635 41.7285
8.07951 9.77772 12.0997
9.83271 11.8744 15.2423
13.4223 11.2679 11.6972
34.7904 26.5019 17.7736
10.6297 10.2846 13.357
69.0727 72.7177 63.0725
40.3843 43.1615 40.8903
17.8787 28.5204 37.0121
46.3121 45.4496 47.647
29.343 22.4591 18.8733
29.8543 37.1618 42.5062
25.1979 26.5173 30.1051
7.39326 3.06059 5.78596
15.9538 11.6803 11.1966
48.7439 61.6701 71.6693
38.7026 27.7727 15.6099
13.4063 21.6471 26.8151
16.769 23.5868 42.9819
62.5521 44.5895 23.765
25.7549 31.568 29.5009
45.0552 57.6683 66.1129
37.7229 36.3866 39.7388
36.4713 41.3223 45.6012
41.8475 40.5255 34.6512
37.6781 55.0648 70.1282
25.7531 14.5024 14.1991
33.0307 34.1727 31.7092
8.32859 8.85862 16.4659
36.3376 34.8998 32.6334
9.75288 7.58741 5.58797
3.48863 5.11852 6.37478
10.0511 16.6072 25.6741
47.8811 58.6679 62.8282
8.81218 5.12907 10.5407
17.3023 10.6165 8.3789
31.4141 34.3672 34.4246
31.8601 35.1556 38.8422
36.6115 33.8597 25.7499
31.5184 47.4033 56.0267
22.9498 21.934 23.5393
15.7201 20.0354 27.2762
14.6371 17.4656 27.0132
34.1553 33.5013 28.1229
22.5968 32.3717 44.1151
28.4908 30.8096 39.5852
43.3681 41.5868 37.2606
15.0809 12.5072 8.69844
5.39989 9.34433 12.4185
28.1788 44.2014 64.091
30.2409 22.6 14.6409
16.1552 26.8695 34.6418
14.6332 16.7812 23.7652
46.5994 61.4678 77.9351
30.5983 34.3575 43.608
28.8004 25.6831 31.0597
41.93 43.8109 40.2235
12.3115 9.82744 8.11748
11.2305 12.861 18.5113
38.1595 40.9848 35.0265
30.2332 46.338 57.1654
26.2634 37.2767 49.789
24.2064 28.2297 38.0773
17.3053 19.376 25.3811
11.8189 16.9692 29.9056
36.9632 39.6661 40.7273
13.7295 15.9083 28.544
46.2007 48.886 41.0085
7.48865 9.0647 9.70132
4.74576 7.51977 15.6756
11.0935 8.10081 4.80038
20.6617 29.9832 33.7643
24.7129 39.8513 60.012
37.5934 33.2316 23.26
6.49893 16.8636 31.7142
44.4114 54.7375 61.2565
18.7696 18.0253 17.3981
13.148 24.666 36.2397
20.0766 27.1117 37.3588
20.6616 31.0206 50.6697
39.9722 31.7984 22.2654
41.102 61.3869 69.1417
14.2247 17.1488 20.3464
18.602 36.8783 65.7959
57.1586 64.0594 56.4121
3.70023 15.7687 36.0587
21.2477 23.1495 27.8509
14.6443 20.5021 29.3891
17.5659 26.685 36.3547
7.45144 3.06731 6.86462
24.9108 30.9364 39.1643
33.8849 45.4241 53.0081
18.3267 24.6415 34.2211
16.8384 17.7728 14.7606
23.2913 42.1464 62.9359
34.4922 50.52 63.7499
12.1129 27.2973 66.4786
37.5275 28.6853 20.178
42.3798 69.6672 90.5679
24.919 24.7466 24.7446
12.763 20.2669 27.0472
7.16982 13.0422 23.1097
16.424 29.1867 43.5121
9.24233 9.15554 13.868
6.28998 14.8795 35.9373
29.0011 35.3603 46.1717
12.567 20.9415 49.5866
46.7206 53.5853 70.6375
71.685 87.8497 94.2513
29.872 39.8797 51.9191
15.6939 26.2245 49.8468
43.057 57.667 64.0974
25.0569 41.7089 67.0523
36.9621 52.0963 68.4767
19.239 25.9065 38.9391
8.22547 13.6946 34.8019
31.6573 34.0257 31.7295
44.6797 76.5486 104.042
13.7267 22.4754 42.3987
11.1109 12.8357 25.0926
30.6341 61.3593 117.787
44.2522 33.826 23.4668
21.7117 35.9204 58.2899
39.5727 53.6606 73.6355
53.2062 65.0546 60.106
9.53815 20.7444 33.2474
2.79902 6.28253 18.4382
9.29666 9.18741 14.0996
13.299 15.176 17.408
16.8061 26.2635 28.2287
7.01558 9.58169 15.2756
32.727 52.818 60.1
8.37658 20.0229 34.4301
13.5081 38.0695 74.9928
17.7328 24.2676 46.5743
6.67224 1.2007 4.87363
16.099 26.262 41.6063
7.33216 15.688 45.8417
24.8854 31.3768 46.0445
16.1684 17.579 35.6746
29.6424 34.8076 28.2743
11.1858 20.6838 29.9715
7.83887 9.97557 21.3836
42.1161 72.9222 97.4652
21.9218 29.6204 39.6648
10.2215 19.0536 39.7022
26.0799 41.6505 61.1787
6.71668 8.74023 18.2526
5.17096 7.24235 15.2174
8.13672 16.4676 31.387
20.5192 59.7952 152.178
50.8783 44.5567 37.972
16.5851 14.3473 4.4197
17.0578 33.9531 54.6218
22.4261 30.5553 31.0143
10.2343 23.1035 41.6955
7.21878 11.7108 24.9664
9.30169 20.2134 59.6078
30.2201 28.2347 22.77
38.208 71.645 84.1091
4.8811 18.8784 53.9212
25.8717 35.8647 50.9473
8.0705 4.51762 3.77567
12.0771 25.23 45.7208
19.5985 26.663 29.2931
17.4582 31.1279 42.4444
11.9219 20.7494 29.966
5.44223 16.2311 47.4748
23.6239 36.3789 43.0648
5.6163 9.6449 34.1588
52.2921 91.8835 103.395
4.33534 31.1107 86.3743
15.6895 25.4366 59.4142
12.249 6.55666 10.1063
8.30682 16.2713 48.7652
28.8177 29.7845 25.5372
28.5489 65.3594 115.914
10.1109 3.70602 12.7266
19.0478 28.6489 37.0863
10.5751 23.8945 54.5949
23.3562 35.3458 52.2078
15.178 30.444 58.1248
16.1853 13.9347 22.3023
25.0152 40.1747 57.6385
20.5907 33.9006 53.7802
17.4505 25.7847 27.2804
15.921 34.3544 47.818
9.84939 25.6922 57.5449
17.6988 37.2059 80.0492
17.4022 16.8586 22.0389
18.3015 27.4315 29.3849
8.00462 15.2281 14.9151
8.26001 24.9847 46.1852
14.0198 27.7908 43.2258
4.1558 8.55235 25.6079
18.1094 30.5874 46.6966
14.5902 30.2401 53.2625
14.1215 30.1542 50.0304
2.23912 2.50906 12.4938
9.44086 23.1711 50.9788
10.8038 13.2164 13.9761
0.78845 4.51971 19.4178
11.1886 16.1724 22.1924
8.39104 23.5401 47.3191
9.79536 17.6378 31.46
2.30116 1.81008 12.7443
9.58838 22.9411 68.0163
34.3687 47.868 52.2433
3.03218 9.71918 32.7258
10.7424 9.01485 6.86887
9.13463 21.5016 45.6243
22.1844 38.8046 56.8649
21.0207 50.4589 102.964
15.2667 20.8746 40.4622
8.81474 20.0046 43.2129
6.11774 4.44277 14.6055
15.0047 26.3723 49.3909
9.21735 12.889 34.2898
18.9817 29.412 34.447
10.5843 21.3135 30.6685
9.65987 33.8829 84.4672
8.36807 4.16287 11.8215
15.3962 40.6377 102.072
18.8327 12.46 11.7594
21.4079 38.6366 68.8259
37.0443 77.4591 124.899
17.8747 17.8763 8.95738
13.0165 35.9974 63.3241
19.9108 39.5915 62.0324
25.7133 70.234 127.08
9.37771 23.6336 65.2605
9.73784 15.1883 40.9437
11.423 23.6039 61.3558
19.8473 39.0504 69.2985
3.73323 12.6148 60.9542
16.9026 18.2196 30.8408
16.6228 36.1372 73.9476
21.1487 59.6052 163.303
26.8819 19.0731 30.8551
24.1225 39.8316 47.3275
5.84536 8.25489 22.3495
14.8901 26.9585 55.7493
25.367 44.8155 55.2818
7.64337 14.9415 21.2173
3.47535 7.65883 12.7997
9.95762 25.578 50.9517
11.1349 22.6842 39.243
4.7568 10.174 24.6809
8.87732 21.5701 53.7738
16.7552 26.1168 44.9478
9.85134 20.9527 46.2258
13.6859 21.513 24.3135
2.64651 12.1094 44.7274
6.6812 2.26656 22.6351
35.564 79.6499 138.559
23.8748 34.2374 29.8536
2.15617 11.5337 31.5659
12.6382 38.4256 87.2415
13.8554 17.7796 23.8618
4.08144 10.2663 32.0498
9.93917 14.0692 9.77282
5.07674 17.7434 38.1953
11.7727 31.1819 53.9608
3.33816 13.815 46.9441
7.50017 12.7033 42.1178
11.925 18.0679 20.2205
2.43558 9.35887 36.576
10.3089 17.7611 22.6504
3.54332 11.3919 32.8866
8.92147 23.9734 70.569
21.9323 38.6586 53.8844
6.93496 9.67489 12.9209
8.96329 28.181 60.6638
11.3973 23.4347 52.5414
12.8287 23.4611 27.5232
5.08186 17.7417 33.5608
2.34762 6.24126 21.3686
7.79825 24.9339 76.5918
27.4975 57.9303 92.7279
10.2965 33.9545 123.155
31.548 49.2803 60.258
7.12306 22.8627 60.0222
11.4698 17.9296 26.0217
6.77676 18.9135 38.0338
4.56271 15.3845 45.4336
9.91426 19.5865 40.5954
4.09012 9.76508 28.3054
3.97092 11.553 39.3031
6.66422 11.9704 48.9138
14.4225 23.1787 56.962
18.7847 39.3962 59.2765
3.47259 8.87449 39.7759
9.3424 13.0632 35.4594
11.642 17.1711 40.0063
13.6767 18.8854 22.9648
7.464 15.3713 38.4888
17.7187 43.9431 83.6413
12.3235 19.8071 41.3112
10.8687 16.8471 24.2961
12.7166 36.6418 67.9392
7.48486 18.5025 65.1862
24.4767 55.1017 91.3224
7.74534 18.19 59.2441
17.531 36.8798 50.7793
3.65673 15.8225 53.1189
15.2465 34.1968 72.1131
8.56382 14.1421 20.9331
2.64251 8.43048 31.0072
5.57527 8.25386 34.8811
30.6513 89.3917 198.359
28.1367 55.127 88.4515
4.80599 13.2956 51.0309
6.0396 10.2404 30.5577
6.59274 17.9223 77.2859
23.5368 46.5534 64.8147
7.61774 22.585 58.9706
12.6396 35.6067 78.9142
7.84526 16.4931 48.8869
9.96879 19.6145 56.2758
13.0947 22.6813 39.0688
4.95316 14.196 49.4254
16.1077 38.3834 92.5468
14.1385 21.9903 32.8996
9.70411 30.1135 77.1228
10.0485 13.749 18.9956
3.22987 6.48073 17.4121
5.09207 14.7644 60.7029
23.9751 57.2937 100.411
8.29459 25.0425 76.4523
11.037 20.7321 66.8297
14.8956 22.5126 31.2845
12.987 31.4079 52.3775
10.9843 38.2663 104.121
22.7555 55.0315 109.523
13.5168 30.8743 66.2185
8.97465 20.716 35.6659
4.19444 27.0445 92.1288
8.37659 8.63203 34.1442
12.5698 34.1815 81.0243
8.69849 19.4736 50.4383
7.62815 14.1268 33.4826
7.36282 26.7517 86.4211
10.007 13.3435 35.6226
9.57778 30.6184 106.858
22.3848 31.5497 32.0196
13.7453 49.0852 90.9589
2.99205 33.2897 164.841
15.8229 18.0801 105.747
27.1722 34.1983 47.8674
15.9313 23.6513 37.5257
21.9799 58.9528 108.783
17.7147 45.828 78.0114
9.03927 28.9742 59.5255
5.96857 20.4835 67.0091
12.0339 26.9904 66.6834
9.13441 18.1921 36.6912
7.71587 19.1617 51.1422
10.081 25.1628 67.2704
15.275 36.9576 91.1639
19.114 40.9333 50.6295
1.91447 5.99566 13.6825
1.40156 7.81204 34.6643
10.4531 30.4072 78.3517
14.4554 31.3298 41.7572
1.91717 13.1267 57.901
10.9944 23.782 44.7674
4.6218 18.3053 71.6298
8.28055 10.928 36
14.9604 42.7247 73.9388
7.92065 22.603 63.3915
13.026 34.3128 62.6184
2.39743 7.73508 27.2895
1.53413 16.6446 116.626
20.712 19.8798 15.2991
10.1988 29.2149 73.4885
15.8973 37.2965 75.6774
11.7529 29.3352 55.5745
7.53382 20.2647 43.2773
10.6738 36.2924 89.3464
11.1845 16.0388 16.8358
9.01591 38.6776 108.151
14.5758 37.8801 65.6991
5.05236 14.2704 30.2192
2.92443 11.5045 39.0505
10.9109 37.0388 78.8022
13.8112 51.8623 123.323
9.57933 31.223 102.523
12.9407 44.845 142.285
10.8083 8.57862 26.4469
7.04378 23.5337 59.1304
3.54453 25.5634 133.089
13.369 10.3501 24.9248
4.83944 13.0631 67.2137
12.6509 15.7223 8.97097
3.29372 10.3789 21.3319
3.22418 13.2593 51.9517
11.4896 37.2602 72.6884
1.81018 16.5975 129.314
19.4006 26.9575 39.2505
6.17793 18.5748 88.5682
12.7458 18.335 53.01
14.7525 28.9239 69.0167
19.8086 49.3816 58.161
3.664 16.5645 46.6824
7.68673 17.7076 43.9093
12.0938 37.943 53.1868
3.09178 13.418 33.9754
3.95776 24.3212 95.6738
13.6405 31.8865 53.9799
3.57221 12.4551 37.041
4.5872 9.45947 31.8016
6.63298 18.6841 32.9481
6.7737 27.119 61.4912
6.76038 30.2453 80.002
6.13929 15.9606 55.9254
5.19257 14.9772 65.2211
8.19983 10.9763 35.4164
9.58532 34.8808 91.856
6.85217 7.56022 40.9518
12.578 25.7555 29.6846
4.60928 22.2696 62.6994
3.72702 7.38248 27.9842
4.96394 24.2801 101.605
12.835 14.9641 8.00223
2.54505 15.524 55.408
7.0076 9.22937 9.66955
2.78269 6.96389 11.8628
2.16852 5.09063 18.5766
12.3659 50.0792 107.285
4.53613 8.07556 11.8802
2.90652 30.5398 117.718
11.9035 21.1124 42.9349
2.22285 15.6643 102.065
15.8073 29.4878 47.9967
2.44417 7.11338 52.1971
7.7236 9.79361 26.4293
10.9424 37.5095 67.1574
3.89341 17.8306 65.1296
7.09501 17.9889 54.7857
5.65316 13.3727 47.073
5.38118 10.4004 57.3058
12.1202 29.6708 66.2272
8.80081 13.9105 11.4233
3.74062 18.3944 43.8781
2.25133 12.0101 49.0395
5.38174 11.2073 41.3839
5.25005 7.84216 15.4123
2.64882 9.33324 54.4515
8.94047 15.4515 16.4115
5.41253 23.5011 69.8016
12.1918 39.0537 99.2071
8.4727 19.9319 42.1611
3.79743 12.1166 40.9328
6.06426 13.9426 25.5217
3.48957 13.2717 37.7894
4.58354 18.984 63.1909
5.9007 9.76607 14.3049
2.12187 10.9748 37.0452
3.01286 5.43587 23.6693
9.33851 43.5966 119.868
7.88008 16.4882 48.5313
9.56762 41.7784 116.523
8.37854 24.9518 111.204
10.5055 16.1643 46.0799
5.71568 13.0621 73.606
16.2173 47.0338 90.5734
9.03339 29.0563 60.8316
2.16443 6.39326 40.0029
3.87233 7.59504 36.3079
7.27911 23.5572 45.3532
2.52424 8.54966 54.2842
9.32887 26.105 60.4549
5.55767 17.0195 58.6481
6.24994 11.1605 31.7877
5.40123 17.7079 56.4942
7.76744 18.4027 28.3885
2.08941 11.3121 46.6436
3.96201 7.48037 13.4052
2.61954 16.3234 52.4988
4.2053 12.7587 70.3973
11.6116 27.2777 52.2245
3.69778 8.18456 30.9732
5.35955 19.1976 51.6085
6.44981 21.6041 63.6227
6.15189 22.9378 77.9248
6.52534 7.27858 16.9755
8.01749 34.0269 75.1633
1.91207 6.72426 51.3874
4.95759 8.4025 15.171
2.27775 11.5352 45.394
6.36876 20.1702 54.465
3.23273 5.77077 10.8917
1.25084 5.18747 17.3943
1.79764 7.91865 21.8924
1.19087 12.5595 90.9297
9.84075 15.7589 24.1356
4.97823 23.0901 43.8065
2.16523 8.62313 43.1724
6.97493 24.9737 97.5359
12.0362 36.9066 68.4384
2.50994 12.4579 72.2359
9.27159 30.8495 89.1043
8.34554 27.078 98.4313
7.64398 19.1836 68.4012
4.54407 9.08741 84.8616
11.6549 27.5958 93.7854
11.3319 22.1715 16.952
1.60062 20.3946 109.682
10.5314 15.6481 38.9118
4.90398 13.5927 49.1393
7.82676 29.6641 75.8292
5.75161 9.89005 61.7601
8.80359 19.7023 30.1052
4.14998 9.51768 17.5036
4.21336 14.5462 33.2738
8.53123 40.1363 88.9527
6.79302 31.3376 105.836
6.58201 6.68607 8.41818
1.81115 7.82818 29.2685
5.65605 20.2776 54.2292
4.9148 13.6068 52.2855
11.8602 59.076 112.072
4.87417 26.1913 129.373
9.08668 7.20273 16.2005
5.4921 27.173 59.7346
3.63187 27.0438 121.388
9.8868 30.4348 139.944
13.5343 21.0365 37.4665
2.77877 8.14295 47.9348
6.64309 17.7786 58.2242
8.74685 37.8341 125.218
11.6717 30.6151 78.0986
7.3492 37.5058 165.33
19.8349 65.4759 170.441
9.62263 18.0107 112.758
13.8435 28.4026 64.7346
7.53762 23.711 54.7532
3.53275 1.29791 17.9053
6.09483 25.3964 74.4462
7.76396 23.8622 59.6419
4.76989 12.2071 37.3156
3.91415 15.4018 50.8595
4.70465 14.4342 66.5028
10.2634 40.9701 104.391
7.19052 9.79065 15.9887
1.53969 9.61017 47.7135
4.41046 15.5331 70.4767
7.43741 16.075 42.7086
6.9961 29.8386 78.58
5.04141 8.9776 41.5337
4.96734 15.0568 61.9522
7.64286 26.3291 55.04
3.47663 6.83489 35.2222
3.89729 11.9341 54.1483
7.56978 19.3703 33.4328
2.92379 12.9963 51.0997
7.84711 40.2703 146.625
9.223 7.97196 28.9234
6.23291 22.5256 60.8547
5.46105 15.3854 65.6097
11.3281 48.2841 89.4734
3.27039 7.52558 38.1339
4.35606 17.5163 54.6737
4.58771 11.5441 23.9805
1.29039 4.41782 32.1776
3.54159 4.27111 26.1192
7.10717 36.5221 82.4701
4.38897 17.7148 115.675
11.5183 28.5429 43.2328
3.3409 9.51542 9.93991
1.96228 17.014 45.8912
3.00878 24.2242 136.959
10.3007 17.7709 49.9128
6.69208 27.8242 95.1106
7.36594 13.2223 35.0767
4.18952 13.098 60.9205
7.86873 25.9525 50.0492
2.29038 5.08165 11.2214
1.62662 12.7152 40.6842
2.97931 11.4549 54.2245
4.21177 12.1026 59.2208
5.55524 14.8703 36.772
2.58752 8.65877 28.5569
3.74633 19.7809 88.3226
6.59751 17.1913 77.9691
9.15697 19.3496 19.1954
1.32812 12.7751 76.3537
8.42262 29.8877 101.011
7.04115 16.3424 53.9666
6.2398 15.2506 31.1221
4.39627 27.4326 73.8695
4.25018 15.5949 69.9962
4.55339 10.1029 85.068
8.11376 12.5368 19.3113
6.07673 47.2192 132.122
6.42004 7.93609 81.4432
10.3839 21.4454 49.2505
6.20386 18.0352 39.6337
4.29335 19.1019 35.442
3.33309 12.4805 29.194
5.68842 36.2628 84.4022
3.47301 10.201 44.917
2.28024 10.3094 93.4411
11.6215 52.038 190.948
13.9045 27.3677 54.0206
6.28957 37.6874 101.978
5.82334 12.8012 43.0946
2.40425 1.58286 30.537
4.5899 14.8349 54.6176
5.46608 24.0031 72.352
4.93888 6.2277 35.6125
6.24386 20.6503 26.6818
0.832551 4.05349 33.3624
4.80697 26.2772 61.7108
2.68517 7.72547 64.6581
7.13246 23.9726 66.1173
4.73759 12.7567 28.1351
1.69116 9.99699 35.4362
2.1897 5.62385 25.3991
2.32285 12.4282 58.1018
4.17498 12.024 71.0591
8.73889 34.7686 80.4923
3.90593 6.61872 46.4308
5.63606 12.7341 18.7594
1.6872 10.9998 72.5208
9.21881 33.2485 67.8446
4.40104 28.2347 104.775
6.39495 16.7356 47.7663
2.6855 6.98534 49.4727
5.2805 23.4885 97.386
6.00605 10.3995 92.4512
10.176 26.0164 47.5192
4.22126 13.498 35.3459
4.29874 23.3224 66.9794
4.09875 19.8786 113.025
9.52448 25.5638 55.3843
4.23433 24.4361 90.0217
4.9093 10.1249 79.0483
6.65271 15.0144 68.5631
7.80024 26.5728 56.5396
3.3738 10.1045 55.6457
6.83489 26.7593 22.2112
0.494216 7.82455 30.2241
2.55473 17.8267 59.6463
4.3308 19.921 68.8439
4.06356 19.0167 62.8962
3.01848 7.74001 68.8077
5.62078 14.7769 68.2076
5.12144 11.0657 43.1157
4.06427 9.84526 33.7782
3.36028 16.116 51.03
4.57328 20.454 59.0915
3.41575 11.7804 55.8861
3.4628 8.45843 39.0617
2.48052 1.91627 22.0601
2.4082 11.8975 60.7003
4.33924 6.35095 14.3878
1.46879 7.4582 49.4188
5.05898 17.9891 92.9479
6.47222 11.6225 51.3668
6.45236 19.0367 38.9923
3.81027 18.8671 78.4301
8.32691 42.2342 117.011
7.25826 31.3487 116.483
7.28325 6.57452 39.4153
5.59827 28.0401 102.797
9.26036 35.822 76.2913
4.59528 10.5056 29.4759
2.95798 16.0711 65.792
4.73637 8.47018 22.5163
1.79584 7.66804 24.114
2.93267 18.7769 50.2073
2.50764 4.80451 38.5575
4.22807 12.8333 31.2809
2.06147 13.2778 74.8377
4.99871 16.102 65.8694
5.66844 18.5789 77.3395
5.09477 9.40103 23.8391
3.40614 18.8887 70.9171
5.96064 26.8472 121.301
9.50912 24.7788 74.7306
7.46978 32.6626 87.9071
6.9481 31.333 58.2887
2.67294 4.71823 5.61799
1.07868 13.9556 35.618
1.91512 23.2711 113.736
6.91001 11.3618 49.3701
4.32575 18.5754 89.1825
6.49805 18.9907 60.1658
4.96557 30.9732 111.531
7.95212 16.9768 29.5668
1.60485 11.9941 66.3254
4.02371 6.32722 48.5621
4.57002 14.7996 20.9525
0.387348 9.20466 143.729
12.3681 33.3995 45.2353
2.85193 8.88193 26.1086
3.00743 23.7035 65.7704
3.37294 2.73945 9.9392
1.09393 11.5561 96.9303
8.82963 35.7373 78.196
3.3152 4.60371 25.9486
2.24886 12.0974 68.2221
5.76793 14.7786 36.0041
2.86391 23.9975 64.5647
3.00378 1.72096 47.09
4.7095 14.4522 38.3267
2.34744 2.74458 22.2836
2.88392 15.1087 21.1501
0.880168 10.1301 42.2157
2.37563 14.7202 99.9842
7.60366 14.0087 67.0462
5.60878 10.6745 30.1508
2.9251 8.79369 13.967
0.814071 4.39653 32.2731
2.22487 6.28654 75.5425
6.43294 15.4154 12.6981
1.70051 11.3989 27.5408
2.43786 12.0331 48.5421
3.64127 19.8684 61.9471
3.45589 4.95632 32.1026
3.38786 18.9651 84.4186
6.5099 18.9041 54.292
3.08194 6.77717 29.5187
2.30699 5.3064 36.8089
4.31822 16.7605 34.9499
2.40151 9.79464 46.3938
3.81572 11.621 20.1617
1.30711 7.31962 39.0133
2.26261 8.47218 40.8573
3.51811 7.0069 6.36962
1.04687 12.6181 57.0701
4.33519 14.9354 55.9285
3.34695 8.00473 12.7943
0.845466 3.90695 10.5977
0.966167 7.15838 35.099
2.79768 4.56879 5.54702
1.14181 15.2032 59.6397
2.93023 9.13196 74.3466
6.75667 21.4704 32.8961
2.6356 31.0218 128.133
7.64172 7.33285 21.9771
1.69411 11.968 72.7352
5.84539 13.8804 34.3273
2.62219 15.4107 58.6781
3.62336 6.45583 29.3925
2.738 13.1478 35.5511
2.44749 20.1829 141.461
10.1881 21.1592 55.3377
3.57536 9.28306 18.4293
2.385 21.2611 70.5553
4.56644 9.71772 31.9646
3.09293 13.3158 26.837
1.28992 3.90566 30.8631
2.2747 5.18842 78.487
7.22338 14.7902 18.1197
2.31042 18.4349 91.9732
8.56118 50.3337 105.448
4.19811 13.1584 108.508
8.01143 20.1012 59.8487
3.8767 13.0295 28.5824
2.01186 9.88187 76.0501
6.09741 24.9172 79.5929
4.85443 9.99912 45.9677
3.33905 13.5796 50.7174
3.86114 14.0564 36.7346
2.91814 9.92009 7.7042
0.874855 12.2001 31.7306
1.70349 16.0712 99.1979
6.66967 30.2558 70.0485
3.24126 8.79144 65.8607
3.99592 3.57487 13.2511
1.34928 15.0132 91.5951
5.44979 8.75732 17.9008
1.18754 4.51855 38.8519
3.31413 16.2806 64.0379
5.26275 23.2378 84.1
6.22305 28.4505 101.488
5.90404 11.618 57.2451
4.67957 12.414 50.7433
4.39921 23.9109 44.5663
2.17805 8.64263 51.3876
2.97912 3.98597 28.6808
2.11299 5.01827 8.86781
1.36147 15.5058 47.0597
3.54027 21.5064 61.0383
3.01955 4.30104 60.8914
4.667 8.11294 11.6016
1.57405 19.7016 61.0206
3.61269 10.1807 47.7187
2.94374 8.23665 31.1869
2.44799 8.33094 23.627
1.86162 7.36458 62.1228
5.04204 17.3987 77.269
6.48076 45.8197 115.56
5.74864 14.8845 58.2937
4.41784 14.3521 22.5734
0.82441 4.33115 30.9449
2.66059 30.9889 116.027
5.58984 3.51129 26.776
2.13275 10.8521 45.5554
2.57547 7.93403 42.7315
2.78173 14.2314 54.8094
3.43626 13.0577 73.5433
4.60293 4.86211 19.8493
1.79358 8.04099 34.6516
1.97511 3.6019 23.271
1.8693 7.6505 34.6279
2.06253 9.43289 42.7099
3.85935 20.761 61.0959
3.16828 11.2344 39.453
1.94587 2.20206 56.6844
4.25309 21.2597 29.967
1.69539 11.2046 68.1852
4.46011 12.6018 38.0435
2.47705 5.64074 38.2547
2.61143 9.05827 23.4769
1.46756 7.93659 40.5327
2.78378 28.6417 133.124
8.62388 30.6355 88.7992
5.70478 10.912 9.43911
0.898184 20.4119 95.587
5.26415 13.5449 120.119
9.48428 33.5023 64.0873
3.34363 2.86494 66.4302
5.84963 36.2931 104.79
5.75155 17.9891 134.075
8.92228 19.8855 38.5157
3.1671 24.8791 177.907
11.4545 24.5711 116.995
9.66801 39.5645 55.696
3.15004 32.1162 72.8882
3.49114 7.25207 66.1161
4.5786 21.4706 82.6736
5.41481 11.5434 13.8035
0.883831 5.65956 26.5788
1.42507 3.03757 15.4987
1.23802 5.59883 20.3919
1.385 11.2903 90.0563
6.15298 20.3063 50.8327
3.15453 26.6099 161.924
10.6729 27.837 65.853
4.24757 13.0544 16.9624
0.637503 4.15069 44.6417
2.99312 14.4446 12.1945
0.740229 11.3564 33.241
1.5414 8.50406 122.507
8.23115 12.0368 42.541
3.24253 15.1677 53.3971
3.8275 16.2805 23.4362
1.3865 8.93669 18.2515
1.03106 7.95246 21.7719
1.41804 3.63157 44.7735
3.51888 20.8505 36.9444
1.79424 6.52963 54.2523
3.40631 10.997 60.5887
4.58092 18.5835 46.5202
2.44697 10.9443 76.9365
5.49014 9.72589 22.9098
1.57919 5.21553 19.1095
1.6504 15.3844 69.5478
4.62457 21.3781 72.1821
4.11411 5.00961 29.482
2.0559 13.964 36.0733
1.75784 6.31445 22.5928
1.34157 5.77577 68.9641
4.5764 10.7175 16.2754
1.41549 10.6113 75.0406
5.0272 16.9996 61.9477
3.85022 13.3372 37.486
2.35896 11.5936 32.3471
1.87792 14.9171 35.2482
2.05022 9.0875 64.412
3.4844 9.61867 10.341
0.721103 11.051 53.5871
3.08306 0.596937 45.1904
3.01928 10.2524 10.1683
0.756867 4.82698 10.6328
0.676964 1.17685 19.5781
1.30085 11.827 56.2194
4.14892 14.4669 59.2604
3.69263 5.99934 21.2974
1.41985 10.4557 56.6426
4.12068 9.61475 15.0428
1.51838 27.01 113.365
6.69528 9.69432 17.2268
0.922014 7.30965 50.7951
2.72409 2.30764 42.6723
3.0102 8.82805 27.1103
1.78009 10.9337 7.04043
0.754475 19.5252 72.0938
4.17087 5.77939 22.0841
1.26276 5.05819 24.3501
1.64266 15.6384 69.8537
4.33568 19.2387 50.4292
3.1859 10.7134 47.0822
3.22506 7.43585 45.6537
3.24417 9.78602 24.5271
1.51601 12.2448 35.8667
2.26551 7.92885 30.2845
1.93568 11.3562 70.0773
4.60072 11.5139 70.2349
4.7239 27.8617 79.2933
4.66461 13.2477 54.9694
3.36808 8.13089 22.2512
1.50772 3.59368 29.8537
2.45032 14.1269 42.3322
2.48447 6.0343 32.3
1.66484 8.60371 46.576
3.24393 10.8029 64.068
4.3544 9.33598 20.1595
1.49206 20.167 30.2668
2.0679 26.4432 94.6829
5.6683 10.0273 77.937
4.67392 17.033 86.7051
5.28209 11.7784 22.7824
1.19003 2.84352 62.9502
3.9189 16.8107 17.8201
1.06768 6.58179 42.999
2.79846 15.5258 88.1068
5.42243 11.9966 61.7216
4.28227 13.886 32.5299
2.10951 17.7025 67.0047
4.24366 9.89188 12.9115
0.762969 15.7581 61.1689
3.63265 8.70885 26.2062
1.29683 8.95754 25.9868
1.67305 6.81791 32.4619
2.07511 14.8389 38.6904
1.97176 5.44682 47.2335
2.65391 11.2736 67.2376
4.23223 12.3982 41.5678
2.63499 4.86438 58.0346
3.32703 9.89665 38.3888
2.30909 9.18217 52.2231
3.0501 20.9 22.6759
1.39339 8.62984 34.4199
2.42931 14.8505 53.8638
3.31597 7.22556 19.972
1.26778 5.55832 126.514
8.35762 24.9377 78.312
4.75276 23.5353 121.979
7.92187 22.5541 25.1395
1.9001 18.809 61.3819
3.31848 20.0253 42.8657
2.97711 2.09809 24.2379
1.59805 11.5847 44.4016
2.9546 11.2407 33.0548
2.26136 2.02854 51.0291
3.75719 17.7231 21.1081
1.09213 2.07062 10.0104
0.586244 11.6573 44.4926
2.99174 3.30634 36.0961
2.50381 3.43852 39.8372
2.40781 6.19964 9.91539
0.723036 7.5178 41.195
2.58415 11.383 81.1336
5.35473 10.2152 15.079
0.950128 15.5466 96.4861
5.8096 22.7689 52.1869
3.64376 4.14833 3.3745
0.308896 3.16589 43.4132
2.67789 16.9198 47.5377
2.95636 8.1188 35.4761
2.39861 13.8284 76.1805
4.71031 22.7391 121.752
7.54131 25.1458 115.266
7.87439 26.7906 46.4778
3.00164 8.01838 26.7469
1.68408 11.4186 24.1822
1.46389 6.50475 12.4093
0.543877 0 0