# pn-170911/RbIIR-47-USNO-1280-1959.psd
# Power spectrum* (dif=0,1,2) (really just |FT|^2)
# NOTE: only the first half! (symmetric)
# weeks: 1280-1959
# 11 clock-days, 0 excluded
# PSD: 1441
3118.64 0.121045 0.0300088
219758 4.69397 0.0758478
562618 4.88816 0.0811555
46863.8 3.14767 0.082125
52084.3 2.55534 0.0901537
35783.4 2.34244 0.069255
12484.5 1.63409 0.0705463
12193.3 1.44819 0.0731779
7377.68 1.1516 0.0702334
5396.01 0.788398 0.0966455
4463.03 1.01418 0.0812035
4169.68 1.49491 0.0842751
3367.96 1.19239 0.0801021
3209.64 0.923245 0.0596153
2718.24 1.16692 0.0901749
2901.95 1.08299 0.0706898
1004 0.789137 0.0896401
2387.18 1.35395 0.0866391
1776.62 1.97697 0.0607517
2149.13 2.93308 0.0784181
1698.97 1.74131 0.0581263
753.646 1.51969 0.0903646
1634.89 3.05436 0.0608938
1176.41 2.57528 0.0932898
1123.88 2.40972 0.0859004
1458.05 3.46664 0.0770244
2382.45 5.78748 0.087406
1166.99 2.2492 0.0841465
2448.42 7.26544 0.0772713
1072.36 2.84578 0.0817142
986.966 2.34747 0.0683052
1686.23 5.1137 0.0890126
1743.05 8.04022 0.0959138
2335.51 10.9053 0.186608
1737.72 6.33706 0.0772694
1815.94 9.40094 0.185603
1591 6.99724 0.121266
885.489 6.20595 0.129188
3340.11 20.8073 0.124596
2051.79 13.1562 0.185765
1205.8 7.11528 0.158454
1548.89 11.7727 0.131277
1752.46 12.6221 0.237812
1410.1 10.3281 0.117529
1777.3 15.8775 0.181088
1288.3 9.30195 0.171275
1244.99 11.7475 0.125602
2125.42 21.7958 0.164415
1471.59 15.0424 0.258858
2277.39 24.0141 0.439849
1611.79 17.2443 0.304041
1854.86 22.0883 0.259437
1379.86 15.1885 0.257236
1816.24 23.7437 0.32562
1622.37 19.3322 0.289124
2163.63 28.8046 0.453896
1227.99 17.9658 0.329793
2641.86 37.0453 0.633927
2423.77 34.9201 0.524251
1684.97 25.5953 0.310122
1696.07 25.095 0.535258
1226.21 20.2062 0.235682
2231.92 36.5287 0.892724
1295.72 26.3686 0.555763
1846.67 33.8391 0.576536
1275.39 24.3136 0.486728
1363.07 25.7169 0.667661
893.425 18.6555 0.54459
1069.13 24.5847 0.482682
1733.72 37.3827 0.808604
1036.4 21.4322 0.728436
1200.29 29.5514 0.679917
1370.5 32.1458 0.847261
1998.13 48.3393 1.64815
1001.99 23.688 0.619752
1254.09 35.3586 0.895995
1621.73 43.946 1.14263
746.654 18.1903 0.673681
2244.73 68.374 2.27283
1615.81 46.2743 1.22602
312.299 10.238 0.388333
1139.82 35.2602 0.942257
1041.62 34.5098 1.2782
1187.62 37.1249 1.46786
1409.68 43.3889 1.31952
1962.68 65.3327 2.38652
891.168 33.4806 1.1418
1662.18 65.3645 2.17879
1290.4 43.8441 1.4863
865.718 29.32 1.01889
761.362 25.538 1.19303
389.592 15.9271 0.563713
1430.12 53.867 2.1369
1059.19 45.857 1.80736
1132.31 49.9313 2.01894
1049.83 40.7102 1.41188
622.765 29.6478 1.27148
788.259 31.5533 1.2258
1415.21 55.8061 2.89197
845.387 43.6295 2.3324
1168.38 52.3536 2.82464
637.188 30.4133 1.65852
1375.24 67.126 2.9835
519.71 26.0532 1.32843
841.831 38.0698 1.78314
695.448 32.8167 1.78132
1564.52 75.7342 3.96466
824.404 40.2939 2.49486
462.984 20.4037 0.901244
453.918 23.8283 1.4251
451.54 23.2714 1.48489
1138.61 56.4007 3.69584
833.927 46.5676 2.63535
761.885 46.1759 2.97477
632.983 34.1778 2.1664
373.099 24.4598 1.54596
772.387 49.995 3.11961
719.844 44.0768 2.95596
499.209 36.5431 2.32541
416.063 28.4991 1.8383
816.055 48.4861 3.33555
652.876 39.1404 2.6935
866.075 61.4833 4.7082
374.692 22.2744 1.48069
468.168 30.3322 1.83454
298.265 21.2389 1.65792
429.269 30.468 2.10117
646.406 44.4422 3.50646
265.414 16.9764 1.41641
482.78 36.7777 3.24917
343.055 27.9212 2.35843
605.554 47.0208 3.47994
365.214 30.2906 2.76208
272.283 23.1563 2.32907
427.959 31.4471 2.38634
455.768 34.5751 3.5495
525.315 43.0399 3.94145
330.608 22.4505 1.96102
563.206 50.1872 4.44142
508.936 44.2469 4.62015
365.95 32.7496 3.11528
298.263 24.9519 2.6566
321.973 27.0235 2.31479
326.216 33.2552 3.26094
552.132 51.4878 4.97808
249.67 29.9833 2.94891
407.102 37.8013 3.59945
413.783 44.5768 4.94944
501.083 50.7115 5.15901
286.805 24.7062 2.76118
324.605 38.2922 3.99917
320.703 33.3751 3.61285
283.649 29.4154 3.64945
190.543 18.5506 2.09532
192.32 17.9209 2.0456
241.168 24.7002 2.76503
241.155 20.3575 2.15793
402.395 44.9513 5.09459
168.292 19.6327 2.34561
194.27 23.7942 2.70338
332.703 44.4533 5.69621
188.194 19.4666 2.15159
195.668 21.867 2.52245
440.754 56.9471 7.3472
278.569 34.6269 4.5815
343.71 40.1446 5.36619
138.691 17.5141 2.38543
181.606 22.5855 2.83331
191.326 24.417 3.28074
303.993 44.5919 6.11291
245.839 29.3788 4.06173
172.021 23.0975 3.2184
421.545 58.021 8.30264
234.464 27.8144 3.9486
385.166 47.6599 5.9951
214.516 31.4863 5.11181
150.819 16.8844 2.24121
213.238 24.798 3.3822
174.23 24.0794 3.56911
221.154 31.6527 4.53362
194.913 27.3594 3.68202
217.453 32.4621 4.83812
179.342 25.0473 3.39638
192.373 29.9526 4.7919
258.847 34.7545 5.56588
264.154 44.2656 6.99545
279.129 43.8714 7.19022
152.446 25.2628 4.19062
191.41 28.9726 4.62615
150.124 28.9178 5.09244
194.676 33.1282 5.73666
119.792 17.6354 3.41188
212.471 33.6886 5.64374
145.632 26.7236 4.60046
114.334 16.1807 3.26231
176.351 22.7439 3.40403
232.753 32.9933 5.67592
178.789 30.3144 5.4697
146.116 25.3841 4.39331
159.704 30.5308 6.08475
154.819 32.4999 6.19259
209.22 35.657 6.09413
170.275 30.7733 5.97917
69.9809 17.5946 3.24364
126.406 23.3813 3.80366
162.163 26.37 4.82639
124.922 28.2048 5.64636
133.506 25.5982 5.29898
174.126 38.875 9.19515
244.378 49.2479 9.59659
169.004 31.0918 7.19969
211.693 38.044 7.40327
147.816 31.6932 6.99764
244.03 43.8304 9.88808
151.467 29.5559 5.81128
227.329 38.846 8.9446
96.8712 19.7085 4.21531
204.1 40.5185 8.83346
145.544 26.6471 6.07433
441.891 96.9056 22.2874
154.016 34.025 7.9884
278.373 61.6603 13.788
150.911 30.1653 6.0406
188.672 46.799 11.3119
114.924 25.3809 5.87014
87.7229 20.1686 4.88902
132.803 29.7122 7.03594
145.039 25.6483 5.66951
97.3841 19.712 4.48272
170.595 35.3624 8.5321
94.7597 24.4808 6.30894
117.805 22.2755 5.44566
112.772 21.6514 5.46985
69.6157 15.7452 3.68604
159.521 34.4252 8.88524
51.945 12.3177 2.95842
84.8502 18.8233 5.07687
179.255 44.2979 11.5402
83.5426 19.7109 5.13821
107.993 26.2349 6.71993
92.1539 23.1942 6.10586
63.1456 13.6869 3.65799
91.4292 25.7423 7.61567
111.167 25.1763 7.65458
129.937 29.5851 7.83371
178.53 51.8614 14.0749
108.619 24.2543 6.77898
146.087 42.8143 13.7376
90.2537 25.0963 6.79499
101.841 31.7456 8.93079
75.79 12.2195 3.25779
92.0632 27.9939 8.656
82.0631 21.9625 6.53888
97.7961 28.6034 8.87452
95.8515 25.5818 7.53499
87.6439 24.9058 7.10421
79.5947 19.7789 5.32391
81.3035 22.9514 7.17114
52.7492 13.3474 3.99663
43.3611 14.5183 4.66171
78.6907 24.9671 7.84563
54.1524 17.129 5.36935
54.9524 15.2911 4.65335
100.645 32.611 10.9504
59.5135 13.3901 4.8377
35.4191 10.5642 4.1714
70.781 18.5602 5.45308
118.816 36.4565 11.9784
42.4461 11.538 3.7124
62.6694 20.5595 7.1551
98.9354 34.1473 11.778
117.401 31.1457 9.4863
49.761 16.7984 5.37847
95.2297 31.2648 9.54288
94.6476 29.5105 10.8622
66.2936 24.4707 9.38691
89.2523 32.4569 11.3564
77.6956 24.4086 8.82102
73.699 27.1873 10.2726
61.5661 21.9405 9.1048
71.624 20 6.70499
88.8994 40.2518 12.9549
65.8586 29.3977 11.4677
63.6093 16.2092 5.98297
124.618 47.3648 17.2791
52.9699 22.1325 8.13905
91.4641 38.1969 15.2254
53.5092 17.7713 7.28359
112.525 39.2253 13.6874
84.317 32.6838 11.9066
114.423 48.5226 20.231
54.6558 25.4278 10.5654
101.885 45.5215 19.3185
54.794 19.5974 7.72867
63.4842 21.8423 8.10251
42.6218 17.5147 8.61874
66.8295 25.4973 9.68694
80.0099 27.8872 10.6133
101.239 41.6339 17.4293
62.392 23.9304 10.7089
54.4055 22.3599 10.5548
51.5982 18.7377 7.53498
85.4754 32.0809 12.0207
36.2126 13.3587 6.26338
78.0763 28.9432 12.6124
117.328 51.2873 23.2407
41.8682 18.5007 9.70918
92.5105 39.9512 17.1515
56.0232 24.9177 11.4442
42.3653 17.9402 9.43224
122.292 50.1556 18.2806
60.218 17.6714 7.23948
51.8801 24.7374 11.9644
59.8293 25.0833 11.4773
62.4728 30.1217 14.5803
61.4085 26.53 12.6803
45.1565 17.5148 8.08393
52.8021 23.6302 11.1335
59.0084 19.2861 8.03675
92.3974 45.5062 22.7742
59.1229 24.6343 11.1206
39.8062 19.0685 9.60592
42.2721 24.2779 13.3406
78.6439 37.6405 16.6775
69.3495 23.7091 9.24513
56.7315 23.4817 10.3344
50.1816 22.2861 11.6062
57.26 22.7487 10.6537
70.4272 34.7582 16.7657
49.9867 20.7567 10.2295
73.2569 33.4663 17.0148
74.9142 34.6496 18.7826
61.5708 28.0709 13.4057
91.8168 48.4377 22.5902
51.6568 23.4736 12.118
59.485 27.5692 15.3754
34.788 21.6328 13.3852
65.0937 31.8414 15.1852
49.0712 25.0337 13.9082
70.8477 32.4555 13.5406
50.2936 29.9396 15.4501
44.5076 26.1105 15.4453
66.7211 27.955 13.2383
40.8975 22.709 13.8929
91.7322 46.9875 24.7848
47.9444 30.7663 18.25
91.922 41.1044 19.447
60.8472 42.3742 26.1954
58.5698 26.2103 14.2143
36.8473 18.1081 10.0217
43.5841 21.9441 13.2454
41.0014 12.3548 6.0955
58.9896 31.3365 19.0394
52.8894 23.691 12.5697
39.2904 20.595 9.92154
40.0167 25.7679 14.2774
33.0173 16.2638 10.6746
37.6576 18.9218 10.9867
47.5312 34.5096 20.9149
40.9363 21.0719 12.3462
59.8177 36.9907 21.9547
62.9514 27.3507 13.7451
43.3644 25.5426 14.1252
44.6224 27.8109 18.6376
64.716 31.26 16.5781
44.385 23.2882 15.5803
50.8451 24.1448 12.2667
19.8394 11.5071 9.625
47.0065 21.7362 11.7953
73.7598 37.6289 19.5814
34.0676 25.3705 18.0015
58.2447 29.788 17.7924
25.3915 17.4739 12.6837
34.3597 18.6552 12.7823
47.1377 28.7729 17.459
56.9389 34.3399 21.4168
31.8107 21.5124 12.9725
29.4462 19.4949 15.3993
59.0687 34.2403 21.2336
34.7177 19.0172 10.8159
41.3826 29.1028 21.8008
53.6211 28.3093 16.3605
31.3508 23.222 19.3826
75.1984 45.2723 28.3167
49.8139 23.3256 15.4333
42.1608 21.56 12.3593
31.8548 22.8 16.8161
32.8074 23.2239 15.7075
38.1688 22.8076 16.9115
33.398 20.0528 13.0343
30.0696 18.2341 10.9494
33.0315 22.7943 15.022
36.4752 28.5067 21.534
30.9621 22.2684 15.6965
46.2673 24.7802 16.9905
33.8904 21.8782 11.7857
21.7446 16.577 14.1121
32.9681 16.7244 9.20026
30.9786 19.6605 13.9414
35.2579 29.1301 21.225
30.5301 17.8337 12.9222
23.9703 14.818 10.1927
40.9747 25.5985 17.0109
54.4249 36.2619 23.545
25.8233 21.7799 19.5036
36.3851 25.1684 19.8416
33.7997 21.4312 14.4999
34.4404 22.0599 17.0141
45.1604 27.3452 16.7674
15.6372 14.6002 13.1889
37.9928 24.9326 17.7293
29.7544 24.9158 19.8948
39.69 37.2937 32.1396
39.2377 31.8589 27.3086
37.3254 23.9205 17.6794
32.0572 21.767 15.4781
30.3988 25.4551 17.8924
27.1696 30.674 29.6935
46.6962 28.6548 20.1328
41.7972 28.4396 20.802
43.4794 37.2505 31.1829
38.6752 36.3848 32.3365
82.4801 56.0122 38.1831
47.9462 29.8026 22.4405
32.6254 24.3636 19.681
46.7831 34.599 28.17
38.8306 23.7981 18.9955
55.9459 46.2536 39.8223
38.156 23.4526 18.1148
50.7938 35.4827 27.2918
26.815 15.385 13.7431
35.9071 26.1016 20.5285
23.6969 20.5604 17.5613
26.1048 20.5163 17.5676
24.7213 16.1183 11.3823
33.2134 25.4935 18.8935
24.3748 21.2946 18.9539
31.5189 22.6022 16.0437
39.7408 37.2558 36.246
40.729 26.3281 22.2174
61.3809 46.8565 39.4254
44.5579 37.2382 31.7163
31.6375 20.6164 18.6901
16.3892 20.541 23.6606
52.0545 34.3812 22.4448
21.1366 16.7962 12.8239
36.4127 31.1833 30.9378
40.4109 32.9032 26.961
20.8227 17.5519 17.1573
29.4141 24.6415 22.9416
37.8122 32.0993 29.15
50.5974 38.3747 29.5809
18.2924 15.378 15.036
26.2328 26.1935 23.5782
37.3284 35.2476 35.1787
36.5586 26.8208 22.4757
28.252 24.4419 21.8132
28.0145 15.4325 13.4561
54.2736 45.4576 37.329
29.3115 21.5709 20.662
32.0634 23.4442 19.1793
20.5757 17.2647 18.0486
40.0062 34.9248 30.5522
26.3197 25.351 27.1652
23.218 20.4446 20.8753
40.1232 28.5572 21.3992
12.9431 12.4964 14.351
26.3755 24.6395 26.8433
38.7311 34.4581 28.0894
30.9146 31.1457 27.5257
20.7561 20.3395 19.476
30.4806 22.3703 18.6744
32.4123 25.784 19.8825
19.0257 24.4338 28.1124
26.713 20.2195 19.373
40.0303 36.6821 35.6769
23.221 21.4432 19.3294
22.5828 29.2626 34.5584
23.9477 19.2371 19.6817
27.4451 21.986 21.8012
48.0499 47.7789 44.0494
35.764 27.2652 23.3385
22.1095 19.561 23.2237
33.7648 28.1426 22.1109
18.3064 16.8571 19.5299
24.3348 23.229 25.0305
21.3443 22.4038 25.3327
23.1802 30.879 37.7356
34.6391 25.3309 21.7073
19.8719 21.0989 22.1458
25.9631 26.2667 27.1402
15.2839 19.7014 19.8833
14.3051 17.0962 24.5408
33.2672 29.53 29.2322
29.4648 22.8554 20.6539
32.1854 30.7963 32.8363
31.5584 31.7207 33.2565
27.0852 29.4214 33.8402
17.6533 22.3361 23.9235
30.1918 34.034 35.2789
15.0942 13.9549 16.8049
20.3747 17.9474 19.0591
10.3009 15.4332 22.4747
22.8269 18.0608 21.4091
24.4901 22.7873 21.6522
29.0852 30.074 32.3762
32.3109 31.3316 31.3755
15.8021 21.1395 30.0595
54.2052 42.4175 38.428
36.8636 31.6932 29.4419
28.7963 31.8502 38.047
36.4452 42.3803 46.5911
22.4961 19.2577 20.1124
21.4777 32.5621 41.2664
37.4716 37.3296 36.5071
10.4017 13.0955 19.5382
20.8135 24.3239 29.5659
25.9245 22.7396 28.2744
27.045 28.2674 35.1682
26.9193 25.051 29.3635
25.5704 30.766 35.0253
28.1593 31.1558 31.4655
24.7188 28.9056 36.1157
34.6788 42.4591 47.3564
38.4128 44.4146 46.1478
20.6579 20.8664 28.6516
15.037 19.0253 23.6189
33.2158 40.7815 46.6177
28.2893 36.0546 48.6342
32.1993 30.0568 30.2147
41.4266 55.5153 73.005
25.3972 19.0039 24.1831
56.8997 67.5309 70.3977
26.5069 29.996 38.866
19.7911 24.7278 35.6031
21.3101 17.3928 13.1078
25.8172 30.7079 31.942
24.6935 31.2812 41.4948
22.9044 27.2031 34.9652
20.4385 21.7661 26.34
19.7814 21.5436 25.6083
13.34 13.9674 19.3369
13.0397 13.531 13.7619
15.1312 20.4272 18.7853
9.63732 18.1669 26.2911
20.8253 19.9235 18.746
11.8724 21.1229 31.3087
18.838 21.2034 24.6351
16.8867 22.0257 28.9498
15.4129 20.0732 22.3996
11.0996 22.0694 35.6471
23.8667 22.1389 24.9781
9.8151 9.76737 12.9931
14.1649 15.5047 24.9252
15.4485 15.9798 22.3019
21.928 26.8733 36.5194
27.6249 29.5555 39.8754
30.3868 31.0057 30.9492
8.39745 17.1537 31.5833
20.3195 28.845 34.6392
22.9028 32.8912 45.8207
17.9027 22.9287 36.6376
27.981 26.9891 33.9355
31.7091 41.8385 58.3937
24.0825 33.0071 48.1192
21.766 25.3948 33.6719
30.1376 28.16 31.0892
23.6267 27.4945 38.3748
31.5492 30.6622 24.6248
30.0599 38.4043 42.3131
13.5068 23.7018 41.2899
31.8552 39.9721 50.6909
15.4913 24.4373 41.1975
17.7356 23.5405 29.5145
19.8323 34.9584 54.681
20.1252 25.5261 41.0346
20.6497 21.0003 23.4718
21.0191 31.4188 40.5899
16.0498 23.4407 33.9361
15.577 19.3052 29.3426
14.0054 16.3086 23.0817
19.1199 18.865 24.7345
24.4077 33.8355 47.3434
13.842 13.0309 20.1284
15.0125 24.8185 43.7329
18.0655 19.7887 28.5244
19.6416 21.2706 29.6339
24.8696 34.4328 45.1844
19.8212 29.5489 47.3081
17.8892 25.577 36.0895
16.5326 16.1611 23.1647
18.0903 27.8248 40.9636
19.4181 27.8205 36.4778
20.6575 25.6232 37.0084
15.5613 22.0046 24.5467
9.34502 16.0055 34.4795
24.4294 28.7924 42.7009
24.8825 34.5761 48.9095
19.4314 18.2191 24.2405
24.8131 36.1986 52.852
26.7075 33.811 55.0861
21.2329 30.5447 48.6767
21.7688 23.7234 29.0742
20.1696 31.722 49.2302
20.8631 27.8924 33.4081
16.3941 34.3739 61.7352
25.3725 29.3668 36.753
9.78851 14.8696 23.9701
21.0943 30.127 35.7629
12.7889 27.3843 51.5287
13.1674 12.4871 17.9205
10.788 19.4257 28.4886
18.026 28.1859 42.5126
16.2534 24.572 45.6831
25.7956 36.8856 54.8474
20.7459 32.7989 53.7655
21.5312 28.5792 44.7576
14.1074 19.0911 31.7706
25.9839 36.0644 48.6896
17.8758 31.5344 53.0146
21.7295 30.4392 49.693
16.1128 20.114 27.3999
14.2279 23.9906 39.6076
16.1669 24.2175 39.5937
19.3506 25.9397 31.0546
11.1767 21.7816 34.4294
13.0937 12.9193 22.8595
12.1044 16.1382 28.3245
19.5264 41.1905 74.4781
24.4311 29.3182 42.7285
15.5406 20.6184 27.1942
14.1743 24.9373 47.3072
17.8941 29.4287 58.4524
18.4735 18.3435 24.4597
14.0475 21.7372 34.4686
24.1728 34.7862 53.8835
14.5085 15.6917 27.3407
26.1438 38.5847 64.4036
31.5285 39.7067 51.2561
17.5631 28.6174 46.0688
16.5446 21.4902 31.3128
9.90904 17.2424 33.5142
12.3839 18.8178 25.1525
7.73668 16.2149 31.3969
12.8842 15.0802 23.9099
11.4731 19.4714 39.1478
18.0828 29.8816 53.1652
14.1601 20.2112 30.3356
12.6009 26.6023 50.6389
12.4237 28.5368 66.8979
19.769 28.1963 40.0272
11.6932 17.326 37.6107
12.1314 18.5012 31.173
21.3934 28.8303 45.8478
12.9368 17.4638 24.1429
12.4429 21.6419 44.4095
23.2657 27.7908 37.4894
15.2409 27.006 56.0239
42.7543 81.0566 123.992
22.2149 44.5215 106.892
35.0925 37.4305 50.8352
23.6199 27.4417 40.1653
18.4382 31.594 40.5899
17.3012 39.6967 84.4129
27.5092 43.5776 62.0016
12.8112 18.3786 31.6721
17.0147 33.428 63.265
14.7462 24.3827 49.8593
16.5379 29.0826 42.5176
15.6619 29.1927 47.1512
8.58193 17.126 44.4154
14.3871 23.4597 39.8935
13.5876 24.8128 39.4334
9.22961 17.1517 40.3045
17.3581 28.3912 49.3344
4.31855 16.0337 47.5606
13.9151 22.6001 42.1995
20.5185 36.5375 68.2707
18.6453 33.1985 68.3119
22.279 27.7077 33.0775
11.5222 26.8173 42.0035
12.0582 22.7569 46.0952
12.9481 28.5726 65.8348
27.1328 47.8343 71.6657
10.3476 15.236 33.1136
15.0297 25.2834 39.4497
9.39653 19.9834 57.4131
17.7132 27.4319 37.9507
12.75 26.6882 50.0374
20.3876 36.2065 58.3128
11.5089 23.3329 46.2668
14.6071 20.7809 44.0473
22.8767 39.0128 58.2045
10.3992 20.7313 38.6964
14.8147 25.2331 45.3195
11.4731 26.1712 56.7044
17.1671 26.9181 49.6869
12.6034 19.0215 32.8474
10.6212 18.9708 33.944
12.3211 26.8123 54.7143
10.5707 20.779 42.6388
8.21059 13.4454 27.531
9.53858 18.6519 36.8773
9.49106 12.0903 25.5179
10.056 21.1854 45.1916
10.0674 17.4108 31.9988
9.19769 19.3489 54.7417
15.1565 18.4791 22.5965
12.2776 28.8172 55.9039
20.3751 36.0628 65.2809
10.2607 11.8233 29.393
13.22 14.8149 31.307
12.7779 22.2688 37.9727
13.4325 21.4774 36.4176
13.8962 34.3857 62.8832
9.01093 13.9545 34.9986
9.30896 14.6832 31.4105
11.9817 25.2492 68.1755
26.6218 42.2869 63.2839
18.6662 39.4992 75.9923
12.7776 20.2275 40.814
8.14802 12.2341 31.0084
14.2867 21.2214 32.9502
16.0045 39.236 73.3578
11.2577 19.6944 32.243
10.0351 18.4235 36.7008
9.06101 17.0197 34.7726
7.57361 12.167 29.0488
13.1573 24.7685 38.5842
7.39307 17.6571 40.9569
12.2157 19.3197 37.9092
12.068 36.3713 83.5559
17.3255 26.3508 42.3617
10.7879 23.6007 44.2428
5.48889 8.11067 24.7917
11.0216 21.0658 45.4755
20.4802 42.8547 71.5255
8.22463 24.4347 73.6936
14.6613 23.6104 59.656
14.9593 22.2903 36.9915
9.86769 22.5489 52.9349
11.3576 16.2456 21.7491
6.16181 19.9615 52.1989
9.06324 13.7989 36.9646
8.76503 15.8073 35.7488
10.6024 13.7469 20.6048
8.42278 15.3685 31.7545
7.7641 17.7838 42.0997
16.2274 35.9821 73.4785
11.4526 20.2952 51.9799
14.9251 24.9867 57.1169
12.0042 23.7187 46.3983
12.8768 27.1413 63.1081
9.61703 14.2592 33.5918
13.928 26.5631 57.5163
12.3759 26.7729 59.1863
11.7972 20.1455 33.5631
6.28385 16.5208 44.8444
10.5789 20.3872 41.2817
12.0365 24.7107 51.4267
10.4203 21.3336 39.3726
11.8998 31.5338 63.4692
9.6781 15.0757 34.2124
11.5539 27.0616 58.6094
10.2899 18.0387 37.5287
9.83207 18.927 40.4564
7.22879 26.0022 68.5156
7.53379 13.4547 42.2134
16.1603 29.3914 61.5712
16.3268 28.5811 52.9013
7.00844 13.5991 31.2339
9.24804 13.5649 25.881
8.94702 19.5393 45.8623
8.98674 22.2169 45.15
5.58648 10.1594 29.1624
11.7299 32.1548 71.099
9.36651 19.4456 47.4793
9.63047 15.6148 48.7567
15.675 40.9264 86.7439
12.941 23.2197 49.4663
11.2587 19.9944 49.6245
15.8516 33.1606 60.9871
10.5447 20.0679 41.0261
9.63375 23.5893 45.495
10.8856 24.8868 59.295
14.4595 28.9428 51.6939
8.48155 18.604 51.4531
5.79078 15.0561 40.1695
5.30084 12.8789 51.663
13.2761 24.8285 54.3144
15.1498 30.9465 47.9471
9.35374 27.0576 53.2399
5.51953 17.75 59.0753
9.83101 17.7052 38.6162
7.2855 14.8999 30.3242
7.26345 19.1363 45.0094
6.71725 10.2465 22.1518
5.28891 12.5658 29.1682
5.80555 12.3418 38.1024
14.0724 34.3818 67.9653
8.6663 17.0702 48.5295
8.03539 13.3954 41.6936
10.9013 21.8834 59.6575
14.7346 33.6614 60.6741
11.6792 31.9765 68.2433
6.86915 13.6942 46.5207
12.2858 31.1264 58.411
5.8619 11.2296 38.1527
8.82747 16.9007 39.7309
11.2803 28.1146 47.303
6.24672 15.2556 41.0606
7.99656 26.6116 69.712
10.9691 19.9883 58.2113
10.3943 17.0059 22.4301
6.8531 18.3859 49.6182
8.64787 18.037 34.81
4.22167 8.49114 27.773
7.4913 21.7298 50.4332
7.98266 18.5105 51.2673
7.37189 11.4948 26.7151
7.26129 13.0354 25.7743
8.22831 23.7543 42.6971
5.38125 20.1624 63.9003
8.32592 16.8076 61.0194
10.4755 25.0358 71.0733
12.2723 23.3554 52.7486
11.7294 24.5875 57.5838
9.92973 21.5809 54.4667
11.7401 30.8056 61.6332
6.01167 19.3653 59.9092
10.73 21.5205 51.1665
9.9043 20.1938 56.9763
9.76729 19.4498 47.2143
10.1489 23.3921 65.209
9.09928 13.8078 28.193
5.61817 16.3647 41.3758
8.56142 14.4649 42.0368
8.02025 11.0554 15.7987
7.80292 20.5545 43.2035
5.76196 13.4523 36.1114
4.74994 11.6027 35.9173
7.41651 16.2589 41.3997
8.77821 24.4838 61.3312
9.22991 27.0812 61.9291
7.57535 12.978 26.8275
7.09879 17.6842 43.587
6.72772 15.692 35.1875
8.95856 25.2588 67.8554
9.85821 16.109 39.6066
7.1034 23.21 72.181
9.54329 16.6882 37.8058
5.85765 17.6668 59.2529
12.2479 29.646 53.8298
6.69185 13.3815 40.7914
8.41762 20.0624 50.2616
10.4387 27.2464 58.6644
7.99582 21.3113 50.6193
6.38079 12.7544 35.5272
4.5251 12.3415 35.0982
4.0962 6.89603 32.2972
8.76221 26.0666 65.737
7.9667 17.3558 41.2334
6.15974 15.5846 50.6669
7.40458 13.3611 39.8487
9.64176 21.9409 53.0697
6.84591 11.8772 33.8429
5.79395 8.15952 19.6858
5.66944 16.2969 36.0791
6.10444 16.8031 53.1814
10.1751 21.1901 63.693
9.40999 26.6922 82.351
13.9216 21.1789 22.8083
3.15536 8.02017 19.4917
5.45325 11.2903 30.1023
6.08272 13.3955 27.9781
3.42839 17.2551 60.3716
11.7445 24.0754 58.1618
7.28753 12.0849 27.0349
3.65792 14.1718 56.2814
8.48065 26.274 54.7814
7.98692 16.4613 51.8559
8.45733 14.2636 25.2648
3.75181 11.2818 33.1721
4.24874 13.5944 66.3725
14.5111 33.826 57.5813
4.37342 10.1984 45.2755
9.2853 27.3156 68.953
9.25172 20.9523 51.2736
7.00758 10.7184 30.7976
8.12034 21.8068 58.719
7.00452 12.6209 17.0717
2.80619 14.545 46.5225
9.70072 27.7156 71.0112
7.34278 11.8024 40.9704
8.14262 19.0209 56.438
8.6145 20.472 38.0963
6.25414 25.9777 91.9956
10.3517 19.8326 43.8568
5.37899 13.8578 35.4464
7.98906 30.3028 73.5617
7.74854 16.2841 44.1917
7.43829 20.315 78.0178
9.85535 18.3735 45.4409
4.15135 12.4024 38.494
6.59624 17.7338 44.7192
6.31108 16.7334 43.7121
6.12081 15.7921 41.2589
4.97248 9.71836 28.3278
6.83562 18.9559 44.5172
3.88915 9.09255 37.3062
5.78895 11.1259 37.6303
8.52953 23.6385 51.1088
5.11875 14.795 49.3626
5.29038 11.8108 41.5114
5.35711 10.4786 26.0979
5.60746 24.5067 64.327
5.77751 10.2706 51.8693
7.27716 15.5963 42.4147
6.61153 16.6723 37.6303
5.63202 20.0663 46.1915
3.36713 8.59718 36.951
6.8399 13.0371 24.4226
5.26087 17.9635 50.3085
7.37889 16.2098 41.3927
5.08145 13.0706 36.0288
5.87794 18.367 53.5808
7.71552 22.564 60.3612
5.19515 12.1331 34.0852
4.32178 8.45814 22.4414
3.20526 10.9499 45.0229
5.81123 9.83186 45.1408
7.45733 9.75757 18.8668
6.79092 19.5019 46.5004
7.25697 18.8998 50.707
5.99083 21.2974 64.6516
5.02994 8.51793 37.4165
7.91482 17.0326 48.2879
7.22745 18.0969 58.1222
7.42255 23.4299 62.0802
4.7185 9.12239 28.4706
5.62588 14.4242 31.5115
3.15505 7.36252 36.8545
7.66628 18.5099 49.0247
5.91623 8.26254 47.043
11.1858 22.5265 34.2696
4.43232 18.6319 53.8479
4.34366 9.56863 61.319
10.6175 23.4768 42.0021
5.1687 14.859 39.6421
5.53555 21.0672 63.3352
5.59863 15.5297 50.455
7.18732 17.79 40.8003
5.05937 15.0421 45.914
6.12573 15.3238 58.8233
8.01385 16.8633 33.3058
2.60875 8.76971 51.6688
6.69254 15.5476 41.0205
7.11296 15.5307 37.1294
6.61874 19.3455 56.7613
5.4636 13.9777 48.3211
8.09524 26.6623 63.5611
6.19601 20.0823 54.7922
4.84292 10.3968 32.2763
3.65004 9.80965 39.9629
5.96508 17.1909 36.1256
2.83707 6.65815 27.755
4.6584 12.9531 42.641
4.84632 11.1043 33.6421
5.40682 12.8641 46.7138
5.55012 16.1304 58.9106
9.09085 18.5959 41.354
3.53713 12.4314 35.5464
4.58474 10.255 39.1174
5.78549 15.9422 40.6239
5.56725 23.5756 57.9577
3.77472 7.52974 43.9365
6.9759 17.0898 54.724
6.21584 13.0466 35.2537
5.59297 18.4764 40.2099
5.9135 20.2843 55.436
7.18677 11.9937 25.969
3.28746 8.96112 32.8855
4.48864 18.0256 53.3402
5.56345 16.6928 64.5829
7.05745 13.7745 41.8421
5.7316 18.8109 67.221
5.99575 16.6099 42.3237
5.34608 15.6446 60.4452
6.71938 23.5092 81.1156
7.01201 11.0212 27.1129
6.05698 20.6943 33.9809
2.4836 12.8656 34.292
3.07188 9.69387 41.6968
4.82325 11.7165 34.4037
3.5835 15.2438 46.9385
4.04135 9.62579 41.1176
7.24844 19.4112 50.9614
5.3066 16.5418 66.6344
8.78328 23.3745 80.7021
9.48713 23.702 43.7788
2.41755 15.6827 62.4373
4.83369 8.55171 38.2801
6.87106 17.9279 76.3458
11.6468 22.8178 43.8286
2.93359 9.56116 41.4284
5.48586 16.7243 49.1338
5.47011 15.8515 45.6941
4.93769 14.9304 53.5042
6.94019 14.8053 29.7603
3.51693 14.7877 42.8487
4.9238 18.3538 90.4329
9.3345 15.1269 32.1087
5.17449 17.1816 53.232
6.7726 12.9059 33.4537
4.8003 14.4132 49.96
4.34702 13.607 42.157
5.59613 20.9925 56.917
5.39059 10.4673 40.3257
5.73769 13.74 37.6112
3.76377 8.05521 23.7922
2.84929 9.70426 42.2645
3.57615 14.5858 41.6277
4.27473 19.1006 83.1787
7.02954 11.3103 40.1376
5.06913 13.4639 37.5837
3.39066 12.6747 38.9901
3.07463 12.3659 32.5829
4.02586 13.6263 53.7822
4.97994 15.4441 68.9724
6.82644 11.6269 39.0899
6.27169 17.1398 42.817
2.71111 9.79607 36.2064
3.85427 10.695 23.4419
2.61619 12.1223 35.3214
4.94282 13.2683 59.3829
5.18348 10.0293 24.7702
3.73676 17.465 55.3573
5.6106 22.7559 50.8023
5.3285 19.598 54.6226
4.49901 14.0392 49.2805
4.49322 12.9711 52.2144
6.17271 13.4821 54.3613
6.44688 12.6498 23.825
2.95591 12.3785 45.9014
5.53441 11.8144 36.2821
2.91479 10.2959 33.6943
4.292 9.40909 54.6675
6.10414 15.5189 32.5249
3.76059 20.3692 83.259
6.34134 15.9252 45.1023
4.40176 7.38538 23.0588
3.84017 11.6318 28.91
3.64946 11.4954 50.5819
5.09812 9.12932 39.7806
4.82188 10.9096 29.9524
4.68285 21.1056 69.1934
6.43002 11.6293 35.1812
5.20615 12.165 38.1264
4.50413 17.0286 40.8714
2.92866 12.8915 40.7439
3.44317 6.85781 28.5609
2.33005 8.15398 49.7691
5.66441 8.24361 18.3313
2.21762 12.4893 56.8091
6.09368 10.0197 24.1286
3.87691 15.2645 52.5947
4.03797 11.7191 42.6974
6.29724 13.0779 39.1817
4.63496 12.0673 43.508
4.69121 18.026 50.3257
3.68434 10.4117 38.0903
3.98695 12.8338 33.2876
2.50091 9.23245 40.6821
4.54214 10.1693 29.043
2.89106 9.75058 46.283
4.47957 9.10082 19.5275
1.90387 9.96446 56.8759
6.28119 8.24052 29.3625
5.19947 11.9276 28.133
3.42321 9.10623 38.1628
4.71444 15.1255 40.7128
3.60239 10.2761 52.3682
4.60241 15.5417 47.0192
5.05928 13.8109 25.5661
2.46057 11.6841 54.398
4.46458 11.4126 37.7855
5.49605 17.9856 59.0957
3.74696 12.2208 44.4948
3.9799 7.52791 39.8673
7.19839 22.7146 57.4591
3.78335 15.4676 53.939
3.55849 12.4742 45.6596
3.7324 10.7091 44.1424
3.23886 8.89433 24.2855
2.23877 11.2167 35.7867
2.75453 8.64198 37.4993
4.35907 10.8706 44.1801
3.69891 11.879 33.3881
3.08335 7.81736 43.9888
3.84075 8.7699 46.4067
4.62992 17.1616 44.8787
3.80478 11.9168 45.5612
3.68301 7.69626 21.183
3.33599 22.8235 56.73
4.56503 8.65641 24.7121
2.05451 5.99028 54.3733
5.95926 14.1243 29.8385
2.89709 9.41727 48.5087
5.45539 15.656 37.7869
2.57475 8.25928 39.0861
4.30513 18.733 68.9856
6.50889 14.6596 40.6928
4.48157 11.7124 29.7807
3.01701 19.913 68.8962
4.76097 12.1823 44.6781
4.71907 17.1062 57.4676
4.21799 16.0089 55.6716
3.43769 9.08382 50.6693
4.94069 12.4302 33.6488
3.11674 5.56649 15.4619
1.99275 5.51736 42.4423
5.15517 10.5712 30.7344
3.89734 17.6035 58.3952
5.77651 13.2462 36.2235
2.3671 11.5048 53.1807
4.49751 11.7293 42.1698
4.6465 14.122 34.3151
2.79168 9.20187 38.7894
2.54431 13.4456 42.7131
4.69375 22.5882 95.0267
6.80293 16.839 57.9098
4.78944 12.3472 41.0066
4.36942 8.09878 40.994
5.59896 18.5675 72.5172
5.6091 15.7769 29.0256
2.93344 8.71048 29.0822
3.2013 12.0239 59.0321
4.03479 8.46052 17.0498
2.2995 11.8431 35.131
2.08873 9.46401 52.8096
5.29669 13.8481 39.7009
4.0711 13.8121 51.8529
5.11735 20.014 68.2417
5.66658 11.8592 32.8628
2.96408 11.2737 55.0847
5.83618 13.4555 43.797
3.61188 14.4405 56.0538
4.81952 19.5727 68.1981
4.69704 5.69962 11.8248
1.68878 7.89446 37.9658
4.10923 12.2001 41.3131
4.45893 21.4876 91.9904
7.31155 14.0997 37.8602
3.32432 8.70284 45.3087
5.28528 12.788 31.0126
3.08895 15.254 58.7831
4.88202 11.353 47.1862
4.57796 15.2253 35.1484
2.45345 11.1571 67.8467
5.60077 20.2383 51.2143
4.12424 11.4996 45.3792
3.24915 12.2917 57.9009
5.13699 18.8662 31.3894
2.65923 16.6597 62.374
4.435 13.299 74.3956
5.04426 14.2285 49.0385
2.15605 6.1568 23.3403
1.77598 4.41825 12.8027
2.02236 14.3068 65.9317
5.60742 15.8881 65.8955
5.20974 13.7502 36.5931
3.04178 11.6803 27.7675
1.76469 10.4496 51.0962
4.41693 14.2101 40.5679
2.60088 14.8689 49.5661
3.7167 11.7824 43.5926
3.47468 10.2916 56.2155
5.45539 20.2773 64.9635
4.14147 9.09737 20.9509
1.96177 7.24073 48.5636
4.43238 10.7337 33.0485
3.17844 9.80524 35.4602
3.44931 8.78769 29.1963
3.27783 13.5509 46.1305
3.27137 13.702 54.898
3.69066 10.9511 36.0256
3.34805 10.34 44.65
3.83315 11.7367 45.1984
4.18509 7.99072 27.1469
3.02172 14.817 39.9492
2.70884 8.21851 34.0559
4.12068 14.2459 52.4903
3.60332 9.51941 32.022
3.01273 12.4791 40.1725
2.81641 14.0348 69.3601
5.15802 12.3026 46.4524
3.91143 11.8852 56.7722
5.37284 10.1324 37.3055
4.1365 11.1488 28.1284
2.96885 15.5581 65.4098
3.93263 12.3092 51.362
4.47967 10.022 32.259
2.34928 13.274 54.1594
4.52677 19.9235 67.861
4.48139 12.2201 43.1266
3.44541 7.13582 35.2135
3.68028 13.5976 74.1189
5.31703 18.2301 47.3014
2.745 8.69074 42.2567
3.58933 12.6206 38.9566
3.73675 11.2391 29.6937
1.5558 7.64312 49.866
5.27005 17.2849 55.358
3.81099 9.42245 50.9211
3.50418 8.96719 20.2665
1.65552 10.6609 39.2019
2.4343 10.5804 40.6249
3.50519 9.2908 47.1668
4.61962 13.921 64.1357
4.49592 16.1645 43.6678
3.84127 13.0708 51.7728
3.7239 13.4844 49.7231
3.93758 12.2955 60.8416
5.42273 20.5187 64.6686
4.351 19.7872 66.489
4.48907 10.0191 51.2152
3.30749 17.5154 55.7566
4.6541 14.1667 42.012
3.13517 10.3748 29.2752
2.66853 6.68388 44.9695
3.32552 7.08826 31.8784
3.25296 12.058 29.8065
3.06382 7.5787 23.3178
2.1708 10.0446 34.9809
2.29275 14.0384 62.8611
5.65439 11.7155 47.8753
3.39385 9.91112 37.5301
3.09029 9.47802 34.1683
3.12317 6.27516 26.452
2.5346 7.71125 29.625
2.43128 11.436 39.4602
2.30953 6.10934 43.6675
3.7908 12.6372 56.1193
4.69472 17.9236 51.3615
4.23313 10.0577 33.0917
3.16446 14.9336 56.8446
5.04868 14.9752 46.5253
2.85518 14.1092 63.6424
4.17821 19.7696 83.6645
6.67303 21.102 60.6359
4.89212 22.3967 105.207
7.45396 16.6685 82.1809
6.66227 19.0597 26.2343
1.44735 7.35369 43.4845
3.02806 16.6834 51.2333
3.80135 7.21503 45.0377
4.41483 10.7005 39.6407
3.58923 8.71317 39.7173
3.7098 12.8281 21.1036
1.96366 12.5664 57.6301
4.84192 13.7299 58.2832
5.44281 12.7908 49.8196
4.00769 8.62815 29.1901
3.01279 13.7368 52.3165
4.03722 11.9188 37.7854
3.38358 10.9146 31.7906
2.79177 11.9412 42.1055
2.67297 7.97624 44.099
2.88921 9.52288 28.23
2.60512 8.89108 38.8392
2.56702 11.347 42.3014
2.9963 9.3929 57.0833
4.98594 16.3772 42.4992
2.72398 13.3229 36.5706
2.04963 2.96182 50.5284
4.6432 15.3898 33.1705
2.29423 9.00645 38.761
2.9493 16.6873 72.0006
4.58007 10.6869 49.0202
3.37878 14.948 30.8036
2.52963 9.472 60.2484
4.46227 13.7522 29.0932
2.20005 9.1364 39.7522
3.45119 13.7558 71.0994
4.66652 16.5499 73.5136
4.96386 19.8402 62.1791
3.54024 7.1894 53.3161
4.48846 11.519 31.0433
2.59633 5.36846 51.6461
3.76768 14.9699 45.9095
3.30409 7.99182 29.3345
2.98597 8.34416 24.8434
2.73558 12.8821 58.4329
4.33763 10.0296 33.5375
2.70844 12.1181 60.7839
3.87981 12.1776 60.7748
5.55236 17.7068 48.4708
3.49084 10.1562 45.0232
3.079 14.8707 29.884
2.27682 7.23233 21.8269
1.77005 8.69789 49.0369
2.65243 6.18849 29.02
2.78891 16.8406 59.95
4.28407 11.645 46.0493
2.88115 7.67054 35.3395
2.35858 10.9704 28.45
1.42994 7.4666 49.375
3.98169 8.86896 28.793
3.05561 10.2517 31.34
2.57041 10.0096 30.8305
2.18608 8.36901 39.9411
2.85229 9.20172 44.7688
2.20869 6.41091 43.9386
2.74227 17.1842 49.2316
3.52005 12.9634 34.1573
3.03961 2.57999 20.0945
2.0926 11.4022 54.5593
2.93479 13.1848 25.9132
2.4163 10.8669 67.1273
4.06765 13.4614 56.4673
3.85853 7.14046 39.8373
3.64895 12.6616 34.6471
2.71654 9.14223 27.0911
1.78826 10.0972 48.7827
4.93589 14.2441 46.746
3.51726 12.2688 53.902
3.72133 20.7034 38.4338
2.94461 8.60478 49.2667
2.99268 8.8608 62.7691
3.94166 18.5475 37.3747
2.83514 9.13498 62.1929
5.5735 17.7436 73.4395
4.17947 10.7915 33.5134
2.4655 13.2374 22.8089
2.22205 8.15058 33.6875
2.98687 13.5075 64.5311
4.37831 7.88955 40.9597
3.7384 9.11612 30.4695
2.37066 9.32988 31.2181
3.17994 8.15564 50.2108
4.16555 16.1291 45.3727
2.84492 9.89235 43.9982
2.88885 8.8526 63.9029
4.16827 11.0709 32.9987
2.61985 9.67692 26.2915
2.1245 8.53716 31.9136
1.76596 7.88739 44.2889
3.7732 11.7612 27.1467
1.97498 10.9159 87.225
5.55086 17.8144 30.2092
1.9639 10.4092 42.5953
4.02876 11.5564 48.6636
3.82681 9.93827 49.3697
4.47586 11.3277 34.0863
2.01401 8.57998 35.0182
3.00376 9.6878 36.7586
2.1819 7.68974 44.7119
3.6267 7.58842 24.393
1.94622 7.58784 30.2703
2.95572 9.36675 23.2035
1.87641 5.66015 28.4681
1.85258 8.71638 37.5294
2.60011 5.31466 28.3924
2.23316 13.3265 31.3854
2.08921 8.49664 63.6367
5.25153 15.4753 47.2482
3.29275 10.2507 34.8555
3.14015 13.5158 67.7243
4.08132 9.64536 38.5415
3.10234 7.05935 25.984
2.8349 10.7382 34.7539
2.94159 10.5218 60.5982
3.86958 9.47025 40.6907
3.01249 18.2116 65.3722
4.33289 7.95691 35.4942
3.27994 10.381 42.1782
3.35544 5.27669 33.724
1.95013 11.4528 42.0057
2.74671 8.48939 24.7336
1.6401 9.10266 33.2103
3.17558 10.2887 26.3574
2.74134 8.86074 53.0319
4.18455 13.4205 56.8668
4.41489 11.8508 20.6417
1.4048 8.47406 43.0569
3.41065 9.75511 49.0654
4.13703 11.5364 28.9544
1.6863 6.32822 35.9243
3.01916 13.0646 51.072
3.69226 9.77378 17.9174
1.86288 7.16446 50.1663
3.84276 11.0597 55.304
4.15529 14.5034 52.5922
3.80153 11.7388 30.1149
2.36932 8.69023 37.9345
2.10802 9.63172 43.2906
3.29042 11.353 33.8779
3.25704 8.84698 50.2106
3.30587 9.2318 24.8506
1.89485 12.4648 44.7881
2.7654 6.1759 26.3901
1.50253 12.1522 65.7459
5.31249 14.4755 44.4186
2.52061 5.3941 35.2417
3.34407 9.70601 27.2706
1.63842 6.85097 32.8933
3.14592 10.7277 32.5118
2.30107 10.3946 47.4974
2.34905 10.2919 32.3544
3.64215 12.2022 41.1669
3.50906 5.71475 32.691
2.7815 14.061 56.9679
4.63506 13.0854 35.2166
2.54655 8.26476 65.0623
4.56009 11.0004 28.8802
2.10808 7.63246 19.7821
2.21281 8.58009 59.4471
3.97472 12.163 27.5297
2.15059 14.3959 40.1017
3.61002 9.76559 42.5026
2.54727 12.9624 53.3963
3.67281 8.74859 54.1456
4.19439 9.91263 37.4253
2.61575 7.89847 27.5056
2.47009 3.97078 23.869
1.73161 8.04246 36.8872
2.51986 9.29315 38.2345
2.20441 13.033 50.7336
3.98984 7.65958 23.9171
1.6914 9.36989 46.7976
3.2493 8.88355 18.0185
1.85365 16.5822 55.8463
4.34695 10.8228 69.8682
5.72248 11.126 46.9569
3.03683 10.2422 31.6041
2.0209 7.35624 42.1706
3.7788 5.1795 35.4195
2.66403 18.7002 48.5852
3.80401 9.45474 35.5097
3.45139 11.3452 52.8597
5.37365 0 0