# pn-170911/RbIIA-34-RbII-1280-1959.psd
# Power spectrum* (dif=0,1,2) (really just |FT|^2)
# NOTE: only the first half! (symmetric)
# weeks: 1280-1959
# 285 clock-days, 49 excluded
# PSD: 1441
60727.3 1.4277 0.0208991
2.19204e+06 53.5962 0.0332808
2.94258e+06 50.5134 0.0356709
974704 21.6875 0.0324226
588453 18.8579 0.0383709
375168 14.1574 0.0321346
237327 13.2552 0.0371625
169421 12.1746 0.0335636
124702 12.6815 0.0417628
108131 12.8293 0.0393067
81118.4 11.5107 0.0453318
75769 10.735 0.0393956
57790.1 10.2701 0.0438232
58903.3 10.8059 0.0424238
48430.1 11.3126 0.0531447
40060.5 11.2856 0.0444187
32530.9 9.7651 0.0485289
35872.6 9.89091 0.0512318
27202.8 10.1188 0.0586149
24383.5 10.1329 0.0545233
18056.4 9.8063 0.0620804
25318.5 10.2565 0.0578029
22624.1 10.3969 0.0633942
14963.9 9.68962 0.0582554
14154.1 8.88431 0.0583754
13507.4 10.2234 0.0641121
11920.1 10.7237 0.0871861
12574.7 9.8631 0.0748275
11586.9 9.89049 0.072141
10790 11.3094 0.082917
8819.84 10.3424 0.0836693
9486.69 10.2912 0.0880379
8878.97 11.916 0.0943577
7203.57 9.51438 0.0855899
8970.34 10.6062 0.0952787
6928.49 10.2979 0.093901
6647.86 10.3132 0.099996
7080.92 11.3593 0.11004
6400.07 10.7409 0.108168
6477.13 10.8704 0.130751
5604.38 9.91754 0.120113
4879.73 10.511 0.109944
5334.17 11.23 0.135203
4674.17 10.0774 0.147788
4122.64 9.97115 0.135925
4281.79 11.5091 0.140803
4195.7 9.75484 0.118991
4093.21 10.1483 0.151105
3348.78 10.6402 0.161168
3636.9 9.94081 0.156914
3728.28 9.88247 0.165265
3621.2 10.1114 0.156234
3535.94 11.9343 0.194776
3150.55 10.1678 0.181825
3101.12 9.93201 0.176953
3225.51 9.71063 0.169678
3047.34 10.5923 0.204785
3028.29 9.49892 0.201462
2736.63 10.0905 0.207942
2907.07 11.3698 0.231452
2444.09 9.73515 0.195088
2443.42 10.5292 0.222125
2563.42 9.59618 0.215798
2991.73 11.6872 0.270495
2447.85 10.9569 0.269625
2290.89 10.8872 0.256158
2477.7 9.80079 0.283373
2574.65 10.7862 0.287766
2011.43 10.0309 0.290262
2039.88 11.0408 0.285114
2086.08 11.2102 0.334894
1850.57 10.1021 0.315156
1872.57 10.536 0.326882
1813.57 9.91375 0.321847
1777.86 9.95031 0.302171
1703.35 10.3777 0.344515
1939.89 10.3049 0.318566
1737.11 10.7638 0.381795
1547.62 9.02863 0.316637
1529.56 10.814 0.408376
1405.23 9.83846 0.381791
1413.75 11.3154 0.393748
1366.82 10.4595 0.403741
1361.62 10.6409 0.437669
1400.46 10.7225 0.400019
1451.95 11.104 0.41569
1115.49 10.6488 0.421996
1145.84 10.599 0.466433
1245.09 10.5811 0.422909
1050.81 9.76036 0.430965
1067.71 10.0178 0.420791
1107.74 10.1305 0.46205
1043.47 10.0585 0.450002
983.606 8.82521 0.399692
1001.29 9.43732 0.457845
1144.08 11.0843 0.540404
889.063 10.2601 0.497639
1080.93 10.8638 0.515329
1080.78 10.6806 0.559781
911.767 11.4268 0.591368
920.203 9.93425 0.505119
1132.96 10.7825 0.587557
914.915 9.31877 0.496559
943.381 10.7499 0.563999
945.134 9.57336 0.538697
925.154 10.1619 0.564466
668.455 9.29311 0.534348
988.785 9.88917 0.580771
724.095 11.5642 0.651104
773.807 9.32241 0.566518
794.087 12.0283 0.781638
757.765 9.70778 0.600372
769.134 10.8946 0.702253
631.102 9.93721 0.663214
758.219 10.9358 0.707439
792.842 9.60638 0.63547
584.711 10.0768 0.667288
609.815 10.3726 0.708928
733.545 10.6103 0.735222
675.654 9.41188 0.668162
778.459 9.89339 0.704345
596.865 9.87131 0.695656
643.419 9.56798 0.726757
768.108 9.94372 0.759422
684.095 10.4381 0.78188
650.865 9.94983 0.761328
606.245 9.30299 0.731106
541.074 8.91602 0.689612
582.723 9.85326 0.783197
602.658 11.1818 0.906901
540.084 9.80286 0.850447
551.555 11.2109 0.980763
531.935 10.209 0.952952
523.973 9.28332 0.802589
535.518 8.5739 0.763693
558.153 9.5789 0.872339
597.46 9.08835 0.857445
467.705 10.0295 0.936779
515.428 10.3751 0.948235
517.269 9.57593 0.885531
450.109 9.09751 0.910129
458.774 9.71271 0.952846
432.387 9.93184 1.00698
438.38 9.46781 0.992426
471.359 9.97556 1.0494
441.872 10.3496 1.0661
418.131 10.3609 1.08647
428.324 10.824 1.20298
399.964 9.87857 1.03889
434.858 10.1287 1.11415
425.954 11.4969 1.26039
405.577 10.583 1.17137
468.725 9.67903 1.07145
454.024 11.7446 1.35046
417.624 10.942 1.3095
373.454 10.2491 1.16899
381.75 10.1463 1.19196
363.866 10.7992 1.28653
380.733 10.2486 1.23081
358.875 9.69861 1.26521
361.53 9.51204 1.19402
334.803 11.1559 1.43867
383.091 9.51228 1.18862
364.29 9.5319 1.25721
434.298 10.6531 1.3875
440.071 10.9411 1.42115
363.777 12.3894 1.58623
324.561 10.4212 1.42042
419.188 10.025 1.34195
335.852 10.7705 1.43337
359.639 10.2148 1.37399
281.291 10.6177 1.52964
284.079 11.9365 1.63799
344.443 10.3886 1.46712
304.195 9.91586 1.42452
273.065 10.3599 1.54668
325.685 11.4978 1.73091
321.413 9.97677 1.49949
330.956 11.9582 1.84728
319.656 10.8002 1.69657
292.435 10.8915 1.72474
372.611 11.5316 1.89683
237.519 10.6481 1.68376
312.49 10.6848 1.68165
303.711 10.7622 1.72995
310.936 9.11693 1.53101
300.973 10.8207 1.75666
314.285 10.6093 1.82114
278.522 10.8454 1.78944
254.002 10.3391 1.78333
272.845 9.75585 1.67999
304.678 11.1588 1.91121
245.439 9.7172 1.67841
302.045 10.5085 1.83142
246.571 10.2183 1.82949
263.036 10.6325 1.85766
238.328 8.67595 1.56302
263.981 10.3299 1.88221
235.6 11.3282 2.10374
239.379 11.0172 2.05811
246.481 10.2248 1.89352
241.222 10.763 2.07
227.944 10.4009 2.06393
275.369 12.399 2.48355
267.904 9.97528 2.00737
239.13 10.5594 2.10704
265.588 10.073 2.00031
250.733 10.0287 2.04466
232.07 10.6619 2.21166
243.493 10.749 2.27271
248.461 10.5087 2.13598
251.197 10.543 2.16065
251.151 9.11054 1.90613
239.247 11.2206 2.41978
217.891 10.3313 2.2358
216.674 10.3995 2.30918
233.328 10.3311 2.27699
218.927 9.96918 2.20064
212.484 10.3697 2.3463
223.929 10.6138 2.44149
207.28 10.434 2.42074
232.688 10.2911 2.4317
233.303 10.5324 2.43704
192.835 10.2306 2.44105
207.861 9.76795 2.32747
228.006 11.0971 2.66033
196.676 10.3062 2.48643
171.825 10.877 2.67421
182.808 10.669 2.70795
200.91 11.6368 2.82191
180.084 9.03845 2.25512
183.902 10.5645 2.67597
191.789 10.0066 2.6221
198.483 10.6688 2.63717
173.655 8.76337 2.34655
184.827 10.5697 2.70404
173.909 10.6336 2.76948
171.426 9.95765 2.6615
179.813 10.5131 2.87279
191.262 11.5169 3.08796
149.077 9.91951 2.73995
164.923 10.107 2.77338
183.452 9.95686 2.65479
146.362 9.71632 2.72788
148.554 10.5759 2.93873
162.56 11.6582 3.29715
172.13 11.137 3.24712
158.91 10.5499 2.99773
164.456 10.5505 3.04282
172.462 10.2944 2.90087
164.735 9.69253 2.90336
182.558 12.1572 3.63265
149.408 11.2432 3.21935
149.492 11.1839 3.4559
165.235 10.1893 3.03063
130.74 9.89708 3.07775
157.217 9.4154 2.95972
168.417 11.1054 3.50284
139.167 10.8911 3.42136
142.078 10.315 3.28877
168.169 12.2113 3.81046
151.652 9.78797 3.1571
123.514 10.4535 3.41898
141.997 11.1577 3.609
136.949 10.7377 3.43085
123.557 9.71294 3.27752
164.679 11.2455 3.62724
151.028 10.4749 3.40867
124.786 11.8053 3.90913
150.535 10.9042 3.70826
143.959 10.9556 3.74143
145.655 11.5362 3.89341
116.208 9.85734 3.40293
115.704 9.58218 3.3575
143.958 10.8359 3.82666
149.818 9.59705 3.35871
120.828 10.4941 3.72943
145.953 11.2314 4.00768
132.124 11.3863 4.03222
120.807 11.3793 4.13136
103.87 10.0403 3.76167
126.767 10.3429 3.79615
119.196 9.06491 3.41564
108.35 9.88062 3.70643
103.905 10.4571 4.06679
99.9482 10.084 3.87788
85.2472 10.3708 3.80567
129.932 10.5471 4.07268
100.911 10.4131 4.03888
86.6643 10.9651 4.19976
108.357 11.6253 4.43909
106.6 10.4612 4.12142
102.168 10.7604 4.16975
116.272 10.1743 4.06814
119.175 10.8732 4.4008
105.765 9.91329 3.93392
110.998 12.3701 5.27252
102.975 10.123 3.9977
97.0239 10.2027 4.16489
118.001 9.33442 3.75326
110.47 10.6883 4.55953
120.2 9.50409 3.98109
106.243 10.5789 4.3629
116.379 12.0672 4.98912
110.728 11.6485 4.87312
120.873 10.024 4.33065
100.578 10.0592 4.40345
87.334 10.2615 4.37798
92.4544 11.6256 4.89347
124.305 9.86617 4.37269
114.286 10.969 4.76348
92.605 11.1616 4.99396
89.1427 9.67087 4.46426
92.6301 11.0612 4.99674
84.2382 10.5296 4.78771
92.9717 10.2435 4.62855
94.3961 10.2345 4.81315
92.6021 8.97011 4.274
87.3278 10.2422 4.85284
110.222 9.38334 4.43944
95.2554 10.3561 4.891
92.2047 9.7616 4.6963
116.204 10.4247 4.95897
86.4515 9.84969 4.85567
89.4244 10.2089 4.85317
87.8654 9.97107 4.77852
92.5445 10.0747 4.94124
90.6462 10.8571 5.37748
95.2094 9.7952 4.89996
83.6317 10.7708 5.3416
95.835 11.7839 5.69479
82.1691 11.7011 5.88394
79.8577 11.4968 5.5906
83.2236 10.5684 5.47729
81.4534 11.0182 5.65851
93.1819 10.2949 5.27702
68.5595 9.51408 4.95323
81.6194 9.91397 5.01448
97.4823 11.7266 6.18543
96.1189 10.8024 5.63064
84.9572 10.5685 5.64566
69.8479 9.70329 5.14031
79.9461 11.1935 6.0801
82.8418 11.7556 6.33821
76.1896 9.09511 4.94007
79.3366 9.78784 5.24368
84.4958 10.0219 5.39967
83.9081 9.94322 5.60506
79.1301 10.6939 5.89978
80.3353 9.6271 5.39601
83.4926 11.0992 6.14095
95.7808 10.8928 6.27064
76.5317 11.4006 6.39751
83.9073 10.8894 6.07285
92.7879 9.39721 5.4435
100.939 12.0283 6.93682
80.6591 11.3926 6.60591
96.4154 10.403 6.11943
82.6963 9.49783 5.55948
86.2579 9.89136 5.86168
78.5238 10.6213 6.02901
75.4895 11.7824 6.98377
85.272 10.5525 5.97554
79.2662 11.1184 6.80951
82.3126 11.1622 6.68641
78.5197 9.31961 5.42239
79.2851 11.1516 6.71998
74.7591 10.4881 6.31599
79.2293 11.7117 7.38306
71.8884 10.5139 6.38648
64.8385 9.52459 6.13555
74.822 11.174 6.92931
77.8058 11.312 7.13246
81.828 11.2534 7.23202
56.4997 10.0937 6.31355
79.9099 12.4479 7.72388
77.84 11.854 7.55843
67.7372 9.93872 6.31513
66.2265 10.4954 6.77329
65.6042 10.3606 6.79546
73.3252 12.8408 8.15785
65.0756 10.8241 7.02675
71.1264 10.6479 6.84754
71.5389 9.94859 6.64655
57.2868 10.0223 6.87123
73.2297 10.5278 7.17374
73.1152 11.0606 6.97189
60.7943 8.58346 6.02783
69.2549 10.2611 6.75642
89.4218 11.2985 7.85254
72.0347 10.6144 7.59142
71.8478 11.0186 7.73588
70.7039 9.97287 6.95802
71.6079 10.4104 7.16436
57.4748 12.3083 8.43937
70.6889 10.8268 7.65883
57.381 10.7554 7.87249
71.8957 10.9842 7.67154
65.3311 10.4608 7.61395
73.0883 11.4815 8.00713
70.8709 11.0699 7.98339
59.0363 10.8594 8.25469
67.7363 10.5222 7.42096
74.5384 11.7639 8.68616
56.2223 10.2951 7.3997
57.9411 10.8227 8.04086
67.5096 10.251 7.55973
66.5158 10.3234 7.51748
66.1255 11.0815 8.33515
58.8791 10.7271 8.08291
65.471 10.7177 8.1174
72.0823 10.6911 8.32864
62.6234 12.3724 9.10119
68.3505 11.215 8.9817
61.3705 11.5343 8.52479
56.8216 9.95846 8.176
67.5985 10.6786 8.33723
61.277 10.3838 8.19488
57.7344 10.7803 8.26682
60.0327 11.1041 8.31383
57.2337 11.0106 8.38572
58.3493 11.2989 8.8868
52.2393 10.8807 9.09014
60.301 11.2254 8.93408
61.2094 10.3511 8.04402
47.203 9.74248 7.98061
52.5652 10.657 8.43261
55.6166 11.7996 9.59927
58.3729 9.72395 8.00413
55.5473 10.9754 8.78304
47.7454 11.2268 9.32696
53.8804 10.854 9.22148
56.8705 12.1204 9.95383
54.7544 12.2426 9.60909
58.1555 10.7548 8.87622
58.791 11.4437 9.82315
52.4953 10.4002 8.81419
58.4429 9.25566 8.06924
62.8116 11.492 9.09991
57.8671 11.922 10.6535
63.9158 10.8083 9.23042
65.7017 12.2208 10.5735
57.912 11.5411 9.6057
57.0066 11.3276 9.86251
55.7089 11.0805 9.90275
49.2708 11.6597 10.0105
49.212 11.6013 10.3202
52.631 11.1573 9.93175
50.9372 10.5056 9.20961
45.1355 11.7712 10.7261
56.1234 11.9464 10.3174
55.6878 11.1566 9.30852
68.6848 12.3547 11.1459
59.3159 10.0595 9.0297
43.3212 11.0014 10.0412
50.4067 11.8951 10.9209
68.9514 11.4373 11.0082
54.4439 11.8345 10.5292
58.901 11.9876 10.8417
46.4687 11.0388 10.1025
44.3311 11.7924 11.2105
56.6586 10.2371 9.23733
49.3923 10.8857 10.2907
42.42 10.0824 9.7255
44.2568 11.5408 10.6771
52.9292 9.74811 9.09299
49.2855 10.9788 10.5858
48.2609 10.4142 10.0807
52.2422 11.2379 10.198
60.1639 10.7652 10.1779
41.0471 9.5626 9.56655
53.6749 12.3203 11.8505
50.5471 12.6241 12.0836
54.7818 11.3978 10.814
49.7817 11.5643 10.9656
46.4399 10.9954 10.6182
43.3932 11.7333 11.4223
45.0203 12.4967 12.0797
49.25 10.9929 11.1166
49.2298 9.97171 10.2416
42.7668 11.9665 12.2299
50.1782 11.228 11.2775
43.6957 11.4799 11.6431
45.0732 10.7679 10.968
44.7027 10.7797 10.8387
51.0669 11.76 11.8771
47.9754 10.3409 10.5349
44.8649 12.1499 12.4454
44.166 12.3714 12.4691
42.2068 10.4768 11.3636
41.8828 10.4362 10.8434
49.5071 11.1626 11.9358
52.3288 10.8694 11.1806
46.4957 11.4591 12.0215
50.7771 10.9106 11.1407
46.5249 10.6145 11.2801
45.5028 11.2437 12.1446
50.8097 11.5318 11.9975
45.3765 11.2262 12.3827
49.6111 10.9395 11.5486
50.3764 11.6172 13.2613
49.2443 12.0338 12.7385
41.9985 10.8567 12.0206
47.7262 12.7428 13.4889
46.3869 10.4143 11.9053
43.1354 11.465 12.8826
45.1859 10.1135 11.6182
40.1421 11.5953 12.3921
40.7881 11.3305 13.1698
43.4051 11.4488 11.6811
40.7804 10.3393 11.8159
39.1384 11.6103 12.9585
40.217 10.2035 12.0595
42.5809 10.9247 12.1695
47.8159 10.8619 12.6259
38.9112 13.0306 15.1677
39.4089 11.2846 12.4045
39.6224 11.3437 12.9673
39.0993 12.2445 14.5553
41.3456 10.29 11.7027
43.115 11.2528 12.8346
46.0417 11.3991 13.9466
40.1178 11.0966 12.5327
43.4438 12.1834 14.0131
39.2595 10.4412 12.2253
39.1881 10.3822 12.3215
37.4994 9.87303 11.3548
44.7844 10.2914 12.1707
40.7974 11.1846 13.4434
39.9499 12.2516 14.407
42.1526 11.8528 13.6027
36.1191 11.8976 14.3256
36.1351 10.8966 13.0891
37.78 11.3348 14.0666
38.9483 10.5187 13.2151
37.8996 11.838 14.6011
40.2263 11.2505 14.7832
46.6046 11.0094 13.7133
41.559 10.6919 13.1317
46.9932 10.9655 13.6055
37.5008 11.2022 14.338
39.8661 11.1772 13.6488
41.0903 12.2394 13.8851
33.8607 11.09 14.9409
36.407 11.0132 13.753
41.1329 11.799 14.073
38.7843 10.9876 14.1352
37.8322 11.6588 14.5588
42.2438 11.6542 15.0592
36.2119 11.3806 14.9012
34.4027 12.3471 15.231
40.6017 11.98 15.2599
34.5591 12.4269 16.1638
32.9945 12.6157 16.9017
43.1784 11.1596 14.1778
40.7141 11.9748 16.0253
31.5265 11.0281 14.066
43.9774 12.9194 16.7063
38.5649 12.8072 16.211
39.545 11.9576 15.7884
31.383 11.587 14.8975
33.9147 11.4023 15.8081
42.5554 13.2865 17.2022
42.5979 13.1293 17.5743
37.9349 11.2915 15.5513
40.4942 12.054 16.5231
39.8207 13.4936 17.6563
31.961 11.7919 16.3394
30.4476 12.2435 16.1254
39.0473 11.9831 15.8421
34.7726 13.2447 19.1709
31.0107 12.4446 17.1025
34.24 12.6336 17.2055
30.8687 12.2188 17.2897
30.3988 12.0148 16.2958
45.3441 12.0837 16.3644
31.0476 14.3364 18.8227
27.9519 12.8021 17.4064
35.7219 12.6208 17.8734
34.6404 10.3256 14.6634
36.7364 12.5829 18.6915
35.4382 11.322 15.4473
34.6637 12.1119 17.1278
35.1813 11.5175 15.2677
29.7398 12.374 18.0033
29.1419 12.3642 17.7716
33.7549 11.2239 15.3755
29.0352 11.1804 16.374
28.2814 11.6824 16.742
33.6113 12.9256 19.0649
34.6383 13.1631 19.0233
31.8341 11.5662 16.4506
31.2701 10.9453 15.9758
37.1336 11.2862 16.8741
28.6421 13.0879 19.1497
27.6157 12.5349 18.5584
28.7264 12.4766 18.8266
34.2118 11.8626 16.8517
31.0575 11.7985 17.3712
29.861 12.9383 19.5382
27.7791 12.2329 18.8476
31.0473 14.8121 21.5292
29.8028 12.8673 19.2814
30.5663 13.1646 19.873
31.0977 11.9814 18.2876
29.5411 12.3666 18.3088
22.7235 11.4835 16.8556
30.4334 12.636 18.4616
29.9911 11.9628 18.722
33.1332 12.2144 18.0502
32.7279 13.697 21.5347
30.4591 12.4391 19.4964
32.6068 11.1958 17.1141
26.8253 10.9635 17.0582
29.2007 11.4225 17.3019
26.1423 10.9337 17.2195
27.8467 12.0353 17.7404
29.7349 10.9436 18.3179
32.7225 11.7029 17.553
25.3988 12.0576 19.545
29.7329 12.99 19.9532
32.1775 11.4911 17.9918
28.3769 12.129 18.4237
30.5653 12.9893 20.601
25.457 12.372 19.3829
28.9108 12.0486 18.7039
29.7157 11.2769 17.8968
32.9189 11.6599 19.8429
30.3811 12.3634 18.3357
25.3229 12.2366 19.963
29.6157 11.6163 19.552
30.8716 12.5992 19.9195
27.2703 12.4104 20.0079
28.2128 12.3185 19.5296
30.9605 12.9264 21.8128
31.2263 12.6728 20.6352
30.0411 13.1576 20.4175
30.5039 12.368 20.5037
30.2659 13.3271 21.3288
32.5951 11.3799 19.541
24.2583 10.1354 16.8253
27.0636 12.5463 20.5053
30.7262 11.0121 18.6572
30.702 13.0107 21.3098
29.5138 12.2015 21.4818
32.3811 11.4438 18.9471
27.4895 12.069 18.601
28.6336 12.7884 22.8941
26.8084 10.6457 18.1887
25.0522 12.0854 20.7669
27.75 11.0457 20.0363
28.2595 12.8839 20.6731
29.2721 10.6292 18.473
23.713 11.7247 21.3585
25.915 11.3934 19.6229
25.122 11.6228 19.896
28.6085 11.9699 19.8845
24.2177 12.6237 22.1415
25.6597 13.1777 22.8991
28.3927 13.5629 23.5933
28.3221 12.168 21.0733
29.3458 12.6353 21.3228
24.3883 11.1622 20.9758
32.8406 13.274 22.3684
28.7718 11.9169 21.3523
25.0955 11.2004 19.6189
28.2854 11.1538 19.0936
29.326 12.0453 21.1126
26.4428 11.4414 20.9162
24.3448 12.1942 21.2405
30.7974 12.6107 24.086
29.4616 14.1368 22.9373
24.277 12.4793 22.4957
26.3013 13.3752 22.9646
30.1935 14.184 25.3263
24.8311 12.0012 20.9478
29.2583 11.6296 20.5752
29.3326 12.1308 22.9257
23.6408 11.8436 20.6951
26.0493 10.6304 19.849
28.165 12.4215 23.1877
28.302 11.7429 21.1408
22.4908 12.0075 21.8787
25.8139 12.0809 21.1622
25.1268 12.3069 23.8372
26.174 13.0204 25.2823
24.86 11.4402 20.9016
28.6314 12.3857 23.0869
29.6722 13.1916 24.3876
26.6509 13.4825 24.0247
27.5743 12.0706 23.4365
24.9898 10.7647 19.8898
25.9272 13.5987 25.5023
25.8411 12.7401 21.2909
23.5834 12.4209 24.1484
26.6969 13.825 26.0462
23.847 11.3737 22.6396
24.3117 13.0281 24.6277
25.6963 11.7925 23.6743
28.8204 12.5099 22.4652
23.2799 11.3746 22.4352
25.8818 11.4766 22.0265
25.2541 14.0376 25.8732
25.2312 11.3196 21.8076
24.2744 12.5837 23.8378
27.4187 12.353 25.5599
25.8693 12.8223 24.7484
26.1886 13.2343 26.0936
25.5274 13.0782 25.2053
26.3625 13.5042 25.9576
22.7368 12.3787 22.1879
23.7282 11.7324 24.6052
26.8008 12.6669 24.6551
20.7208 12.2364 24.5333
25.8255 11.9878 24.4112
26.2452 12.5493 22.7041
25.4325 11.6405 23.1442
24.1497 13.0726 26.4769
21.7448 13.3775 26.215
25.4836 12.996 26.3091
22.8054 13.4298 26.8895
25.0319 13.4009 26.5871
25.5279 12.4625 24.1905
21.8934 13.4182 25.5808
23.9016 13.7719 27.0627
23.8172 12.0934 25.5137
23.407 12.0645 24.9034
23.06 11.88 24.7614
25.3805 12.2527 24.3648
26.0552 12.7786 26.3259
23.5169 11.6024 23.5392
23.3966 12.6405 24.5143
24.1897 11.763 24.9073
21.9972 12.2316 24.6121
23.83 12.2527 24.9696
21.2304 12.3684 25.7252
23.4464 12.1887 25.2277
20.8715 12.5329 27.9956
24.5177 13.4013 28.1088
22.1548 11.6954 23.4865
28.6416 11.9172 23.3146
22.7492 12.9992 27.2519
20.7277 12.7536 24.1378
22.1974 12.2842 27.8418
30.4624 12.9856 28.062
22.071 13.3957 26.8391
24.0044 14.6261 29.2351
21.3248 11.8484 27.8118
22.4667 12.3998 26.3604
21.4166 12.5143 26.9709
22.5409 12.487 25.1087
20.4221 12.1828 27.2446
19.731 12.8143 26.5859
23.7267 12.6294 26.5243
23.842 12.9761 26.8397
19.8051 10.953 24.8885
24.0493 11.5201 26.4532
25.2039 13.4793 30.1815
19.6712 13.5094 26.3068
19.2723 12.634 26.5967
22.1732 14.6439 31.6195
24.917 12.3579 26.4215
19.6407 12.6592 28.5823
20.8231 12.8517 26.4749
23.5547 11.7202 25.8142
20.9184 11.693 25.7894
22.0085 11.9823 26.671
24.5803 11.9253 23.4288
20.5126 13.7761 30.1665
23.3673 11.9193 27.0101
19.8622 12.5121 29.0217
21.0824 13.1447 28.1067
19.0378 11.7118 25.8932
23.1996 11.6663 27.4925
26.6667 14.1493 30.5288
22.6512 14.4022 30.6821
20.0088 12.3925 28.0932
22.379 13.8791 33.1052
22.2458 13.2211 26.8237
24.9269 11.3779 26.8166
22.5986 12.5931 27.167
22.5891 12.087 27.5464
28.9782 12.0945 27.7368
27.0146 13.0641 28.2975
22.8842 13.4726 31.4941
27.6764 12.8914 31.7764
23.8747 11.4832 26.0793
27.7877 13.9035 31.8543
22.4848 12.7695 27.3298
22.665 12.6706 30.8515
20.6675 13.6753 29.9678
22.0282 11.3973 25.69
21.0276 12.2165 29.3848
21.2016 13.3543 31.1906
20.7567 13.6062 28.6482
21.1744 12.9596 32.061
20.5098 12.0598 31.3614
19.9377 12.8861 29.7875
22.2125 11.5737 27.993
20.341 12.8881 29.4376
20.5741 13.0169 28.404
23.4732 13.8298 32.2225
23.7574 10.9383 24.5762
19.1255 11.7953 29.277
20.4317 12.6429 30.8275
23.393 13.6771 28.9523
19.6213 12.833 32.1596
18.2126 11.3545 29.5917
22.2419 13.5814 32.5568
23.9438 11.6376 28.3979
20.148 12.2523 28.9788
20.2438 12.9753 30.2973
20.9989 12.0302 29.2311
21.3009 11.7469 29.3344
18.7694 13.9721 32.7645
22.3927 12.6495 30.2926
21.6872 14.1484 30.587
19.7548 11.1776 27.5899
20.3919 13.4699 34.8367
19.3318 12.69 30.3725
17.4623 13.2342 31.7079
19.5217 12.4421 28.9829
25.2644 11.6275 27.8429
19.9505 14.4029 34.6915
18.7924 11.2207 30.8531
22.5108 14.58 35.6058
20.8213 12.3592 29.1672
23.6682 11.8184 29.5514
20.3422 14.7047 35.8651
21.4992 13.7119 32.3875
19.026 12.0045 30.8733
17.4309 13.2911 37.2709
23.2619 13.7969 33.0879
21.215 14.3223 34.2515
19.9862 13.3237 34.9717
21.5747 12.3097 32.4045
25.0066 13.0676 32.1234
19.8947 14.4396 36.5158
19.968 15.2915 36.9858
18.7634 12.1447 30.8314
18.7208 12.5325 31.8918
18.7419 13.6361 34.9635
21.0452 14.6745 35.84
18.7339 12.9543 31.5143
18.3962 11.3063 29.2073
22.9376 13.1721 31.4148
22.3336 12.0636 31.3706
19.0243 14.0019 35.5893
19.8176 12.7102 33.9222
18.5963 13.406 33.0738
23.8519 12.7536 33.2313
22.5143 13.5669 35.5315
21.1609 13.9181 32.5302
23.0204 14.337 37.1288
25.0394 14.3767 36.0101
20.2555 13.9201 35.2822
18.3819 12.9234 34.0731
23.3426 13.6723 35.9179
20.8778 13.5254 36.3254
18.7836 12.7264 32.7523
20.9789 13.2078 36.4319
22.6477 14.3556 35.2452
21.5168 13.5973 34.6022
31.0091 15.0431 38.7991
19.5838 12.8404 38.8028
23.1527 13.6196 34.8974
25.4283 14.9184 38.9902
25.3986 13.626 33.0286
22.9445 13.5587 34.9376
21.1527 13.0543 35.5003
22.0342 14.7994 36.9238
21.3768 12.948 36.4869
19.2596 14.932 39.1787
20.8153 13.3201 32.2794
18.8373 11.9749 33.7977
17.73 12.3853 33.4324
16.2906 14.7049 38.6376
18.6754 13.5614 35.6647
19.8821 13.9816 38.0624
18.9187 14.1966 35.8627
21.2585 14.4918 37.9044
19.9537 13.1453 34.5231
17.262 13.8226 35.4143
14.9568 12.5888 34.7894
16.506 11.8482 30.6174
18.0206 12.4735 37.2589
16.605 13.9115 37.9226
16.8231 13.8155 37.3863
16.3876 12.5705 33.0309
16.1913 13.6124 35.0013
16.6048 13.2882 39.4874
17.1373 12.6646 32.6063
15.3423 11.7845 33.3491
17.1436 14.6115 39.7779
15.8154 13.8745 38.5253
19.0375 13.8625 36.4494
17.301 13.8166 38.9675
19.4774 14.9891 39.7131
19.8943 13.5184 38.6358
20.9455 13.8383 38.615
17.9157 13.2189 34.7936
18.2478 14.8499 39.0377
18.3568 13.1311 42.9305
18.8814 14.9227 37.0555
17.2566 13.1236 35.4867
17.36 15.0067 40.8196
20.5772 12.1131 33.1739
17.5942 13.0978 37.2308
18.1696 13.3523 39.188
19.0485 12.9484 38.1115
16.6548 11.6557 35.057
19.2059 13.9363 40
16.8239 12.8675 37.7456
16.8513 13.1602 34.3849
18.6005 14.9972 38.629
21.0907 13.4173 36.2396
17.7181 13.9731 41.471
17.8574 12.4283 38.4749
18.5839 12.2447 34.915
17.0719 13.6704 34.4402
16.2229 13.2646 37.5957
15.721 12.5869 37.0919
19.1009 13.445 36.5426
16.8464 13.5913 39.279
17.4787 13.5915 36.1286
17.8883 14.574 44.58
18.9722 12.9747 36.5687
16.4177 14.1838 41.9602
14.9446 12.7064 35.3588
16.6789 13.7387 42.1293
18.6665 14.5508 39.3039
17.1965 12.9461 37.3605
16.9774 13.1755 41.115
19.9442 13.4152 36.7836
17.3305 13.1438 39.5012
19.057 14.225 41.7781
17.8113 14.0687 40.4881
14.6208 13.2564 36.7781
16.1611 14.0341 38.5061
17.1813 13.7155 43.0396
17.2621 12.986 40.257
17.3982 13.0376 38.7586
17.8662 13.8848 39.0594
18.1814 12.7368 39.5049
19.8558 14.6529 38.8284
13.7776 13.9796 44.184
17.6152 14.8838 40.5082
19.7855 13.0264 38.9919
16.324 13.5632 39.1369
16.0013 14.6308 40.9433
15.2889 13.0236 40.708
20.9186 12.7481 34.4693
17.6358 14.832 45.6691
17.731 13.6648 40.5936
17.6664 14.418 42.6893
16.4159 13.5224 39.8994
14.4013 12.5851 36.6475
15.0104 12.9903 42.339
16.9447 13.9658 44.6943
16.5932 14.2794 39.9655
15.3768 14.105 41.0884
16.7856 13.7156 41.8252
16.6675 13.0346 38.5331
15.9413 14.2382 43.7849
18.1016 14.0847 40.6231
16.8567 14.1343 43.1972
14.8786 13.5635 41.0746
15.9904 13.1495 40.778
16.659 13.5674 40.0542
16.7124 12.6355 38.3213
13.5825 12.2741 42.656
16.4838 14.8642 43.1124
15.2822 13.0863 36.0075
14.5403 13.73 43.1823
15.3002 14.1805 44.0324
15.9703 12.945 41.2318
16.3459 13.9415 43.4169
16.0295 15.2739 44.538
16.8629 13.1675 40.9628
16.8928 13.1902 39.2928
16.02 13.7274 43.6038
17.2487 15.0095 42.8721
16.0746 14.5279 45.4281
15.9197 14.0647 38.6459
16.4162 12.6018 40.9887
15.485 12.5009 41.9623
15.904 13.7525 44.613
17.7346 13.4297 39.6404
15.9211 13.1398 40.8489
17.6165 13.3363 36.6819
14.8359 12.5615 38.5462
15.7639 14.1282 44.3346
16.0583 12.4644 40.4513
16.8418 13.5336 41.2326
15.3667 14.6285 44.4302
16.2652 14.0428 45.4649
15.227 13.9936 43.2389
18.0899 12.8742 43.0163
14.8751 13.0098 43.7155
15.2395 14.1922 41.6258
16.7339 13.7253 42.8648
13.802 15.817 45.2697
15.2307 13.6058 47.0942
16.1354 13.4896 44.3706
15.9837 14.3171 42.3055
14.1625 13.6901 42.565
14.4386 13.4434 47.2553
16.6533 13.555 42.1092
15.3847 13.2389 44.9837
16.991 14.2229 44.6867
15.655 13.2469 40.4605
13.1067 13.7897 48.5999
15.5729 14.2492 42.4077
16.1742 15.1108 48.1493
16.4578 12.7832 39.8111
16.915 13.5388 45.0387
18.4623 14.6202 42.1198
17.7667 13.3888 45.505
16.3175 15.6671 46.6952
18.8006 13.5024 46.207
17.1314 13.8087 42.9463
16.1633 12.5809 40.3004
16.8632 13.4319 45.0448
17.2343 14.3766 42.2329
15.2541 14.0885 45.6648
15.6485 13.9544 46.1604
15.9959 14.5017 44.7634
15.0987 12.1424 43.6979
17.6342 13.1175 43.6356
15.6828 15.106 50.029
14.3745 14.1645 43.7739
15.3908 13.3196 42.3083
20.2182 16.1035 50.6743
14.8887 14.1791 50.7637
18.5638 15.3103 49.7157
16.2694 13.7494 44.5909
13.3327 14.3295 42.9816
15.7661 14.2246 47.7576
18.8203 15.1473 43.2982
14.5594 12.1826 46.5934
14.5983 13.9903 46.2875
16.7211 15.1975 49.8842
17.645 13.2864 44.6711
14.493 14.2839 45.3863
16.4065 14.2411 47.5513
18.9061 14.9196 48.8179
14.2415 14.3578 45.1845
13.5793 15.0474 48.9588
16.3403 13.6432 45.3463
15.5135 14.1622 48.5246
14.2397 13.8359 44.888
13.2734 14.6174 46.5636
13.7944 12.8983 46.5425
15.5263 14.9114 46.9195
14.7266 13.9312 43.5157
15.7444 14.7101 45.2206
14.547 14.4475 50.6751
17.3462 13.4215 43.8451
16.0152 15.7416 53.4869
15.1143 14.1565 50.2388
13.6297 13.7784 45.9324
16.4804 12.452 44.3426
15.2981 13.3235 43.5983
14.2792 14.8119 49.6068
14.614 15.0384 51.7084
16.7903 15.7862 54.6311
14.7127 14.0769 43.0858
16.7961 13.3817 46.8939
15.9643 13.8755 46.8774
16.2258 12.954 48.1895
17.2334 14.3174 46.255
15.1485 15.1836 55.2742
15.499 15.8264 47.8308
17.008 15.1269 51.8062
14.9645 14.5422 46.6462
16.5192 14.1097 50.26
14.934 13.387 46.3456
16.4978 13.7933 49.6842
15.2871 16.0494 53.9734
14.9036 15.5707 52.3715
15.6654 15.1623 53.2428
14.8037 17.7607 54.3152
15.54 14.7086 51.39
15.6706 15.0847 46.9044
14.6644 15.5323 55.2715
15.2863 16.0474 53.6447
15.663 15.4138 50.8173
13.9285 15.9821 55.1754
14.0609 14.3749 49.8719
13.0924 15.244 51.8741
17.9713 14.9941 49.7608
13.3415 14.2557 51.1163
14.6735 13.6586 46.2213
15.2985 14.4396 49.4978
13.5598 13.9629 47.4432
13.5569 13.986 49.8214
14.9842 15.5161 55.4525
15.4022 14.1267 53.1367
15.9847 14.81 51.732
15.0442 12.9817 47.4428
16.1865 14.4792 48.6554
14.9904 14.4303 53.1115
14.1909 16.6553 53.6782
17.3072 14.0875 52.5946
16.5851 16.7521 53.3497
14.6911 14.4574 51.2062
14.1886 14.3633 58.0587
15.7319 16.9953 59.5073
14.3756 15.1655 48.9336
13.7635 14.1166 43.7975
14.9884 13.4735 47.6209
14.6714 14.4981 56.0283
16.512 15.079 50.8103
15.2145 14.6827 47.9092
16.0021 14.8289 53.2027
16.4928 14.3292 53.6608
14.6007 16.3696 62.7572
16.7618 16.0209 51.6579
14.8172 13.1877 46.1039
14.9261 13.8791 45.3372
15.0797 14.515 54.7039
15.8132 14.4373 53.0741
15.5156 15.8451 47.3577
14.2523 13.3605 50.5213
17.608 13.6801 49.8466
15.6256 14.6144 50.5647
13.5387 15.5873 55.6626
14.5502 15.1124 53.8104
13.6038 14.7692 53.8591
13.5463 13.9512 47.8976
13.6583 13.5543 52.4364
13.2426 16.0146 55.4007
15.4312 14.8427 48.5499
15.8849 13.6493 50.6512
14.1615 16.0705 53.3382
15.029 14.6727 55.0299
14.0859 14.4076 50.7103
13.5312 16.2735 59.1826
16.5516 14.3323 50.7855
15.3907 14.1503 52.5672
13.4095 14.187 53.7755
15.0929 14.8377 45.4619
17.7754 13.7067 52.7902
14.639 16.031 60.5428
14.2351 15.0783 58.0249
19.2358 15.4421 53.2499
15.8729 14.6588 49.1287
14.6858 13.803 56.9427
17.0898 15.2484 57.2901
16.7205 16.7936 56.3262
18.8225 16.0247 56.9778
23.6392 17.28 58.1884
16.3315 14.6084 57.4073
20.6821 15.8634 54.1217
20.7822 15.3829 55.0097
20.7182 15.2535 57.4089
17.1048 15.575 56.3305
18.9262 16.1445 49.9223
17.3668 14.6343 60.9374
18.1472 15.016 55.2739
14.4096 17.0484 58.7601
15.805 15.2493 60.2928
17.5656 16.3856 54.0737
13.8586 15.0347 59.4739
13.9395 13.7433 49.8795
14.7713 14.8543 50.8386
14.6011 13.8272 54.2503
13.2214 15.2951 50.2805
14.7991 14.1045 50.4728
14.8838 14.5512 55.1128
13.8368 15.6544 57.6668
12.5303 14.7646 51.5338
13.372 13.4165 50.6395
13.5251 13.1014 49.6757
11.7987 14.9996 56.3148
13.5514 13.9587 46.1981
12.9664 14.3147 55.0366
14.7942 15.383 58.1453
13.5767 14.9824 54.0665
13.8914 14.7002 49.8497
15.7708 15.1102 54.9868
13.91 14.5821 55.6909
13.4722 15.0437 51.4782
14.5935 14.0085 51.1771
14.3643 15.3747 59.2438
15.0949 15.1986 58.7277
14.0749 15.2884 55.0992
15.7744 13.8734 53.6008
13.7549 14.0783 53.2539
15.3241 14.3616 51.5718
14.6537 15.13 53.7702
13.6395 14.1134 49.6357
11.9693 15.6863 61.5803
14.8419 14.5158 52.598
14.7702 14.6872 58.5795
12.4512 15.5251 54.5393
13.1818 15.2587 54.0036
13.584 14.2949 55.4664
14.0677 14.7191 54.1031
14.8833 13.4411 50.1993
13.4929 14.2323 54.5882
12.6999 14.6711 55.6198
13.4543 13.8282 53.1443
15.6483 15.2009 53.8891
12.8466 13.7086 51.3668
12.8397 14.6427 53.8962
13.8108 14.9702 54.4387
15.3554 14.1031 51.3803
11.4094 14.9541 56.3412
13.4269 14.0912 52.66
14.1675 15.1326 52.7844
14.2583 14.168 53.9708
13.5928 13.0744 52.6363
15.0726 15.4988 56.3036
14.2385 14.5129 56.075
13.0262 13.6781 49.7721
12.19 13.8295 54.9064
13.8334 12.5046 48.4469
12.9718 14.1108 57.6587
12.9312 13.9468 47.9933
11.5723 14.4836 58.7381
15.7631 14.9567 57.9674
12.7136 15.7177 60.0962
15.4197 16.115 53.5657
13.2159 15.5198 57.0823
11.5983 14.5402 53.8123
11.8358 14.0598 52.6476
12.8611 13.9415 55.4043
12.3058 14.5498 54.4685
13.2304 16.5097 64.518
13.8621 14.9829 57.5629
15.856 14.3878 59.8606
15.4109 16.6833 61.3901
12.9949 15.621 57.3105
15.4987 14.5739 57.3468
16.7778 16.6783 58.0128
12.5608 13.6733 52.8533
13.8105 14.286 58.3707
12.758 13.623 53.4667
16.3723 15.0572 54.3358
13.3626 16.3303 54.8196
13.8204 13.7292 61.4001
16.7675 14.6799 53.4935
15.2426 14.5409 57.6011
12.9182 15.8752 63.1531
14.2774 14.1459 51.6122
13.7952 14.1187 54.1348
13.0235 15.2071 58.098
12.0777 15.4644 58.1912
12.694 14.2445 56.9236
12.9134 14.4798 54.6914
11.4316 15.1674 56.1426
14.141 17.954 65.4253
12.1159 15.446 63.1893
10.7472 14.4368 51.8689
13.4852 14.2018 54.9061
14.0688 14.8037 57.2673
11.6591 14.2267 49.7052
11.4199 13.0446 53.0318
12.8932 14.6664 61.9771
15.8029 14.4128 52.201
12.45 15.1829 59.1111
13.7371 15.4504 61.596
14.5914 16.9887 57.7861
13.5758 14.0232 54.5252
13.2608 14.6751 53.9756
15.1801 14.3343 56.3656
12.9941 14.4881 62.0983
15.5027 15.8352 55.6987
13.509 14.0935 56.6692
14.0849 13.6106 60.7476
13.729 15.3984 59.8799
15.1162 15.9899 54.7246
13.004 13.7651 53.2759
13.5954 16.2425 65.7641
13.7585 15.177 52.8163
12.6188 15.5569 60.54
14.5433 15.2344 57.9415
13.3096 15.4604 60.9222
14.8159 14.3618 56.9149
13.4015 15.483 61.7857
13.6999 15.8191 62.7275
14.7371 15.4494 59.665
12.9705 14.8759 58.515
12.9603 16.6865 61.7421
15.4023 14.2647 57.5639
11.96 15.7035 58.0463
12.9965 14.1521 54.4948
12.145 14.489 53.3157
11.6578 14.489 56.0165
12.7432 14.2 56.1613
11.0887 15.3863 66.1349
14.4644 15.9318 61.1166
13.2011 15.1012 63.2432
12.2382 14.5748 50.5914
14.0796 13.9405 57.9438
13.1869 15.5123 53.1921
14.1157 13.7529 58.8287
13.8132 15.6851 56.6111
12.5679 14.653 62.1201
14.8247 15.8162 57.7475
13.6367 14.9954 59.4872
13.0092 15.0225 51.9964
12.4683 16.6471 71.5311
15.127 14.3615 50.943
12.9592 13.7661 63.0704
12.653 15.7739 58.1792
14.7909 14.9106 59.212
13.8643 15.0035 54.8834
12.0128 14.6041 57.7613
13.2205 14.3449 56.1248
14.9921 15.8861 61.0605
11.5166 16.0015 73.5173
13.4296 16.9806 52.0481
11.8543 13.4581 53.5518
12.1925 15.4157 63.8701
13.4186 14.0212 54.3079
12.1352 14.0691 55.1016
10.8143 15.384 61.4245
14.0099 15.0198 55.578
14.7384 14.9693 61.7988
12.1526 14.6655 55.1354
13.1099 14.0517 65.1992
12.8897 16.5214 59.5342
12.6482 15.4476 60.1663
12.6313 14.3636 55.8474
13.5972 14.7956 60.2995
12.9847 14.2374 55.8092
10.4296 14.721 54.906
14.1612 13.766 58.297
14.4242 15.4238 61.7713
13.0621 14.9823 52.2231
14.8659 15.0258 59.8355
13.5534 15.7322 61.7331
10.7013 13.7332 57.135
11.8552 14.6853 52.6286
12.23 15.9813 63.8703
13.5219 14.2289 58.0859
11.5883 14.7734 60.0687
9.98985 15.4249 60.3671
14.1883 13.5914 52.0178
11.8803 13.8974 59.6635
12.4825 15.828 56.1924
12.6772 13.9911 53.5042
11.0199 13.4456 59.4277
12.5331 15.0414 57.0966
11.7892 17.3458 60.6571
11.7932 12.9179 53.504
12.6348 14.8942 57.8955
14.3856 14.7147 61.1888
14.5952 17.1714 67.3447
14.6247 14.8386 63.501
12.783 15.3696 55.1257
14.681 15.6854 55.7303
13.3014 15.2056 59.8386
13.7103 14.6566 56.0065
13.0926 13.5939 59.5882
15.7202 14.28 60.9095
16.4625 16.4483 63.3273
14.7403 15.8755 60.5384
14.7853 13.415 56.9067
14.7265 15.6085 55.575
12.5949 13.147 57.559
13.103 14.84 58.8226
13.4908 14.7074 61.0854
12.7126 14.5329 60.3308
12.1387 14.7727 54.7537
12.129 14.0675 53.8834
12.0539 15.2818 63.3057
14.6223 15.0246 60.9585
12.9883 13.5121 58.1276
13.7045 16.3142 60.8982
11.3676 14.3666 56.3544
10.717 14.6891 58.6858
12.7239 14.8189 56.7479
12.4608 14.9069 60.3378
10.4685 15.384 56.7844
12.4118 14.3483 61.6799
14.4329 15.1762 59.3194
13.7953 15.0015 56.7143
13.1822 14.7037 62.0682
13.7694 15.826 64.5492
13.3623 16.9646 62.306
12.6241 13.0533 56.5833
11.4901 14.8427 57.0293
14.1326 14.3413 56.862
13.5028 15.325 60.8141
13.2071 16.0316 62.6823
14.6581 17.226 67.8678
16.1768 14.3012 57.973
11.9927 15.4879 59.6707
15.2211 14.2957 55.7979
13.5358 15.2598 57.7839
14.1695 14.8149 61.7594
12.8247 15.734 59.6304
13.1645 14.1153 56.6482
13.2051 13.8074 57.1491
12.5301 17.262 62.8152
15.4037 13.7559 57.7585
13.8273 14.2934 53.1489
12.5286 16.4014 67.8586
14.63 15.0398 56.4028
13.4796 15.7827 62.2791
14.4252 13.2876 61.7446
12.6366 15.7634 63.6043
15.1266 15.7756 59.3033
13.4558 15.1405 55.4727
14.5866 15.1354 71.3772
14.5494 15.9137 59.0626
14.3254 14.8609 62.1365
13.2446 16.9223 65.4595
12.7918 14.5756 60.8282
14.7445 15.5758 61.8661
13.5919 13.686 51.7169
11.6872 13.3745 63.7131
13.9332 17.1516 61.8525
12.1395 16.1288 61.7484
12.9685 15.5929 64.6998
11.2709 15.1762 54.9083
11.3859 13.9878 59.0951
12.4261 14.8354 58.7801
12.4103 15.0567 62.2372
11.9632 16.2081 59.6931
12.8298 13.8624 58.269
12.6084 14.2132 57.8374
12.4804 15.3838 62.3392
15.0882 15.1149 56.3608
13.5318 13.5114 58.1064
13.7032 14.7752 59.6448
13.8927 16.587 71.9352
17.049 16.53 65.3069
14.675 15.3847 54.8722
14.3942 16.2059 62.3622
16.8396 13.4941 53.1955
16.9553 14.8871 70.398
15.7046 18.2252 63.6846
17.9237 14.3426 61.6353
17.2916 17.9689 77.2177
20.3446 17.285 61.5777
21.6306 16.4546 64.0762
14.2392 0 0