# pn-170911/RbIIR-54-PTBB-1280-1959.psd
# Power spectrum* (dif=0,1,2) (really just |FT|^2)
# NOTE: only the first half! (symmetric)
# weeks: 1280-1959
# 8 clock-days, 0 excluded
# PSD: 1441
1991.8 0.138248 0.0391154
48332.1 0.352744 0.170827
273514 5.47536 0.169616
44237.7 1.45807 0.152491
46883.6 4.27922 0.141646
4791.96 0.465754 0.133479
8664.02 1.08277 0.118206
6085.23 1.56894 0.093215
5507.07 1.70838 0.0824344
2579.49 0.808592 0.0713559
1330.12 0.630845 0.0531576
1320.66 0.914655 0.0392628
2296.66 1.09823 0.0350125
1292.43 1.034 0.0361896
2810.8 2.10357 0.048339
850.617 0.652544 0.0391198
2416.38 3.24001 0.0560567
957.07 1.33756 0.0683539
1230.57 1.8798 0.0894492
1697.64 2.61023 0.0964567
1910.56 3.50962 0.109935
903.833 1.71239 0.136343
1042.74 1.88493 0.155692
449.725 1.21424 0.128438
1559.26 4.3281 0.158289
525.486 1.1617 0.178883
1746.61 5.41006 0.193224
885.004 3.34132 0.177398
1488.34 5.10103 0.200986
1388.51 5.5092 0.180052
1666.59 7.49305 0.146891
848.879 4.02021 0.111523
955.344 4.69002 0.162246
857.874 4.9292 0.132762
1006.71 5.27018 0.116325
978.252 4.99137 0.132472
1459.32 8.8923 0.108404
1473.33 9.54759 0.0561495
674.295 4.53833 0.0701907
1388.51 10.3599 0.119816
1199.52 9.36747 0.120788
1348.75 9.79078 0.137508
784.977 6.08909 0.10238
1311.72 12.0835 0.194727
697.495 6.1158 0.151761
667.581 5.957 0.179897
1026.07 10.5697 0.28771
658.225 6.56024 0.165997
1327.75 14.6321 0.358149
1221.61 15.2596 0.333288
677.662 8.97456 0.292214
856.753 11.3248 0.317646
747.337 10.2494 0.3375
324.558 4.86332 0.312972
1285.59 17.3984 0.452393
871.6 12.7318 0.456625
966.527 13.0565 0.437624
692.532 9.86157 0.260136
873.11 13.4286 0.332765
993.895 16.0054 0.308838
1766.68 30.9302 0.739612
1320.19 22.5555 0.581434
1446.28 26.018 0.558059
513.118 9.77313 0.247475
1483.71 30.5037 0.590256
1286.53 25.7974 0.610195
610.633 13.0791 0.288826
699.31 14.6635 0.329761
428.498 8.68619 0.124285
1122.47 25.0716 0.758836
1518.57 33.5067 0.910158
601.42 15.4513 0.510709
628.75 14.8736 0.588842
691.725 17.5576 0.579766
906.879 22.9341 0.802065
512.008 13.5918 0.483506
802.352 20.8244 0.796164
563.194 14.9113 0.656392
609.162 16.8674 0.773789
698.79 21.9652 0.888414
593.315 16.2739 0.781988
581.046 18.7006 0.858414
843.102 26.5481 0.989761
1803.16 60.6249 2.40582
377.374 12.1163 0.720744
1166.63 39.8237 1.53678
1170.06 39.3193 1.3662
460.452 15.1299 0.619318
936.095 35.664 1.56916
1188.73 44.8753 1.74835
821.237 33.7221 1.58141
1068.55 40.9437 1.43381
761.864 30.1107 1.21547
766.725 30.8391 1.19011
720.007 30.1096 1.46979
840.923 36.3432 1.63886
642.042 29.4019 1.42552
717.212 31.9367 1.43846
835.405 39.4632 2.3321
337.603 13.3355 0.710837
524.798 27.0758 1.06668
791.514 35.4659 1.71111
996.052 49.3438 2.82141
438.058 21.4376 1.42818
803.647 39.9666 2.33269
311.595 18.2232 1.17975
492.011 27.9073 1.80346
1199.42 63.5515 3.73646
352.636 20.6205 1.49768
468.362 25.822 1.40917
513.198 28.8862 1.89691
234.095 15.2073 1.24204
348.632 18.5602 0.968677
879.349 50.1235 3.08464
1196.4 75.7504 4.60827
527.506 33.5842 2.40589
349.333 23.79 1.69879
274.73 19.6277 1.30777
883.313 58.3505 3.61623
650.112 42.6675 3.17317
1064.98 72.9376 4.86497
522.009 33.2583 2.16737
581.697 44.1515 3.39445
685.36 47.4121 3.72112
707.406 51.1202 3.55125
570.039 38.7497 2.72931
580.806 43.6589 3.357
204.304 16.5907 1.21911
264.255 20.157 1.59375
442.741 37.2896 2.80655
340.209 29.1444 2.71006
546.872 41.6739 3.88761
459.804 36.1531 3.13278
158.831 15.3474 1.68802
213.026 16.3984 1.28455
322.194 29.1058 2.79436
394.67 33.6533 3.06552
636.459 60.9761 6.00115
683.992 54.5029 4.41492
648.922 58.7902 5.46103
464.477 42.9128 3.49716
525.607 49.1198 4.69801
199.83 18.1791 1.55453
301.398 28.8665 3.27198
513.352 47.9783 4.76443
389.866 38.5203 3.90953
450.786 44.0192 4.09761
404.573 37.0023 3.57624
384.487 41.2317 4.4327
298.737 30.7004 3.25188
344.954 33.9475 3.46617
333.796 35.0808 3.26073
406.699 47.2675 5.33195
581.207 60.4536 6.68083
202.757 24.6415 2.88425
189.404 20.9626 1.93721
227.143 28.9597 3.68439
355.807 41.5714 5.14165
421.464 47.4822 5.88977
219.602 28.1356 3.71542
337.888 40.4693 5.11541
373.868 47.3898 5.25994
455.506 55.1568 7.25544
493.925 59.8561 7.37115
310.19 40.6771 4.71867
403.558 48.6008 6.32208
566.052 80.2042 10.9128
375.444 45.423 6.24974
404.754 52.9089 6.72169
124.692 18.963 2.77746
240.397 33.2112 4.73185
195.397 26.333 3.84955
284.766 41.7434 5.65493
223.497 28.8887 4.0448
184.557 26.8152 4.27128
264.905 41.2771 5.97183
239.374 30.7995 4.37192
307.142 46.3801 6.75376
164.184 23.9552 3.22093
81.8593 13.4277 2.2843
128.763 23.7866 3.67975
260.306 36.5962 5.74203
223.524 32.1751 4.82884
88.0094 15.0088 2.91277
163.983 25.6195 3.79452
332.407 54.4655 8.62013
369.036 58.3267 9.61721
405.65 64.9453 9.51947
182.367 32.6362 5.39486
170.089 35.718 7.28978
484.792 76.8577 12.9209
232.401 40.876 6.85429
435.528 74.4194 12.1827
340.99 60.7994 10.8369
149.258 28.6628 5.5474
457.48 74.0621 12.186
162.356 31.9229 6.0973
253.684 46.5647 8.80154
273.651 50.3861 8.96491
337.136 57.8035 10.4461
248.21 51.8685 10.414
213.92 32.1878 5.19774
114.088 25.534 5.42538
171.589 27.3911 4.09644
284.504 49.7555 9.11697
346.758 72.366 15.9686
161.29 28.8741 5.65448
184.543 39.1093 7.20746
129.429 27.8957 5.76162
121.021 26.8756 6.21517
252.69 51.4279 10.379
117.442 27.9992 6.88393
212.038 43.7341 10.1225
187.781 38.9228 8.1219
274.474 60.457 13.5545
92.0385 19.3799 4.87168
100.184 20.4236 4.05583
131.793 30.6139 6.47614
226.439 53.3493 13.0241
267.229 58.4087 12.9927
292.288 61.1671 12.6825
115.444 24.1341 4.61574
157.445 38.5981 9.18889
126.09 31.9536 7.83877
132.959 26.8322 5.99137
122.534 32.1115 8.45987
220.924 47.4167 9.43994
146.214 35.9819 8.47733
171.431 48.1944 12.4362
132.211 30.0977 6.62232
117.326 30.3397 7.40069
161.792 35.938 8.5887
188.483 46.454 11.065
105.372 25.5303 5.93604
203.662 51.5152 14.0883
95.2958 22.6599 5.93291
115.239 34.0833 8.99746
80.2928 18.496 3.96394
144.632 41.352 11.5065
126.309 29.8552 6.63218
116.513 36.1619 10.3582
108.814 28.32 7.5611
89.4275 26.2306 7.10271
151.567 38.0012 10.0067
135.53 37.5678 10.1176
132.836 40.2698 11.8187
216.166 58.4681 15.566
190.53 60.1211 18.2093
300.685 80.2907 20.2143
116.949 31.6922 8.28343
102.582 33.7226 10.5948
108.19 35.9255 11.0514
141.904 47.6396 15.8575
221.194 58.848 15.925
112.648 32.3049 9.81307
159.227 50.0139 15.2191
73.5685 22.1294 7.27374
192.061 55.2425 15.3542
117.43 36.9666 11.9446
86.5378 23.6515 6.21804
151.144 54.1764 16.664
108.909 35.7999 13.8285
128.214 37.5068 12.0652
115.389 37.2667 13.099
110.294 35.2265 11.777
54.1527 16.1105 5.92474
178.348 56.3998 18.0019
70.9004 21.4927 6.35242
57.7077 18.6855 6.12879
118.814 46.0139 17.4153
112.868 36.6734 13.9924
64.6084 18.9099 5.84021
76.1992 24.0021 7.15095
46.928 16.6734 6.03725
62.6057 23.539 8.64094
50.9875 20.5617 9.4244
165.625 51.6896 15.2231
128.172 44.0444 13.7894
109.702 41.0245 14.8225
112.102 47.9778 19.3356
120.141 38.5166 12.7611
96.6414 34.7891 13.2576
125.135 40.2326 12.7012
57.8851 23.3769 8.06047
87.259 38.0012 14.468
75.7632 28.3067 11.1518
58.3409 24.552 9.44011
149.512 58.5164 21.503
169.415 71.4375 31.0815
151.996 51.8948 19.0964
91.4204 29.0018 9.67909
55.7389 26.0751 10.8781
99.8246 31.4471 10.7411
102.897 40.8452 16.2369
192.473 77.0949 30.9122
92.9838 38.5692 15.1256
86.1243 39.54 16.3741
163.933 65.4753 27.424
124.72 51.1986 21.224
93.3123 29.9739 10.1621
94.7739 42.4997 18.5582
47.9707 20.7416 8.68227
46.6444 26.1341 15.0004
110.114 39.0933 14.1298
86.3728 38.3885 16.8639
184.288 89.3988 41.0282
74.8856 28.2073 12.6957
142.082 54.9296 19.1891
67.2572 29.123 11.6685
99.9798 41.7566 17.1983
119.356 51.8144 22.7127
59.8526 26.8835 12.231
94.2487 46.3108 23.0565
141.456 64.015 26.9247
87.9439 35.1033 12.8506
43.2822 21.9537 10.7424
33.1455 17.739 9.74256
58.2488 24.6178 10.5117
90.4881 41.7173 17.1684
77.3661 40.7674 19.8776
72.0259 29.2692 13.6104
97.6599 43.8825 18.5078
69.0681 36.0633 18.8364
119.547 57.7193 25.6239
79.0538 36.8451 15.1538
48.5943 24.0423 11.5331
94.3162 45.4257 22.2179
79.9433 43.7343 23.531
86.177 43.1397 20.3579
58.4712 29.3733 16.2838
124.369 61.8699 31.3571
69.0938 35.3426 19.8571
95.6873 41.7604 16.8637
55.4241 27.0153 13.1436
57.5594 30.7796 15.4908
72.3963 37.3537 17.2053
23.4957 13.3116 6.94635
72.4591 31.1659 11.7945
102.497 62.3927 32.9097
60.2268 31.9215 18.273
56.7152 29.752 16.677
65.2498 34.1774 18.3139
44.4678 24.6996 14.1926
81.4257 43.3223 25.2402
71.7567 40.174 23.7144
100.053 48.3685 23.4827
52.6053 30.0856 16.3137
74.6972 46.2749 28.5366
96.5817 42.4985 17.5636
61.0069 37.0784 21.7134
94.8098 50.3004 27.5343
60.0969 30.043 15.0015
64.2735 38.0959 21.3026
102.907 65.8979 40.6947
54.258 27.6676 14.5216
50.5291 27.4395 14.2545
52.1144 29.4592 17.223
71.6109 42.292 23.3357
69.7101 41.9219 22.8501
26.2008 20.6095 15.1293
30.2062 21.6932 17.7523
76.9828 37.6705 18.2522
28.9496 15.4404 10.4163
56.0287 31.6454 17.8833
81.9723 54.7247 33.32
58.1101 31.7444 18.8228
89.489 56.9141 34.0279
55.8218 35.538 21.7463
62.2246 38.7912 24.4169
74.1258 43.4041 23.9601
45.0581 25.726 15.5145
43.2335 28.4594 19.9429
107.785 70.936 44.7619
33.8088 15.3777 8.48285
62.1697 44.8771 29.2372
36.6669 18.9485 10.4132
52.1349 33.8254 19.8739
35.1118 25.7842 17.8958
21.773 9.86723 6.15669
65.1685 40.7434 23.4135
72.6761 49.9455 31.4114
42.2063 24.054 14.571
67.6924 49.4738 33.4969
52.4969 40.8189 30.9552
59.2739 33.9437 17.4986
48.5202 37.5604 27.7581
45.3558 31.528 21.5132
34.7614 18.5786 12.4638
57.9151 39.9365 25.8723
30.5373 21.1368 15.3262
34.6198 24.16 17.5265
29.8971 17.871 12.0394
47.6318 30.3317 18.1186
35.9768 28.6081 22.3486
39.3077 23.0011 15.3758
45.881 35.5397 26.1042
35.9309 23.5912 16.4311
30.4913 20.1331 14.9371
30.2319 22.4871 19.2252
39.0892 24.2425 16.0255
65.3028 51.506 40.4116
55.5579 39.1497 25.9291
15 6.32137 3.94942
31.7622 21.3514 14.476
43.4643 38.6037 33.2895
36.6445 24.6272 18.7767
46.5692 35.836 28.095
75.153 52.2747 37.0719
50.4031 33.3239 23.949
68.8678 45.939 26.424
15.8532 11.4007 9.29397
41.2181 34.4388 24.05
19.884 17.3091 17.3925
51.0091 34.2648 23.4876
47.2495 30.6566 19.0806
49.2095 36.5297 27.4475
33.3826 27.8961 19.8658
42.0164 37.3038 27.6276
30.6028 26.2038 21.8087
34.6098 31.2839 28.631
35.4672 25.1867 20.2809
42.5543 33.1098 23.1555
32.3989 27.6455 21.2583
32.2699 27.056 21.9173
24.5935 22.6972 20.462
39.6116 28.7802 19.4836
38.0309 40.5851 38.2992
49.1918 28.3257 17.7488
45.1309 38.4328 30.8765
33.3164 27.5135 23.7761
25.1241 17.9542 15.2448
36.1367 29.2906 23.5974
25.321 20.2754 16.2192
24.8103 19.903 16.4637
25.1139 18.6211 13.1386
20.4711 19.3129 17.2718
17.7892 15.2182 13.4454
21.6636 17.4537 12.8696
20.2099 21.4627 21.2966
21.1409 16.3538 12.1586
9.45937 8.48525 9.90054
43.5588 36.7815 29.0864
30.3584 41.9648 49.2628
41.2881 30.4584 28.6119
41.9239 28.6309 21.5892
37.8704 29.565 27.0946
60.3581 45.7823 29.7321
36.4079 31.4427 25.647
20.4963 28.0177 33.177
55.9319 42.7639 33.2564
44.7618 50.0975 49.6332
47.4728 32.8773 25.1556
41.1716 38.9 33.1165
27.3334 21.3335 17.1712
42.495 41.154 38.8357
36.0353 31.0258 27.0806
32.1927 30.0433 30.6179
39.7621 29.278 22.8836
47.9113 44.1751 35.5057
28.526 29.5513 31.2415
25.7201 19.7908 17.1986
29.7704 25.6716 18.2737
25.6546 32.4516 37.1176
28.4056 18.9993 14.9137
27.9809 22.5041 18.3623
20.1893 20.2719 17.4951
22.9352 25.6326 25.8
13.5652 15.2367 21.4824
47.6086 44.5163 35.0819
36.7314 42.8313 42.0332
27.8645 20.8392 18.4167
25.682 24.9176 23.9659
17.4756 19.7963 23.5262
43.7686 38.1616 31.0268
19.4191 13.8721 7.96872
36.9034 46.3029 49.1173
40.6166 39.5066 41.2839
61.1826 63.7884 57.0027
15.1172 13.5117 16.7808
23.6008 21.4412 21.1202
22.2042 24.4179 30.2809
54.903 47.1369 38.4193
25.6802 33.2798 33.2415
6.88293 12.1693 22.9234
37.752 35.3415 36.1843
31.2474 23.2707 17.8905
20.6241 26.8419 34.0527
30.7726 32.6593 38.3783
63.6323 57.6583 48.8019
28.0228 26.9305 28.7316
18.9236 18.2087 21.106
36.2979 32.4796 27.1677
23.1163 27.8813 30.2315
38.3388 42.2891 38.8612
36.1692 43.203 47.8272
19.6452 18.9965 20.6551
22.8689 24.0627 23.148
20.0592 20.6323 19.864
33.0437 42.2161 49.6909
32.9607 38.1675 47.8684
46.6977 48.0655 48.6072
29.2134 27.3409 24.9662
29.3778 37.6587 47.5194
35.979 38.1408 37.76
29.9112 39.0436 48.3721
22.4291 30.4152 47.581
50.5137 38.0651 28.6896
20.3228 22.9531 25.1548
26.495 32.5477 39.938
32.8815 32.132 34.0265
19.8028 17.459 18.1719
22.0714 22.0724 25.6118
39.7516 36.418 30.5848
23.064 31.5526 36.9427
19.4016 22.4015 28.963
34.4993 39.9852 40.9104
14.2995 15.691 20.3293
7.34273 8.51367 14.2579
28.8124 29.7325 27.9622
13.961 18.3414 22.6028
35.3204 48.6725 53.7823
10.5819 20.8987 39.4604
29.2889 27.4638 34.1522
23.2961 19.0199 21.6252
35.9643 39.0627 40.4418
15.7466 22.5702 38.3137
54.8257 61.2478 60.6713
26.5643 35.1168 43.4872
24.6712 24.1411 24.1589
12.1874 13.3521 13.8669
11.2035 17.0004 26.5159
29.619 37.1876 42.1543
20.1168 20.733 19.5353
16.5396 20.7168 25.8109
24.5002 36.9924 50.9824
25.4484 24.9941 27.5296
19.8839 18.5385 17.4614
20.8895 30.6907 37.6795
19.5863 32.1978 50.3455
40.0448 34.7295 27.4909
37.2219 55.7079 70.4153
27.0588 32.22 41.3519
33.2136 41.583 48.1829
22.4405 36.271 59.0726
53.8521 71.1246 99.8788
60.3362 77.111 107.816
65.6927 61.7047 54.5202
32.8765 46.3217 62.2537
27.2305 31.7618 35.1908
9.50689 14.4393 26.581
16.938 16.2567 26.1671
36.3363 50.7623 63.4615
25.9872 25.7547 27.2184
28.1356 36.39 39.9252
21.3965 33.9417 47.5939
25.5422 29.5235 33.9356
21.4549 38.7221 63.3291
24.6827 22.6112 22.9365
16.9299 21.6698 24.444
10.0551 17.6961 35.6543
34.4688 33.8372 29.4899
19.8347 28.5053 36.4731
42.3336 65.2718 89.9078
29.1336 31.7714 36.3269
15.6086 19.8561 34.0596
29.6908 35.6193 37.2301
16.5758 19.5568 19.9016
11.5977 20.1211 30.0608
8.56577 10.0624 15.6454
16.7262 26.2471 37.536
16.0443 17.1979 20.73
17.2821 26.4863 32.9302
8.70658 13.935 25.1477
15.7291 24.8726 40.4681
28.615 37.0618 48.5771
20.6614 22.8222 24.4748
35.4067 54.8647 63.0056
9.94166 15.1193 28.6583
21.5797 36.2222 56.9118
25.5199 27.0609 29.3186
15.5194 27.5962 47.8503
28.8093 36.0916 49.5563
17.1061 17.695 22.7141
26.974 40.4861 57.067
25.8697 35.9798 48.3386
15.342 19.0589 26.2674
13.8606 20.6348 32.3153
13.2141 18.8074 27.7694
21.264 28.5223 36.6979
19.6554 36.1376 63.5824
30.5088 37.5857 42.3732
22.1424 38.9603 63.7812
25.2953 32.6124 48.6593
32.7496 48.6481 62.5278
11.8819 15.9386 22.7379
12.2028 23.3275 50.4459
26.1536 28.7896 33.9639
17.9363 30.6638 50.5684
27.0701 31.5753 34.8266
19.4782 34.4863 47.5601
13.6716 16.0392 21.8568
10.7359 16.8611 23.7643
16.0068 27.9758 42.942
18.4123 28.5734 44.4543
14.4671 21.5472 33.0079
10.7227 15.0539 25.6718
16.3119 21.7415 29.3579
15.3264 25.5548 34.5641
12.284 21.2904 38.3597
22.5354 35.1024 55.2491
19.1793 30.8861 53.3693
18.8336 23.2296 26.8197
6.12567 9.38409 13.8889
4.42486 7.52073 19.1494
23.2539 40.3016 53.1069
9.33914 15.7509 26.714
10.3611 21.005 45.0906
14.1402 17.1548 21.5061
11.8488 22.6613 40.9983
11.2523 14.6122 23.7382
18.8175 33.3366 57.9104
20.6778 24.5479 34.6727
19.7309 26.5917 34.8061
8.35463 16.7204 26.1739
8.14884 17.6506 41.5644
18.497 21.9448 30.9383
23.2449 35.3154 48.7854
10.6289 17.9449 31.4014
14.9473 21.1772 33.9234
11.3047 19.3252 33.3716
14.9004 19.5946 27.692
12.8509 19.3483 27.3266
8.70399 18.7297 39.957
15.8375 22.0784 33.2572
15.2482 28.5852 46.4759
16.9486 28.2722 47.1735
18.5141 26.9387 36.5005
5.75601 8.53816 19.3686
14.4705 28.0216 56.1207
23.2217 26.9056 31.1315
13.4955 21.5143 27.0833
12.2009 25.3535 44.3233
17.5658 31.7954 54.5451
9.01611 15.9118 40.5386
18.5066 20.8876 21.537
9.48385 22.8208 45.3776
10.749 15.2036 31.2372
16.7836 22.1926 37.5998
20.4696 28.8355 30.4797
10.2623 19.8276 24.866
10.8566 25.3368 43.4978
7.91085 20.7177 52.8123
14.7251 21.105 32.9833
11.2342 21.1026 39.7708
17.6351 26.2785 36.7381
5.91965 14.8911 33.8046
7.16758 13.6055 37.8705
17.3532 23.3111 23.7399
13.0464 31.3832 57.2326
15.7973 27.4772 52.7305
14.3534 19.6909 31.3432
14.0512 27.8321 46.5121
11.8237 19.0797 31.4908
11.5693 18.9342 29.8068
9.53665 19.6394 37.8131
9.26021 15.3187 29.6596
14.9022 29.432 52.8829
12.7249 20.9398 38.8883
14.5027 25.6554 43.0718
10.3481 20.8199 46.0804
15.6447 25.4296 36.8221
11.8097 26.6569 62.6362
17.8461 21.9922 28.5942
11.504 19.4009 28.6801
12.7593 31.412 60.4348
14.7406 21.8024 33.3711
18.3255 34.2588 48.5519
6.56764 17.4276 35.1934
9.01833 23.601 64.7053
18.4308 24.0072 28.5707
11.5871 28.4962 53.372
8.48194 10.546 19.0289
8.89583 20.4206 44.8973
15.8387 24.4089 40.6129
8.25295 11.5592 20.867
12.3007 25.0965 38.5789
8.15708 19.9598 48.8855
17.0149 26.6191 39.7967
7.38667 12.057 24.1095
12.4126 25.2571 47.1881
14.7838 28.8015 52.2691
13.9351 23.7853 36.4241
13.8276 32.9807 68.2956
19.8918 39.4745 72.0934
16.4251 39.0217 95.1732
26.2079 37.2456 44.1139
5.55879 21.0966 58.5897
12.0419 20.9188 46.4784
15.9756 29.181 58.6434
14.6282 21.5806 38.2149
9.30131 17.9437 44.2339
16.7012 23.9927 35.2404
7.56912 11.6708 20.5003
14.2088 32.999 53.2335
10.4005 26.1866 60.1788
10.3372 11.7119 18.7513
14.7419 31.9042 50.4395
9.71606 23.8705 58.7355
13.0247 16.5052 18.6864
5.85524 11.9804 20.7765
3.89339 9.80582 25.9225
8.43548 15.6436 28.9146
5.39273 11.6507 27.4109
13.6398 30.6542 63.3764
10.4954 13.1283 28.4905
11.9389 23.5021 41.7378
11.3723 22.6043 35.4095
9.3181 28.5109 71.0945
16.0003 29.9105 54.7154
11.2844 22.6096 51.3692
15.3847 32.6999 62.7663
11.2207 13.2866 17.6423
8.4498 19.7241 34.1368
6.57454 16.2056 42.9299
10.4735 18.9361 32.2829
7.46884 21.0677 51.3264
11.5431 22.0278 38.5061
6.71436 17.7952 46.577
12.85 26.6823 53.0667
10.6232 21.4295 58.8557
18.2715 30.0091 44.8503
6.46667 8.3274 13.3135
6.38611 17.4636 46.5584
12.6133 28.3236 53.5614
13.2835 28.6311 56.4218
12.979 27.3357 54.378
13.9867 32.5285 80.1675
19.4645 31.7432 53.4469
12.4927 28.229 52.7212
8.58406 24.9319 71.5948
16.6047 30.9486 62.0866
13.8099 30.3113 80.0628
22.2248 39.4624 74.4503
11.2781 13.1868 19.4771
9.93082 22.3965 43.4697
9.00798 18.3556 36.1805
8.3365 22.6511 61.4881
19.7059 41.024 70.7362
5.35649 6.35247 19.7513
8.50502 15.3116 29.5334
10.6157 24.4139 44.3079
7.70358 21.2933 55.0637
9.22107 16.9544 44.315
14.8333 25.6926 41.4355
11.4697 24.1524 45.7105
10.9445 23.0015 39.2934
4.22153 8.43619 18.6721
5.36437 19.0093 47.3924
6.97093 14.393 32.7471
7.45923 15.0533 35.8375
10.1075 26.6336 69.864
15.0943 22.2921 35.9625
12.8228 27.3996 47.5697
7.86064 22.2937 58.7868
12.8204 19.1726 24.8914
7.42765 23.657 55.5143
8.58737 16.9842 32.5328
4.88041 15.2858 57.9344
23.7648 51.5884 78.8999
7.83805 25.0966 60.6729
9.84731 23.6538 54.3509
7.55025 25.0486 82.0752
11.7276 13.279 23.2109
8.41531 23.1171 54.588
11.3294 21.7773 45.9489
6.35975 12.3031 27.5645
5.71255 9.77292 16.9902
4.67676 14.3155 34.0299
4.60812 12.2941 37.3722
6.74029 11.708 29.2432
10.2061 24.0792 46.2617
8.34764 20.8361 63.6374
14.0221 23.245 49.5327
14.2478 29.5243 43.6673
6.29946 17.0674 34.2007
9.04215 29.2694 66.8624
6.95454 14.3988 29.9316
6.74472 30.2761 98.9876
9.48936 8.81036 19.0539
9.20903 20.246 31.1282
4.07482 11.8939 35.4992
7.30289 12.7816 26.6901
5.86674 12.6092 39.2317
8.80183 19.1036 52.2258
12.7995 26.2729 49.8711
12.4519 29.7458 54.205
5.31745 14.3307 38.7014
8.16636 16.1097 32.4972
5.6744 16.7588 47.6702
9.82942 19.5639 40.3629
6.79872 16.0073 40.2011
7.17228 18.7494 44.6722
8.8638 18.2633 41.2393
6.33963 16.8236 45.9506
6.7025 12.238 25.0702
6.65695 17.2421 39.4657
6.64726 14.4521 29.2279
7.11959 19.1722 43.1631
5.69772 17.6534 52.0397
7.39799 10.5714 19.9826
4.8262 15.0589 43.6914
7.21425 17.1649 41.0288
9.21658 21.1718 59.4581
14.9976 40.3097 97.8112
12.0149 15.9622 17.0208
6.91172 25.5328 65.2297
7.23851 15.0394 48.7114
10.2131 20.0037 42.9921
7.64496 16.0693 27.9244
4.62219 15.4185 37.8675
6.7368 22.6011 68.1363
11.3991 21.3516 51.5272
8.26733 13.255 25.7053
4.97352 12.8449 45.7495
11.8367 23.7448 47.479
7.61204 14.3807 24.1317
10.4202 35.7301 88.5063
12.9576 27.8479 49.7621
5.61651 16.1143 43.6839
6.15038 15.9661 44.2587
5.47326 9.67057 19.3486
3.7813 11.3799 33.5055
5.76529 16.9158 52.6045
9.46257 18.7085 31.8598
5.4402 20.5875 51.8848
5.0819 13.5799 38.8695
9.87183 29.9367 67.2619
6.19381 18.4528 53.2559
4.39801 9.0609 42.9377
7.48387 11.2663 17.718
3.26467 13.6584 63.3301
10.6444 22.2736 47.4395
7.63189 15.9764 30.738
5.74074 18.8877 50.6751
7.09959 14.3907 23.3664
1.76559 8.97372 48.1865
10.979 27.5705 49.0949
4.5893 11.0339 33.0099
5.3275 12.8173 32.9425
6.79902 20.0429 45.1814
5.52357 12.9699 29.2329
4.43881 16.7503 52.228
4.80087 7.83884 30.7172
6.47002 11.2158 21.7147
5.47662 14.5328 25.6176
3.97049 13.1434 38.7489
5.49461 15.0122 26.9489
4.66278 17.8924 62.8592
8.85904 26.3449 70.9213
6.23039 9.70856 33.6114
5.90936 10.5161 29.6654
6.15836 12.9016 21.9054
8.87254 35.2068 74.8347
4.10551 13.3431 58.903
7.90912 16.8188 46.955
8.1725 19.3446 50.8887
7.28604 17.6817 46.0325
6.60015 16.8971 31.1752
5.21088 22.2203 58.1994
3.8685 12.9684 56.5143
7.90166 13.5144 29.5469
5.88161 19.9174 72.3716
10.3031 18.4066 36.5997
5.60047 12.673 26.2822
6.23528 20.6883 56.1322
7.66129 20.2884 41.8423
4.10365 14.7788 52.2641
6.70262 15.0561 44.499
6.21574 18.8724 65.8914
9.70432 19.0952 34.3888
4.11004 11.8731 45.4243
8.86331 21.9907 46.3393
4.84043 10.8973 29.7922
7.18377 25.4674 84.2295
11.7837 19.7562 40.6522
7.22703 15.2452 35.9714
6.96277 23.2711 48.6938
3.97712 14.7478 69.4836
9.30229 20.1512 41.3742
5.71274 13.8588 47.4854
7.67598 14.1731 27.8805
6.10073 17.9264 37.2799
4.96492 19.2278 72.0301
9.32025 26.0798 75.3788
8.66625 15.0948 30.829
3.57179 7.6609 22.9801
5.55905 14.3209 34.2464
5.18863 18.072 44.1693
6.10383 21.8394 45.8003
3.26151 9.84356 50.5386
7.0788 15.0703 32.771
4.0583 9.26675 23.9983
5.99604 19.9693 49.1059
5.55854 17.9632 45.8164
3.74589 10.4994 38.509
5.46995 14.8188 44.944
6.81848 15.2139 25.5519
3.26354 15.77 46.4714
4.28976 10.639 31.3218
3.19422 11.4731 56.3032
10.4114 32.4323 78.4564
9.00265 22.0755 45.4676
4.84675 20.2173 86.1665
12.3724 30.1826 75.6044
7.50565 21.5479 57.8301
5.0718 11.1192 33.9711
5.78172 21.2227 74.9724
8.69276 14.9899 34.0134
6.22651 16.5387 26.0724
2.16717 10.6313 46.7931
8.18664 23.5192 46.7111
2.70157 8.6397 44.4712
9.49564 29.7679 84.6596
7.91164 21.9334 74.3461
9.55733 24.7091 74.008
9.20995 21.2359 59.9696
8.69459 21.4054 43.3589
7.55893 26.4748 60.784
5.45782 11.2538 22.4055
5.57884 24.2984 51.3819
2.77749 7.81668 24.4891
5.04627 17.9672 37.1959
3.65291 17.3462 69.1771
7.43096 17.7393 39.2742
3.37864 17.9069 84.1112
9.64098 23.53 65.4175
9.64255 32.617 91.8247
7.28502 10.5934 23.4473
2.73005 7.86278 30.6884
4.72496 15.2804 42.2486
4.28511 13.3741 47.8842
4.83358 12.6376 35.7569
5.11998 11.5934 30.1945
4.05476 15.5491 63.3441
8.34198 14.3769 21.7814
3.31575 14.3407 48.1986
4.7438 12.9825 39.0761
4.03751 10.9847 40.992
6.58438 18.673 35.2177
3.73647 15.718 52.5286
7.12938 19.0442 46.4522
3.61765 12.8616 44.6547
5.35039 9.94018 25.7593
4.19245 16.8191 46.1354
5.31034 20.0191 70.0498
6.58649 16.524 45.0522
4.12619 11.7707 55.318
7.822 18.3165 38.5304
3.40961 9.10773 35.4768
6.84257 30.1135 115.036
11.6496 23.6482 41.0935
5.8315 23.8536 61.8375
5.47164 12.9914 40.7943
6.39939 18.2005 34.0755
2.29376 10.42 41.965
4.15415 11.2296 48.7095
6.30515 14.8959 61.9718
8.27254 19.7009 41.3467
4.14211 11.728 32.7623
4.77846 16.8847 36.3041
3.41352 13.9758 44.6963
4.15526 10.6555 35.1729
3.94127 12.4286 58.7522
6.91743 18.8414 89.266
11.6455 32.8648 59.9185
2.94179 7.08684 43.3933
7.5075 22.3866 55.6014
5.90101 14.0473 43.0438
5.16656 14.4621 42.699
5.2699 19.0433 48.034
3.70336 12.8258 48.509
5.51142 16.5637 45.2719
4.10506 11.1618 37.7642
6.20348 20.3347 56.2337
6.80346 24.9494 77.6127
6.59455 19.3761 57.6105
4.52756 12.4618 31.5301
1.92436 5.57361 46.9186
6.44377 14.3691 18.5325
2.57756 14.5533 49.9212
3.22301 6.32147 40.88
7.1646 17.4478 25.0978
2.45066 11.4765 40.225
4.12248 17.142 46.1311
3.79998 10.7801 29.2542
4.2425 18.4082 59.5727
4.06498 8.91981 31.8385
3.52734 19.8973 64.8062
4.09695 11.7401 70.188
7.82847 15.5876 30.4952
4.03775 9.68391 23.2373
1.98176 8.88167 33.0802
3.86966 9.23695 27.8228
3.19634 9.56626 32.1967
2.55378 6.47283 31.2105
4.32284 13.0516 30.1796
4.61115 19.8741 41.8105
3.51534 20.454 71.3089
4.40346 11.1161 61.444
6.33433 20.155 81.9464
7.77764 15.1022 46.9727
6.97827 18.7795 42.4403
5.62998 23.7461 65.4211
5.5795 19.7039 55.789
3.22172 8.94299 35.4223
3.37464 7.33841 41.6613
6.31629 19.9257 46.6971
4.28259 12.5935 56.5599
6.19369 12.5638 26.2226
2.65113 11.9309 45.3198
5.50654 14.2963 54.5631
6.41809 17.2917 36.69
4.46451 14.5143 43.5739
5.7484 20.408 52.8588
3.82709 9.34213 27.8276
3.37763 11.4865 41.1624
4.76438 15.8296 49.0101
3.40996 9.95825 39.2282
5.17762 18.4642 59.0271
4.25304 6.2128 20.1528
1.88397 6.54866 25.5332
2.85452 8.50501 31.6203
3.61296 15.8721 50.4084
3.59086 4.99564 15.3207
2.09686 6.85927 18.0404
1.90696 6.91335 29.9438
3.82079 15.1831 48.3298
2.95574 9.05097 52.0679
5.20853 13.0052 32.245
2.94097 7.66904 25.4148
2.74016 6.6315 43.2883
6.64546 21.4914 54.1477
4.68042 12.2172 27.8432
3.15306 15.5567 46.4289
3.86078 15.8134 76.9358
6.83198 14.3639 37.3905
2.78584 5.95909 21.7579
2.90322 12.6999 33.9855
2.99432 12.5627 62.5266
7.55207 25.1517 82.3146
7.77931 17.9672 51.6878
6.79009 22.3079 46.7632
2.28917 5.02161 26.1251
2.69618 12.1448 42.2991
3.41828 13.0216 42.73
3.2687 14.573 72.6772
6.66598 19.3072 73.2635
6.54537 13.4327 31.0355
3.65557 9.05903 16.5817
1.84012 8.26782 23.353
2.52635 12.6889 52.7805
4.45805 11.3153 31.4948
2.24087 3.89426 13.5683
2.3419 16.4445 68.397
5.42138 15.8238 35.7808
2.79553 8.21786 21.1598
3.15915 21.3146 73.2662
4.24635 6.22955 39.668
3.22698 9.0849 30.1893
2.66985 10.6849 52.0651
5.65289 14.0804 41.8697
3.70723 12.114 25.9826
2.01407 7.49358 31.199
3.87026 17.2383 54.7783
4.07346 16.6553 68.7323
5.85546 15.6212 39.3778
3.60172 13.5481 45.353
3.3032 11.7003 54.4355
4.07835 9.50132 35.0759
3.18939 9.42189 22.9997
3.05251 13.6884 35.639
2.85498 15.8796 51.8305
3.63339 9.07389 40.8775
4.3237 10.2122 29.1406
3.23244 13.5617 34.8875
2.64168 10.2567 28.5984
2.41779 17.8949 91.4272
7.11783 14.2653 44.9255
4.4242 15.2047 59.6426
5.25002 13.925 32.3023
2.82918 12.5728 60.7352
6.01978 18.4792 52.7558
4.53048 21.2968 79.4623
6.16937 11.9587 44.5211
5.21561 15.3917 38.377
2.61937 9.42417 28.3404
2.96296 11.4621 35.0471
4.31913 19.6077 45.139
2.43108 10.1243 66.7037
6.79168 18.7338 66.7763
4.71665 8.01255 29.0011
3.62884 11.6728 30.6262
2.20724 9.85322 39.0418
3.12874 9.86773 44.625
4.32879 10.8385 37.0435
4.1347 16.3817 33.9952
2.33265 6.35333 24.1671
2.82327 13.036 33.6721
2.27352 13.1191 62.6279
5.6367 12.5607 30.6614
2.88301 14.0089 37.9729
1.95025 8.8714 42.2047
3.13619 8.67536 32.5458
2.3546 6.94564 27.2597
2.1256 4.39389 10.8004
1.2309 8.13644 42.5492
3.76473 11.3555 29.102
2.13452 7.76751 39.4559
3.51773 14.6909 44.9151
3.55534 8.30489 23.9573
2.47079 15.704 78.4084
5.32949 12.5465 34.6012
3.23344 13.3586 43.5154
3.22733 6.15865 27.7474
2.94086 9.86473 37.4975
2.66199 6.83573 15.6411
1.4031 8.06101 43.5337
3.57864 15.6882 52.584
3.16716 7.89477 48.6865
5.83479 20.67 55.2478
4.37214 8.86889 19.8487
1.37098 5.62038 34.8638
3.15137 12.6996 56.8894
5.97863 17.6188 42.6955
2.91031 14.2291 55.6835
3.83291 13.1878 52.3211
3.92466 10.7424 36.2186
3.13792 10.7107 40.7609
3.23048 10.7786 27.205
1.90112 4.37017 18.0618
1.59072 4.64308 16.8288
2.04872 10.3685 32.6535
2.72484 13.0962 54.6658
4.03557 11.4544 58.1532
5.19424 11.3881 22.4364
2.24502 12.105 31.8476
1.95007 14.3837 57.0405
3.77607 10.0417 42.6818
3.88893 12.5493 35.1835
3.49688 11.1986 44.3368
3.34113 9.26208 23.796
2.43477 15.818 92.7596
6.30244 13.9996 25.7076
2.15771 9.33448 48.8887
5.3174 13.3069 58.4965
4.98831 14.4313 29.0664
4.14184 23.3975 63.4966
3.82816 8.74017 37.2964
3.50048 16.5616 50.9075
3.77225 18.9233 68.4087
3.55758 8.16166 47.6937
3.77155 10.2306 27.2088
2.3057 8.54045 51.1462
4.36817 14.5638 30.9485
1.63913 7.68338 37.35
3.45248 12.2963 47.8905
3.78205 17.9588 61.9051
4.55685 15.1012 82.8863
6.80528 22.0738 33.1174
2.29141 11.3684 25.4767
1.61803 11.9452 50.2426
3.52413 9.29479 22.8697
1.26312 4.19945 18.3866
1.30056 6.09313 43.3572
3.09763 8.81896 37.419
3.021 15.0589 61.9891
3.79336 7.09451 41.5474
4.43235 10.799 40.5732
3.62434 16.8421 33.5921
2.91344 12.0189 37.9026
2.83915 9.64523 44.6339
4.14147 13.4198 37.5548
2.92448 7.78208 22.9552
2.06834 11.4477 44.1446
3.06424 15.5298 67.5686
5.1319 12.9812 51.8822
4.63 20.701 50.3805
2.83937 10.4295 43.0089
2.99968 7.43092 39.8339
3.3002 12.1411 36.0319
2.61264 12.1038 47.4572
2.90843 7.75713 26.9863
2.3213 13.5204 62.7959
4.08141 9.739 41.3567
3.1419 8.49092 25.2717
2.46649 19.7499 54.5081
2.81495 8.05153 42.3695
3.56354 16.985 70.1608
4.9669 8.88737 45.24
3.42896 10.8285 49.5623
3.79226 16.0782 50.958
4.18458 17.0991 33.3758
2.51036 12.4019 66.7669
5.49886 13.3414 61.1899
3.84439 15.5546 46.1624
3.38253 7.00481 13.5433
1.31646 4.74308 29.7232
2.9077 16.5339 41.4259
2.63315 7.78116 46.1654
3.82553 8.74923 34.0019
2.55955 9.75167 53.1378
4.73733 19.6121 41.2475
3.04079 8.69112 33.738
2.61697 17.6653 50.7
3.11579 9.91177 48.1289
2.98296 6.97946 30.7222
2.58845 11.9907 45.2527
2.88404 5.353 17.7786
1.49659 5.05874 33.7926
2.90558 13.7825 52.1631
3.62414 11.885 38.3013
2.5075 7.90684 24.912
2.06486 15.6291 48.3523
2.80867 12.3171 53.4713
3.93803 14.5836 38.217
2.31201 8.14374 59.6058
4.85692 7.9097 29.6284
2.08735 7.75729 46.0996
3.95955 11.2916 65.5751
6.08361 23.6171 42.2793
3.3793 15.6741 50.6495
2.67534 9.1077 29.9192
2.02902 4.51229 26.4748
2.4099 13.6198 78.5698
5.39192 9.56105 24.8801
2.03853 10.6439 48.0081
3.58187 18.1865 82.3562
5.82672 13.341 59.8078
4.24515 10.6606 35.1112
3.39641 9.71973 26.4608
1.92259 7.14713 47.923
3.86565 19.0547 45.4069
2.63384 11.4594 46.909
3.35885 9.46498 36.2659
2.78226 11.3704 41.904
3.02533 9.39133 23.5395
1.73013 9.45253 45.8528
4.0901 20.7128 71.1417
4.54297 15.1522 36.7155
2.18909 7.70455 47.0488
3.37901 6.14824 52.4778
5.02425 15.3665 43.5409
3.17145 9.29095 40.8315
3.80278 19.5321 55.1155
3.36977 8.12135 45.3183
3.69377 16.2346 39.0555
2.10169 16.3267 95.6398
6.32698 15.6018 38.9555
2.08812 4.89203 27.7245
1.98002 13.0632 35.4964
2.44865 10.5575 62.4993
5.22675 15.6041 38.1567
2.02186 10.0361 33.3033
2.74746 9.66235 49.8808
3.22052 9.5278 26.4513
1.46975 7.90489 36.967
2.64075 8.15807 46.9284
3.61618 11.8912 32.0814
2.04429 5.05854 42.2849
3.3796 12.3477 60.9522
4.38442 19.961 55.0038
3.47228 14.5286 41.2214
2.42175 7.30759 33.8346
3.13754 21.8356 66.7054
3.81115 8.43994 37.2019
2.21853 8.63157 53.4114
3.50614 12.9078 76.7813
4.28435 13.2168 47.9374
4.03061 12.0483 53.7065
5.20289 24.6901 48.5194
3.22435 17.1572 76.3385
4.92682 16.7601 61.1628
3.74373 7.16603 28.0481
2.49563 9.76163 29.7078
2.2022 7.03613 55.393
5.14642 18.7923 58.1951
4.54978 12.7287 61.8964
4.11075 17.8795 47.576
2.6836 8.90376 30.7274
2.54426 7.85085 24.408
2.22811 15.174 53.7017
3.44963 4.54083 10.8693
1.32592 8.69007 34.0521
2.3043 9.88037 44.3377
2.86302 4.82259 31.7486
2.53213 7.64316 18.4404
1.26395 3.40186 28.1477
2.11507 9.66714 35.3404
2.69163 11.0387 23.7182
1.5366 6.45983 15.8505
1.47287 19.3749 81.0155
4.12363 14.2519 73.5458
4.06693 8.74766 37.088
3.18336 8.96763 21.5874
1.51931 4.79403 22.2137
1.61924 6.84645 37.9069
3.00513 7.46267 27.2969
2.32143 17.6927 52.0855
3.11289 6.64344 50.877
2.78342 6.6712 31.594
1.99022 7.77201 23.0138
2.06662 3.17409 21.7209
1.46371 11.3764 44.3672
2.90251 16.4711 51.501
3.88095 7.26132 21.9187
1.60244 12.0034 33.9007
2.23416 7.87969 53.3751
4.06917 10.7472 33.027
1.76016 9.04877 43.9459
2.86228 8.81223 39.7959
3.02108 14.1741 47.9727
3.10746 8.2928 55.1919
3.79462 10.8171 37.5847
3.05417 18.5711 51.0411
2.73282 7.88883 34.2332
2.21873 15.598 60.2602
3.79258 14.2739 32.9562
2.01521 5.3878 24.3429
2.03635 7.3742 52.9759
3.55937 16.4039 47.5068
3.1395 4.35933 22.5018
1.94379 8.6477 34.0621
2.56069 14.5324 57.6092
3.36487 9.00176 23.9079
1.80815 5.1327 45.5701
3.23572 11.1871 48.822
2.57238 14.2619 91.3302
6.64114 19.5491 43.4909
3.11363 13.0134 28.4312
2.2266 8.87885 27.2241
1.81892 7.27441 57.2607
4.571 17.2665 34.4909
2.66723 7.82891 22.4343
1.68868 15.2668 102.686
5.75889 13.6219 34.4886
2.04639 14.2617 40.2854
2.11637 10.6597 52.7143
3.45815 15.0351 53.3962
3.5148 12.4868 71.6021
4.79338 11.7592 30.7329
2.33315 12.3506 26.0746
1.66512 5.78221 38.3973
2.74006 8.58672 39.3143
2.28693 9.7564 42.9219
2.89996 15.3784 50.1633
4.03128 17.7996 52.6969
3.59941 6.77008 42.5197
2.87663 6.93327 40.8753
3.71755 9.50932 39.201
3.11248 12.4302 41.054
2.99156 14.25 60.1371
4.04758 13.4583 48.3954
3.02168 6.33324 12.4092
0.855991 5.40485 21.281
1.73911 8.4307 38.9197
3.0335 10.4811 35.8012
2.43675 13.7663 48.5738
3.40138 10.8715 46.4761
3.04816 12.3602 39.7304
2.53717 6.59965 29.262
1.73995 11.5134 64.3856
3.86456 10.9226 44.9342
3.10823 10.4748 41.5906
2.86318 12.2395 37.2989
2.13538 6.82163 28.8026
1.84513 5.96293 50.0453
3.27719 16.1381 57.7015
4.10167 13.469 38.2636
2.28377 9.66423 37.3307
2.62252 7.6327 43.5673
2.45552 10.3356 21.7825
1.5713 7.36695 41.2624
3.02473 6.57291 26.9445
1.84397 11.8695 45.8363
3.00904 7.08852 28.6052
2.49439 9.69535 28.1938
2.09818 17.5609 83.346
5.51431 10.1642 19.8543
1.53939 4.97374 36.419
2.33132 6.86652 30.8514
2.01891 7.41376 39.8117
2.84397 14.5519 59.7812
4.21752 15.3111 68.1868
5.62491 10.5308 37.4004
2.58585 15.2912 63.9749
3.53213 9.85817 31.5236
2.22415 6.85988 35.6963
3.01671 18.315 46.8512
2.90937 14.8756 71.547
4.39912 8.88448 36.1504
2.38671 14.1348 46.7194
2.8588 6.68556 37.3786
2.40414 14.8388 54.2693
3.18197 10.28 42.4542
2.72568 7.99455 19.8337
1.41224 5.51649 22.1787
1.57336 9.01238 27.0429
1.69383 10.5501 59.2385
4.30133 7.21388 31.3866
2.06739 5.96686 23.4385
1.71804 8.44163 42.179
2.88363 16.5731 57.2
4.26103 7.13851 53.3856
2.55541 8.46149 18.9697
1.07641 4.21697 24.5635
2.11184 12.3043 49.9881
4.31943 13.1875 31.056
2.50061 9.79633 39.8042
2.85814 6.29785 47.605
3.17392 7.33878 32.5501
1.98651 9.53914 44.7847
2.95914 14.5292 46.4202
2.84738 10.947 37.4202
2.12066 10.3951 41.3161
2.80065 7.57575 28.726
2.1 7.0068 27.2193
1.451 9.31821 34.3003
2.35235 9.37875 23.1059
1.41966 12.5595 49.272
3.65427 7.97417 44.846
3.06079 17.4472 63.7052
3.7934 15.1902 55.4358
3.36199 7.88063 28.0474
2.02771 6.44039 29.6112
1.58364 10.2504 40.6574
1.89393 8.99634 25.8382
1.8653 7.56423 48.8636
2.82645 10.1512 37.6531
3.00969 10.6558 37.1445
2.24477 9.88522 69.4749
3.85402 0 0