# pn-170911/RbIIR-48-USN7-1280-1959.psd
# Power spectrum* (dif=0,1,2) (really just |FT|^2)
# NOTE: only the first half! (symmetric)
# weeks: 1280-1959
# 476 clock-days, 60 excluded
# PSD: 1441
338.387 0.0758028 0.048074
21610 0.464456 0.112427
115990 2.46402 0.108492
14924.7 0.529135 0.108008
46809.1 3.66452 0.114913
5213.87 0.506887 0.112113
4620.47 0.688691 0.103318
2802.05 0.507091 0.106891
2778.25 0.739209 0.105445
1688.13 0.498578 0.106216
1555.45 0.582787 0.107647
1240.4 0.520328 0.10619
1125.26 0.572491 0.111176
877.94 0.525073 0.104373
814.31 0.581415 0.104767
737.613 0.601938 0.112945
661.559 0.694815 0.110662
562.118 0.646828 0.114379
566.026 0.731667 0.105987
491.576 0.658464 0.107598
478.523 0.722667 0.117443
426.925 0.747927 0.10717
413.195 0.807335 0.104067
359.062 0.800184 0.109172
419.378 0.930039 0.10608
371.418 0.938633 0.109318
349.903 1.0075 0.108952
307.488 0.896281 0.107977
341.458 1.09923 0.118946
300.178 1.03158 0.108081
318.027 1.17482 0.11657
317.822 1.24823 0.122447
287.327 1.29126 0.119966
297.527 1.40077 0.117689
289.672 1.45053 0.120584
265.876 1.44198 0.116284
261.803 1.44661 0.118254
262.343 1.63438 0.119492
285.692 1.78276 0.121717
248.813 1.62278 0.114144
256.012 1.75186 0.132033
260.751 1.88708 0.122014
258.514 2.0042 0.120828
258.794 2.0712 0.129218
256.299 2.15708 0.131209
244.275 2.15762 0.115925
253.579 2.39436 0.135975
273.841 2.58382 0.136158
262.928 2.70645 0.142541
224.466 2.44371 0.130297
236.795 2.66337 0.146034
232.105 2.67987 0.137357
233.473 2.82012 0.144196
257.82 3.30407 0.150451
242.075 3.08058 0.145864
227.477 3.07657 0.147204
235.86 3.32998 0.158214
218.712 3.19762 0.14458
224.176 3.4834 0.157794
236.245 3.7342 0.166796
237.946 3.91807 0.160746
229.38 3.82903 0.168951
223.109 3.9185 0.187764
217.734 3.93144 0.17227
216.828 4.0921 0.183687
199.485 3.86131 0.188904
218.172 4.35357 0.19122
230.664 4.83604 0.2272
197.374 4.13542 0.213519
181.857 3.94635 0.193844
222.426 4.99456 0.218685
193.777 4.53284 0.210326
207.08 4.88116 0.222628
199.188 4.88042 0.243129
202.745 5.13577 0.231853
220.381 5.58933 0.255017
216.953 5.74883 0.250305
213.236 5.78768 0.272655
203.686 5.80912 0.268763
188.822 5.52773 0.252359
180.581 5.35222 0.288874
197.451 6.0431 0.29125
201.081 6.12885 0.313966
186.26 5.97354 0.304511
180.905 5.87426 0.296532
183.154 6.22397 0.307745
195.03 6.68549 0.336077
183.991 6.32113 0.318925
181.985 6.51377 0.342738
181.524 6.74525 0.368612
186.632 6.98216 0.370711
198.904 7.72243 0.409455
190.839 7.44027 0.424783
165.861 6.54396 0.3571
159.579 6.48919 0.383341
174.339 7.31313 0.407214
226.43 9.81533 0.515415
167.744 7.20901 0.417113
157.125 7.12397 0.429086
157.562 6.92812 0.422819
156.371 7.39604 0.462263
162.129 7.5708 0.452287
169.36 8.10552 0.50563
166.612 8.17569 0.503997
162.826 8.05859 0.51245
162.464 8.27191 0.505393
167.274 8.61091 0.55681
172.992 9.24632 0.603225
171.553 9.42807 0.622508
161.369 8.70895 0.584941
134.052 7.52372 0.530207
153.022 8.60806 0.606071
151.029 8.76104 0.596582
162.225 9.63193 0.678084
155.87 9.42395 0.678092
145.378 9.00677 0.675378
161.393 10.0677 0.740974
147.739 9.3676 0.672305
143.838 9.26235 0.70242
155.441 10.4327 0.82858
156.579 10.6378 0.787367
133.721 9.00382 0.718564
133.469 9.1935 0.747367
127.9 9.07611 0.749413
143.986 10.2922 0.81
130.752 9.49851 0.77936
142.558 10.6338 0.884236
154.505 11.7416 0.988709
129.272 9.58432 0.818038
144.467 11.0598 0.987257
132.048 10.306 0.913705
141.813 11.4067 1.03678
135.236 10.957 0.969295
149.458 12.2505 1.07242
130.512 10.7342 0.994027
125.427 10.6028 0.974205
137.326 11.6015 1.10778
132.638 11.7267 1.14388
132.593 11.6931 1.16079
121.757 10.9867 1.08713
135.199 12.1643 1.17102
113.987 10.4361 1.03956
113.449 10.4437 1.07483
119.544 11.3454 1.14959
144.855 14.3944 1.5163
125.419 12.049 1.24837
121.753 11.8371 1.24982
120.102 12.204 1.3065
127.402 13.216 1.44202
126.431 12.7372 1.3662
105.528 11.2478 1.2676
120.306 12.9749 1.44037
106.987 11.3385 1.30467
116.934 12.762 1.46213
124.272 13.8324 1.60472
120.781 13.5573 1.64229
130.743 14.7472 1.73565
114.319 13.0503 1.57654
114.476 13.002 1.55767
106.46 12.2109 1.49278
115.068 13.7438 1.69796
123.358 14.8724 1.87152
103.664 12.4907 1.56993
102.458 12.4608 1.63219
112.153 14.2126 1.86346
110.56 13.8758 1.80052
100.676 12.7741 1.69113
112.371 14.9234 2.03782
127.223 16.7511 2.26836
108.69 14.0759 1.90733
108.738 14.4118 1.98035
111.31 14.877 2.12275
108.32 14.8903 2.1304
98.0838 13.4097 1.9929
110.818 15.6724 2.25808
100.98 14.3077 2.11145
111.265 15.7107 2.35711
104.922 15.2096 2.26494
102.423 15.2429 2.37141
103.627 15.1788 2.27532
106.673 15.8041 2.44693
108.041 16.1593 2.53415
105.932 16.2064 2.57185
103.375 15.6969 2.45541
99.6222 15.8197 2.65502
98.2604 15.4237 2.58765
106.687 17.2792 2.82554
98.2422 15.8016 2.54108
93.754 15.6161 2.67215
102.332 16.7255 2.86524
98.4041 16.6956 2.86474
102.244 17.1132 2.98927
125.677 21.8091 3.74424
94.7349 16.2737 2.84893
94.3401 16.8586 3.06678
98.5998 17.4383 3.10037
102.977 18.5012 3.3593
94.7225 17.2152 3.17615
96.6074 17.7145 3.3233
100.017 18.3014 3.49424
89.9138 16.5069 3.1143
88.5569 16.4759 3.25536
85.378 16.1555 3.0778
90.9028 17.2658 3.38375
92.8832 18.5812 3.68178
92.6921 17.4855 3.36131
89.0728 17.5205 3.47535
95.3453 18.6499 3.80498
93.9515 18.9331 3.94733
93.0548 18.4755 3.81594
91.6773 18.9685 3.97875
91.5898 19.1545 4.00922
80.8946 16.4761 3.46405
83.1401 17.2374 3.75833
89.4238 18.9039 4.08785
81.6335 17.8583 3.99614
89.953 18.6267 3.88288
79.3685 17.1912 3.83399
76.3946 16.9222 3.72001
81.1043 18.1539 4.12683
89.2985 20.4758 4.73737
85.9788 18.9275 4.19655
76.9916 17.7054 4.13207
84.1505 19.1412 4.44724
83.7289 19.5028 4.5575
83.4923 19.4399 4.67979
73.9143 17.4823 4.17443
81.0998 19.0015 4.46969
83.4759 20.4785 5.112
82.2604 19.5594 4.78465
72.4699 17.7235 4.34591
81.2251 19.8747 4.86668
76.3486 19.0726 4.77706
82.7283 20.6367 5.18186
82.2798 21.0905 5.39784
72.381 18.4653 4.82217
86.915 21.4919 5.45202
71.713 18.882 5.03157
69.7976 18.2199 4.80653
74.9843 19.9554 5.4691
73.0977 19.1843 5.14125
75.3497 19.8531 5.23339
72.975 19.6759 5.32558
73.8238 20.2853 5.57165
78.0164 21.6332 5.94514
80.0347 22.2545 6.17508
79.0946 22.0599 6.16414
72.0164 19.8489 5.49341
68.5166 19.8246 5.79289
72.1732 20.6614 6.04162
72.8438 20.4431 5.88292
69.4635 20.7225 6.0309
73.1082 21.1696 6.13245
78.0912 22.9361 6.69539
75.2663 22.5281 6.78127
70.2297 21.6511 6.668
71.2482 20.8914 6.28957
69.3288 21.0352 6.40993
67.6567 20.7325 6.29895
71.1139 22.1863 7.07136
67.5572 20.754 6.57904
67.7909 21.3836 6.81284
71.3622 22.2339 6.96081
66.9497 21.1691 6.86379
73.448 23.2573 7.36519
68.6025 21.9907 7.12506
63.0811 21.1768 7.06254
66.4437 21.1843 6.91282
66.9685 22.06 7.40093
68.9911 22.3933 7.27308
67.5387 22.1883 7.38297
67.8119 22.8368 7.7575
62.393 21.3751 7.33749
65.8117 23.203 8.23582
63.8998 21.7304 7.48605
64.6571 22.2902 7.93561
68.1258 23.5012 8.08175
65.5886 22.8757 8.03763
61.8931 22.0348 7.97585
57.6614 20.7376 7.4855
58.774 20.8659 7.59881
59.191 21.2668 7.81602
66.6712 24.059 8.85813
63.2931 22.726 8.25109
64.6149 23.5976 8.73806
65.6739 23.4666 8.39878
56.1495 21.5117 8.41223
63.437 23.9355 9.17355
85.5471 32.1034 12.0051
59.6974 22.2779 8.48173
55.2416 21.3888 8.37422
63.6133 24.6737 9.63641
55.4248 21.094 8.27157
63.1766 24.6633 9.65533
58.2009 22.9124 9.2025
56.1003 22.3248 8.97034
57.255 22.371 8.71879
55.1035 22.1594 9.03467
58.4238 24.1871 9.99336
59.1774 23.9363 9.90153
56.2828 22.5851 9.29102
59.1598 24.4934 10.0354
54.1 22.976 9.56972
56.1963 24.001 10.3593
58.5945 24.2738 10.1835
49.713 21.0181 8.96166
59.7159 25.4874 10.8967
52.3292 22.2577 9.78294
52.1036 23.1168 10.2752
57.3156 24.5196 10.734
56.0003 23.7857 10.263
52.6588 23.5533 10.5548
56.9907 24.7555 10.8631
55.9957 25.0246 11.0833
54.0542 24.8315 11.3853
60.2221 26.578 11.9118
50.3729 23.2869 10.8656
53.5157 24.6038 11.1584
48.7346 22.3863 10.5351
52.9525 24.3518 11.4656
50.5031 23.3604 10.9665
52.2859 24.1164 11.4278
50.4589 23.2184 10.9833
54.1513 25.0164 11.5807
52.964 25.3646 12.1528
49.9894 23.7685 11.5189
52.763 25.44 12.3057
49.632 24.075 11.7637
47.4032 23.0303 11.363
50.3181 24.3513 11.9459
44.6874 21.8646 10.9147
50.9225 25.1401 12.3438
46.9475 23.0076 11.4613
50.3018 25.0731 12.6527
43.9681 22.1866 11.1139
46.6378 23.6996 11.9886
45.0615 22.9737 11.794
47.3213 23.8078 12.2005
46.9386 23.7938 12.1661
45.3245 23.5996 12.5432
50.1864 26.125 13.3968
47.9272 25.4495 13.5313
47.2165 24.4973 12.8872
43.9089 23.9077 12.9982
48.7531 25.5209 13.6508
43.6118 23.1877 12.5548
46.2707 24.4827 13.0541
48.77 27.1176 15.1027
45.2637 24.9416 13.7856
47.494 25.8299 14.2939
46.3594 24.1676 13.0038
42.9391 24.2261 13.8694
47.303 26.6657 15.1782
48.3035 26.625 14.7482
48.8542 27.2449 15.4167
38.8728 22.1273 12.9371
45.8438 26.0099 14.7781
45.5093 26.0121 15.146
44.5166 24.9849 14.2946
42.1896 24.4894 14.4848
44.6248 25.6093 14.815
43.2729 25.1079 14.7813
40.2946 24.167 14.7972
44.0774 25.2241 14.8389
43.703 26.4483 15.9883
42.8717 24.7267 14.4559
40.0458 23.6886 14.385
43.4028 26.7417 16.3984
43.0841 25.875 16.0297
41.2789 24.6667 14.9832
41.9769 25.5972 15.6833
42.0643 25.7237 15.9359
40.7435 25.6193 16.1963
43.8588 26.6652 16.6019
39.3179 24.6665 15.3276
40.3247 25.5737 16.2615
44.3953 27.0813 16.7128
41.6031 27.1815 17.4467
39.7994 25.5333 16.4094
38.8629 25.0961 16.4686
38.4824 24.1216 15.5624
34.7567 22.8878 15.3912
38.9675 25.0799 16.4323
36.7124 24.204 16.5431
48.4039 30.6844 19.0193
37.525 25.1869 16.7005
40.4939 27.2397 18.4537
41.1016 27.8171 19.0249
36.8999 24.5925 16.9483
38.8457 25.4055 17.0066
38.8444 26.2435 17.8036
40.5088 27.6392 18.7233
38.8043 26.5831 18.3311
37.2278 25.6436 18.1768
39.7592 26.8393 18.3764
37.0696 25.2305 17.5695
35.8866 24.984 17.8436
39.5568 27.5773 19.3884
38.1627 26.4624 18.833
37.52 26.3959 18.8191
34.7668 23.9986 17.1113
34.9121 24.3635 17.1712
37.7757 27.5716 20.1301
35.8804 25.3891 18.4664
36.8517 26.505 19.0852
37.8369 27.0622 19.7423
37.6623 27.3855 19.96
36.0164 26.4745 19.803
36.5523 26.1135 19.0089
37.645 28.006 20.7009
34.6963 26.1648 19.811
36.577 27.261 20.5846
37.4887 27.6683 20.0992
34.7711 27.2132 21.1106
35.1164 26.3801 20.3314
37.0405 28.4728 22.1239
33.3515 24.8005 19.1797
34.9978 26.4767 20.5113
34.8413 26.3531 19.9354
33.9812 26.0681 20.1296
33.1686 26.1954 20.7912
35.8799 26.5044 20.0457
31.6259 25.2959 20.1392
30.7551 24.4928 20.1215
33.4468 25.8021 20.1048
31.3242 25.2387 20.3985
31.5822 25.4602 20.6748
32.4509 26.5137 21.9977
31.9656 24.7436 19.7462
30.0194 24.0582 19.9701
35.4373 27.8686 21.853
33.076 27.3518 22.42
30.0079 23.9258 19.7658
31.8398 26.6399 22.7697
32.6413 26.2439 21.5549
29.6037 24.4738 20.6434
31.761 25.8755 21.6213
31.4675 26.109 21.7899
31.875 26.2703 22.1945
30.4597 25.7576 22.1004
31.2555 25.7234 21.6442
30.3908 25.4251 21.8552
32.2885 27.5255 23.5565
29.1649 25.1434 21.8962
30.0008 25.3931 22.1319
32.0328 27.552 23.9464
32.1623 27.4656 23.4089
27.9156 24.6663 22.242
30.5738 25.9704 22.4186
30.1455 26.6235 23.5191
29.9553 26.0281 22.8943
29.144 25.5423 22.6866
30.9838 27.4096 24.2241
30.2934 26.7884 23.8876
27.6786 25.5468 23.6286
27.4763 24.7205 22.8508
27.4453 24.6428 22.7775
28.9429 26.2316 23.9966
27.693 24.3919 22.1479
27.3 24.666 22.6563
28.1985 25.7748 23.482
28.0646 26.6465 25.3552
27.1151 25.2776 23.915
28.3332 25.6247 23.5301
26.0362 24.2867 23.4012
27.934 26.3425 25.4177
30.695 29.009 27.6792
27.5935 24.8159 23.2706
28.5932 26.9761 25.238
28.7911 27.3777 26.1444
27.7569 25.6741 24.9831
27.6395 26.0061 24.7973
26.3855 25.5526 24.8595
27.2306 26.3783 25.9161
27.3836 26.4894 25.8805
27.3433 25.9792 25.2983
26.5844 24.7459 23.4402
27.3471 27.1406 27.2705
27.7711 27.3663 26.8934
25.1924 25.2666 26.8106
38.3403 37.3577 35.3525
28.6423 27.7529 27.3636
25.3129 25.2756 25.5233
25.513 25.0142 24.9133
25.7666 27.0037 28.2175
24.1269 23.917 24.6313
26.6163 27.0975 27.535
24.8405 25.0217 25.7985
28.0013 27.9579 28.5201
25.1632 25.6583 26.8006
28.4376 28.1255 27.6806
23.9738 25.6849 27.3486
23.7642 23.8435 24.4992
23.6514 24.5559 26.2333
25.6255 26.0026 26.9307
26.1505 29.0259 31.5279
24.4004 24.5506 25.6282
24.7408 26.3409 28.3154
24.9216 26.3822 28.056
24.9228 26.6628 28.581
22.9554 23.5397 24.9461
23.4993 25.6573 27.579
23.4445 25.6323 28.1236
23.0003 24.6634 27.6645
25.2472 26.5173 28.6149
25.1544 27.7954 30.7496
22.5491 23.1226 24.4971
24.1147 27.16 29.7281
23.6394 26.4541 29.277
23.473 26.3122 30.2395
24.1399 25.6922 28.591
24.1011 26.1497 28.8386
23.6083 26.2707 29.4929
22.9075 25.4386 29.2358
23.6778 25.6278 28.318
24.831 28.1195 31.7644
23.4053 25.6337 28.995
23.7097 27.1628 30.9812
22.3604 25.4011 29.5027
24.7274 28.0294 31.6156
22.0214 24.7795 29.0371
22.3434 25.806 29.8083
23.638 26.7743 30.2301
21.9474 24.9564 28.8825
21.01 24.7062 29.7625
22.5762 26.0301 30.6154
22.1845 25.5467 29.7815
21.1892 24.8055 29.4005
21.7965 26.091 31.7674
22.6553 25.7293 29.2066
21.7558 26.4904 31.9712
22.4535 26.5323 32.2454
22.9409 27.2885 32.4124
22.2388 26.5466 31.3856
20.449 24.5255 29.6519
19.946 24.4443 30.421
20.4856 24.9526 31.0119
20.3859 23.6824 28.4717
20.7075 25.0823 30.6631
19.6834 23.746 28.1642
19.0437 23.617 29.908
21.5002 26.9249 33.6745
19.8222 23.1895 28.5043
20.4478 25.7064 32.2249
21.0402 25.8837 31.6307
20.9125 26.1049 32.6023
20.2605 25.1859 32.5431
19.9241 24.2318 29.9421
20.9966 26.1554 32.479
19.2035 24.3208 31.8816
18.9436 23.2363 29.0053
19.2524 24.9978 32.7607
19.4586 25.1329 33.1352
20.8197 25.4296 31.5719
19.7718 24.6267 30.7694
19.9735 26.8539 35.384
20.6796 26.3898 34.3157
19.0043 23.3225 29.8417
18.6816 24.6876 33.3605
20.643 26.1972 33.9305
19.253 25.0751 32.7168
20.1006 26.8349 35.1794
19.1482 25.3675 34.2919
20.2476 26.6027 35.0824
20.4925 26.9691 35.2004
18.8254 25.1878 33.8729
17.6041 23.5526 32.2637
19.681 26.3369 35.3623
19.0974 26.5853 36.6231
19.6446 25.7192 34.8778
17.9701 23.4585 31.2572
17.0709 23.7165 33.7761
18.0333 23.3867 31.8484
18.6764 24.6121 33.1181
18.334 24.5586 33.9513
18.2898 25.5748 38.5622
26.2434 34.5167 42.4356
18.0903 25.6099 37.0909
19.3037 26.3237 36.3479
18.2523 24.607 34.0382
17.2475 23.5375 33.1095
17.8883 24.5992 34.7127
17.8389 23.9091 33.4848
17.9711 24.3855 33.7759
17.8247 25.1846 35.2437
17.092 23.7056 33.8838
17.6913 24.2261 33.5598
17.0296 24.1384 35.0192
17.3361 24.1725 35.089
17.0781 23.8679 33.5961
15.7263 22.5255 32.8994
16.3626 22.9464 33.1542
16.6972 24.3772 36.179
17.6902 25.131 36.4093
15.9942 22.9911 34.6396
17.123 24.4006 35.3692
15.8213 22.3201 33.1022
17.0091 24.3047 35.6468
16.3475 23.0368 33.7093
16.7848 24.0288 34.4285
16.0492 22.8808 32.9553
16.4598 25.3581 38.0723
16.6552 24.4533 37.1549
17.3332 25.3563 37.264
16.2739 24.1242 37.1284
16.0737 23.0538 34.7169
17.1768 25.8075 38.7731
15.2558 21.1856 31.6184
15.6725 22.6442 33.6361
15.3703 23.2658 35.9626
17.7581 27.5004 41.346
15.6433 22.7063 34.9917
15.9797 24.0386 36.9382
16.8896 25.5147 38.8498
16.6609 25.1149 39.2005
16.7584 24.8556 37.4864
16.6886 26.0746 40.2798
15.2506 22.3043 34.6593
15.0418 22.9334 36.117
15.5294 22.7135 34.1513
15.8834 25.7941 40.1038
15.0436 24.0576 39.0545
14.9624 23.2526 37.7448
16.1484 25.0828 39.5946
15.5997 23.9886 38.6263
15.5306 23.4884 36.651
15.3023 23.907 37.2564
15.8098 25.5427 40.3104
15.4308 24.1286 38.9198
15.9174 24.9677 39.8199
15.5703 24.1783 38.0041
14.7544 23.4648 37.2216
14.2918 23.9202 39.682
13.688 21.6365 36.2903
15.2468 24.5558 38.9505
13.8281 22.7093 37.5937
14.4774 23.024 37.9218
14.8129 23.057 36.2578
14.0388 22.8304 37.3921
14.417 22.9382 37.1661
13.7924 22.5154 37.6768
13.9942 23.2419 38.9107
15.076 23.8324 37.7065
13.5252 23.8958 41.9473
15.3757 24.2794 41.2187
14.9858 23.7384 38.6445
13.7256 22.431 37.83
14.2056 22.4708 36.6793
13.7706 22.6297 37.2331
12.3978 20.97 36.4127
14.0667 24.0626 40.8422
14.4318 23.8153 39.6972
13.3764 22.9488 40.6302
13.8943 22.2038 36.8478
13.1086 22.9298 41.2054
14.2705 22.875 37.8622
13.0548 22.8386 40.7924
13.7303 21.9014 36.1783
13.4488 24.0784 42.8278
13.0578 21.9163 38.2953
13.7577 22.4752 37.2099
13.3251 23.0586 40.0619
13.3173 23.1273 40.8239
13.7547 23.6468 40.9121
12.8364 21.9694 38.7874
13.0834 23.1802 40.8826
12.7596 21.9168 38.4374
12.7469 22.5178 40.5105
13.681 24.4442 43.8111
13.5247 23.6596 41.6662
12.2944 21.4187 39.9488
12.2773 21.8527 44.6299
20.2417 34.3052 53.2121
12.4173 21.7057 40.021
12.8249 22.1619 39.1626
12.3111 21.768 40.1559
13.395 23.9307 41.4631
12.0764 21.5427 39.3842
12.8759 23.6537 42.5173
12.189 22.1321 42.193
13.1262 23.1927 40.5671
12.0561 23.2234 44.5962
12.4956 21.4784 39.564
12.9777 23.3029 42.8005
12.9977 23.4487 41.9885
12.5385 23.1939 42.8529
12.0133 21.548 41.3016
12.9662 22.3363 39.0751
10.7047 19.2256 36.9532
11.9978 21.7971 40.8961
12.8065 23.2571 41.5983
11.6694 22.1604 42.3177
12.0067 22.995 44.5563
12.0463 21.1966 40.6343
12.9841 23.6148 43.5905
11.7409 21.1427 39.2867
11.9158 22.4019 42.0108
11.2481 20.5792 39.2537
10.2963 19.1361 38.6429
12.2092 22.1056 39.1014
11.0157 21.1246 40.1153
10.6594 19.9232 39.2631
11.8497 22.9041 45.3595
11.5099 20.6086 39.7459
11.9905 21.8939 40.2583
11.6085 23.2228 45.3124
11.1258 20.331 40.7249
11.2761 21.2335 41.5805
11.1914 20.4151 39.6022
11.5816 22.1981 43.0453
11.6493 21.9461 43.2575
12.0713 22.765 44.0436
12.2851 23.3199 43.8617
10.7309 20.7068 39.8693
10.436 20.7632 42.8198
10.7429 19.8506 38.2394
10.0015 19.9489 41.0949
11.5737 22.2644 43.5164
11.0598 22.0207 45.2206
11.8623 22.3528 42.6428
10.8271 21.4401 43.3814
11.2936 21.7544 42.6677
10.9379 21.677 42.9328
10.2918 19.7414 39.4495
9.68723 19.3036 39.1551
10.3492 20.8573 42.8931
10.9729 21.4685 42.3231
10.1131 20.2429 41.8982
10.311 20.3618 40.4545
10.3182 21.315 44.0206
10.339 21.3307 46.1527
10.6686 20.0068 39.6704
10.3408 20.5146 41.3622
10.3603 22.064 46.4142
10.6111 22.0866 48.1429
11.5963 21.2799 42.4332
10.0679 19.2727 38.9402
9.8855 20.1998 40.966
10.043 21.0538 44.9678
10.5499 20.8362 43.9742
11.2227 22.9816 46.4086
10.1718 20.5202 42.8959
10.3908 21.5357 44.4346
9.60832 19.1161 41.9025
10.9911 22.6942 47.6678
10.5713 20.7225 42.5066
9.69976 19.7887 42.0137
10.1279 20.8577 43.5145
10.3762 21.5826 44.8747
9.87105 20.6787 45.224
9.63869 19.7489 41.7102
9.94544 20.6106 44.0582
9.70017 20.5502 44.213
9.92619 20.7592 44.3568
9.43084 19.3808 42.3601
10.0652 20.374 40.5799
9.10962 20.3535 44.7364
9.21661 19.3703 42.0003
9.44126 20.2106 44.9882
9.35886 18.2437 38.5658
9.24645 19.7895 40.9475
8.49735 18.8445 42.5693
9.34931 20.1104 45.0802
9.72021 20.2248 43.0212
9.05068 20.511 46.5476
9.37718 19.187 41.7806
9.4866 21.0603 47.279
9.1239 19.4318 51.3168
14.5378 29.9349 54.8816
9.52721 21.2816 47.3912
9.62314 20.8781 43.9799
8.21993 18.5058 42.2084
8.36541 17.7111 40.3077
8.78644 19.4101 43.2277
8.72613 18.1614 38.5861
7.97057 18.5674 42.9671
8.76151 18.7474 42.7001
9.29585 21.0523 46.9529
9.29955 20.8087 47.5968
8.95366 19.0138 43.4229
9.12974 20.3157 46.186
9.31226 19.0343 40.5193
8.55532 19.9955 44.2434
8.6512 19.5689 45.9031
9.20341 19.6255 41.9092
7.33715 17.1844 43.4796
8.79479 18.3059 41.2163
8.52155 19.3571 44.2953
8.64892 19.4347 45.5262
9.20317 20.3115 45.9186
8.41238 18.8479 44.6682
9.16139 19.6156 43.3207
8.81151 20.7995 48.0184
9.29186 21.2793 47.6095
8.02342 18.3404 42.2957
7.98762 19.0526 46.157
8.80964 19.9336 47.1555
9.16231 19.7294 43.0013
7.94791 18.5419 44.4884
8.02046 18.28 46.0988
8.72393 18.737 42.9445
8.66853 19.5617 44.1451
8.27228 19.8929 46.344
8.3747 18.9236 44.8037
7.92099 17.62 41.1959
8.12137 18.9021 44.4448
7.84923 17.3821 40.0237
8.06728 19.8825 48.6025
8.23964 18.6835 47.5787
8.92886 19.1916 43.7849
8.10546 18.866 45.3714
8.19148 18.5718 43.7042
8.42733 20.0318 45.6808
7.7609 18.2368 43.5228
7.08105 16.7374 41.9154
7.92114 19.3936 48.9613
8.29217 18.8034 45.465
8.09653 18.5952 44.04
7.67654 17.8511 43.9015
7.93429 18.9884 47.193
8.20317 17.5435 41.1209
7.88938 18.5838 44.1803
7.85283 18.6998 44.4063
7.71191 18.5396 45.4537
8.12794 19.2972 44.9724
7.31421 18.4096 46.3079
7.66219 18.8597 47.7508
8.09578 19.0016 46.7375
8.24158 19.5278 46.2699
7.66405 18.8599 48.4517
8.00708 18.5308 43.3183
7.12613 18.33 44.9971
7.20731 17.8419 45.4289
7.36151 17.9191 45.8435
7.62482 18.0282 43.1047
7.09009 18.052 46.8346
7.5171 17.1159 43.6662
7.66048 18.3067 42.5361
6.75338 17.3545 47.4727
8.1886 18.7247 42.6192
6.73226 17.6071 45.0924
6.93261 17.2487 46.3496
7.76705 18.4091 44.8815
7.06853 17.7697 45.3157
7.43806 18.3561 46.2065
7.25223 18.1145 46.534
7.09339 17.3129 44.7219
7.26684 17.7138 45.4537
7.34171 17.8405 45.677
7.0766 16.9096 42.3565
7.12857 18.2446 46.9323
7.38631 18.6124 46.6463
6.6749 16.2502 43.2128
7.01329 17.417 45.6237
7.29733 17.4493 43.8931
7.16107 18.203 46.8325
7.11164 17.1954 45.6138
7.31902 17.2065 42.195
6.81934 17.9019 45.9036
6.96634 17.191 43.7497
6.56914 16.7238 43.3702
6.86386 18.0962 49.0023
7.27858 17.8373 47.3941
7.03225 18.0457 53.396
9.2958 22.6118 49.7122
6.66551 17.3171 46.5884
6.92519 17.1325 43.3109
6.3574 16.7181 45.6826
7.08511 18.3912 47.3404
6.69769 16.8338 44.846
6.63696 16.9991 45.8657
7.03574 17.6614 45.6565
6.69442 17.5499 45.9955
6.69906 17.8035 50.3445
7.24971 17.2323 44.3962
6.82049 17.4868 46.3446
6.87193 17.3484 44.8771
6.69748 18.4907 52.1933
7.31857 17.036 42.6224
6.29214 16.2659 42.3287
6.34356 16.9895 44.3645
6.19222 15.6924 43.0074
6.43762 16.9133 44.4229
6.31457 16.5431 45.7152
6.57867 17.4105 46.8107
6.28715 16.0164 43.587
6.24138 16.124 43.3272
6.26538 16.0042 40.0453
5.78356 16.3986 46.4383
6.58785 17.8535 49.7714
6.61355 16.9482 45.6393
6.59787 17.21 45.3658
6.10472 16.1903 44.5721
6.14424 17.0304 48.0131
6.45785 16.9002 45.3573
6.3692 16.4596 44.8072
6.03279 16.5102 46.7804
6.45657 16.9417 46.0728
6.20702 16.2695 43.9875
6.21402 16.483 45.9784
6.32052 17.1057 44.7196
5.58131 14.7811 40.5244
5.54155 15.6773 45.7627
6.02615 15.8449 44.7148
5.96395 15.351 42.2345
6.102 17.1744 45.9908
5.71652 16.0051 46.5608
6.07177 15.7679 44.9399
6.15461 16.0714 45.2634
6.47899 18.178 48.9
5.67204 14.617 42.7463
5.90355 15.5882 42.405
5.69547 16.1482 47.8986
6.43161 16.359 44.5928
6.05023 16.9767 46.346
5.86035 16.6853 48.8292
6.29872 16.0742 41.6152
5.42675 15.8364 46.2479
5.54968 15.1594 45.3942
6.09056 16.1911 44.0656
5.52618 15.6377 46.1522
5.97095 15.6905 43.2379
5.95569 17.4241 49.8223
6.11597 16.7214 46.1747
6.08202 16.4189 43.893
5.51151 16.3751 47.387
5.85595 16.5268 47.2694
5.81625 15.9366 45.3544
5.44114 15.0425 44.9334
5.51978 14.7213 42.6992
5.75308 15.8343 44.2296
5.55679 15.562 45.2656
5.73218 16.7393 49.6443
5.75776 14.7029 41.1267
5.31511 15.3596 44.2906
5.23434 14.3469 41.0653
5.1268 16.1189 48.9417
5.62406 14.8872 43.9651
5.54568 15.6907 47.7395
5.92381 16.3917 46.7703
5.81242 16.3722 47.7508
5.60197 15.5493 45.8469
5.87818 16.7102 45.7427
5.34267 15.4833 47.3319
5.50147 15.9769 48.4299
5.76405 15.6517 47.0505
5.84164 15.5887 43.2131
5.23283 15.6424 44.6283
5.03844 14.4668 44.8105
5.33498 15.3843 49.4317
5.74833 15.1445 44.1907
5.53887 16.2744 45.9607
5.4553 16.5192 48.8256
5.35958 14.4709 43.5088
5.01568 14.3335 45.4787
5.37641 14.9251 44.9455
5.34454 14.7634 42.1543
5.19632 14.9147 45.8401
5.45811 14.8996 44.9784
5.63889 18.498 68.5784
8.63016 22.0477 53.0124
5.78579 16.6049 44.4899
5.18655 16.0337 47.6839
5.43037 15.3372 44.2071
4.79361 13.9633 44.9701
5.42685 15.8102 45.8577
5.06775 14.4951 44.3299
5.14203 15.2078 43.0349
4.95088 15.0455 45.3501
5.0659 15.2789 47.9428
5.26317 14.388 43.2596
4.82611 14.6357 46.612
5.31908 15.0423 44.6241
4.90379 14.682 45.4502
5.08916 14.9701 45.3596
4.97878 14.6446 45.7882
5.26366 15.2424 45.848
4.83478 14.3265 43.8167
4.98547 14.4328 44.253
5.03677 14.5605 43.7152
4.66952 14.1084 43.8109
4.89587 14.2009 45.1916
5.00033 14.8227 46.1705
5.09598 15.3025 46.5639
5.04708 15.0829 46.0918
5.02714 14.8025 48.1766
5.16173 14.973 44.75
4.81523 14.5689 45.8097
5.13782 14.8894 44.4032
4.82404 14.5983 44.5654
5.01625 15.023 44.4501
4.80957 15.1908 44.6207
4.63041 14.0339 45.4748
4.95068 15.2246 45.9178
4.62298 14.1236 44.912
4.71822 14.4932 45.587
4.89173 14.827 47.7286
4.84922 13.3247 41.0347
4.53269 14.7371 47.1437
4.95993 14.9591 46.0871
4.7881 14.269 45.8357
4.89753 14.7276 45.6797
4.70145 14.3617 46.6768
5.19611 15.842 48.2183
4.90393 15.0261 47.1923
4.80005 14.4482 44.9638
4.65497 14.0812 41.7875
4.27519 14.1019 48.9909
5.04696 13.8621 42.5874
4.56556 14.2387 45.8991
4.86584 14.6416 44.8611
4.52944 13.5316 44.4919
4.75704 13.9563 42.3573
4.47326 13.9101 42.887
4.3683 13.9951 47.0971
4.99451 14.9917 43.8225
4.22582 13.0129 45.3373
4.77318 14.5075 45.9792
4.66724 13.9324 45.7187
4.7427 14.8148 45.0399
4.5051 14.6258 45.6034
4.41952 13.6544 46.7413
4.77415 14.5945 47.585
4.77584 14.1955 44.4052
4.42437 14.5336 48.3939
4.67326 13.6296 41.355
4.28913 13.696 45.8946
4.63653 15.0191 50.96
4.91597 13.9914 42.4823
4.25285 13.6004 44.6834
4.50576 14.3508 46.5182
4.57348 13.4729 44.2656
4.50536 14.5395 44.624
4.37567 14.4445 48.0944
4.64388 14.5337 47.9953
4.59915 13.7966 43.5251
4.30835 13.6118 46.1004
4.56207 14.612 46.7957
4.5529 13.4815 44.3195
4.43809 13.9545 44.8125
4.4163 14.0282 45.833
4.39866 13.4513 42.225
4.03239 13.3476 46.1944
4.37946 13.3778 43.6057
4.30886 13.7862 45.4859
4.26812 12.6179 40.2838
4.00353 13.2505 42.7207
4.07416 13.6209 46.1767
4.34204 13.6071 43.5582
4.18962 13.7173 49.0467
4.84326 14.5084 45.9143
4.28476 14.0547 48.9529
4.58766 13.3127 41.6477
4.00992 13.4372 45.9402
4.24045 14.0732 46.3041
4.12801 15.5546 70.8506
7.07821 18.3198 43.914
3.9976 14.277 49.403
4.58534 14.7636 47.9573
4.34116 13.2848 44.0377
4.43141 14.4581 48.5255
4.40125 13.5496 44.8298
4.22461 13.5215 44.7726
4.04482 12.7935 45.8615
4.51747 14.13 45.8353
4.18915 13.2979 43.2724
4.05076 13.2203 44.4212
4.2703 13.9128 44.5868
3.97393 13.1198 46.0484
4.31568 12.4824 42.941
4.26407 14.3004 44.6727
4.05273 13.1225 45.514
4.14783 13.4796 44.9037
4.06664 13.2515 44.7639
4.1381 12.8825 43.5712
4.05813 13.528 46.2592
4.10608 12.33 40.4254
3.69118 12.3557 45.206
4.33541 14.1109 48.6867
4.37224 13.8656 46.7265
4.23687 13.3764 45.5902
4.22503 14.5031 47.7626
4.02093 11.8377 40.0448
3.8928 13.2349 46.5084
4.08109 13.4116 48.0701
4.34805 14.3831 46.4441
4.03302 13.2869 46.1499
4.02274 13.4795 45.9387
4.06767 13.3662 46.7318
4.03335 12.3651 43.453
4.11167 13.1617 41.4987
3.50793 12.1472 46.5543
4.2566 13.454 43.4804
3.87308 12.9713 44.26
3.80414 12.5871 46.7466
3.94718 11.9747 44.5207
4.22406 13.6889 42.4008
3.81342 13.5243 46.7353
3.80722 12.0007 43.5894
4.06339 12.6399 42.6237
3.78079 13.0969 43.917
4.03386 13.767 45.8357
3.75633 11.9256 38.5083
3.32249 11.7121 44.2586
3.84518 12.8436 43.2731
3.61613 12.0694 41.8727
3.80014 12.8837 44.5916
3.87614 13.1896 45.1081
3.76625 12.0478 44.001
3.73723 13.1627 45.7652
3.80915 11.9565 41.8117
3.44813 11.2303 40.2631
3.53184 11.6997 43.3026
3.78353 12.1422 42.5073
3.81058 13.0356 43.8595
3.77134 12.9821 48.1014
4.14387 13.4878 45.4468
3.81844 13.1189 45.5066
3.73725 12.8599 46.0955
3.95096 13.184 47.4642
4.01651 12.9445 45.7158
4.01459 13.113 42.7394
3.59137 13.3842 45.5023
3.64937 12.0804 44.2482
3.58373 11.894 45.2236
3.84418 12.8241 43.4339
3.57288 12.2584 45.4276
3.82425 12.8693 44.2219
3.67045 12.6085 43.782
3.66537 12.3614 43.3906
3.73885 12.8288 44.3578
3.69558 13.1745 42.5247
3.36701 11.6645 45.1055
3.70338 11.8977 45.3722
3.87628 13.4338 49.4334
4.02732 12.8263 42.7401
3.67732 12.9423 42.8395
3.36388 12.26 45.0529
3.73292 12.2528 42.5469
3.64241 13.5015 47.2997
3.65428 13.2028 50.3213
4.01202 12.9539 45.7774
3.8059 12.7575 45.1377
3.61255 12.3107 42.7616
3.42071 12.0212 45.1863
3.69641 12.7084 46.1916
3.67942 12.0362 42.6062
3.52759 12.0116 45.7394
3.70029 12.5422 44.2698
3.64312 12.8983 46.2497
3.78059 13.4207 48.8504
3.8088 15.3196 75.2729
6.40778 17.4805 46.6333
3.74582 13.0657 44.3369
3.58132 12.609 44.4537
3.70091 13.3356 46.1224
3.56395 12.3919 46.9185
3.80591 12.1965 44.4981
3.70142 12.8878 44.3863
3.41182 11.8656 44.9021
3.72422 12.759 44.1684
3.61464 13.3278 47.2093
3.67626 12.546 45.0945
3.47184 12.6118 44.4932
3.38721 11.3002 46.5888
3.85277 12.9188 44.9032
3.46712 11.8022 43.1213
3.4459 11.5696 42.9611
3.61385 12.8184 45.4684
3.50245 12.414 43.2922
3.21201 11.0798 44.4413
3.64096 12.0729 41.3512
3.27156 12.1147 44.1583
3.4681 12.1723 47.9364
3.73073 12.7234 44.8025
3.53418 12.134 45.0797
3.50366 12.3459 41.709
3.224 11.2174 43.6597
3.5624 12.4804 44.446
3.44547 11.6423 46.9397
3.85492 13.3779 44.8221
3.38401 12.1559 46.3948
3.539 12.478 43.5901
3.2304 11.2369 43.7021
3.45588 12.4812 45.1068
3.47177 11.6699 43.7316
3.41623 11.4515 42.6822
3.48333 13.0482 45.3515
3.39 11.8071 45.8846
3.54291 12.2317 42.7117
3.23476 11.7078 45.9117
3.56033 12.2442 46.1712
3.478 11.6231 44.6938
3.64163 13.4154 44.8438
3.43325 12.2684 44.3403
3.35267 11.5784 42.5782
3.07158 11.2029 43.8985
3.45028 12.3468 45.5851
3.42552 11.6903 44.5457
3.41842 11.7548 44.6422
3.42778 12.442 45.2793
3.40681 10.9268 43.564
3.46779 12.0116 42.4813
3.22497 11.896 44.9605
3.53668 12.0578 44.0187
3.39356 11.5411 43.0953
3.20676 10.9893 41.3287
3.18278 11.4509 43.098
3.32603 11.7756 41.0492
3.15411 11.8366 44.175
3.38269 12.1746 43.3957
3.2272 11.4694 43.3357
3.31215 11.7175 45.8122
3.37564 11.1471 40.8512
3.0781 11.6376 43.5194
3.2362 11.4325 45.4039
3.46537 12.0201 44.1301
3.30708 12.0057 45.2822
3.38136 11.3219 42.8959
3.28161 12.2398 43.8898
3.22185 11.148 43.2679
3.31479 11.4442 40.9895
3.05524 11.0088 43.3763
3.3488 12.2324 44.0781
3.23377 10.9922 41.0193
3.11259 11.7032 45.8986
3.32359 10.8873 40.8892
3.09704 11.7899 46.0894
3.27405 11.4692 42.3169
3.15265 10.6934 41.4913
3.09861 11.8942 44.7449
3.29193 11.4455 44.6437
3.38762 12.1041 42.549
3.06149 11.0901 43.2307
3.21265 10.863 40.5612
3.03682 11.2608 43.7798
3.19217 11.1062 41.8686
3.1739 11.0761 40.9164
3.09386 11.4287 43.3046
3.13699 10.5378 40.9666
3.10208 11.4112 42.4925
3.11673 11.4203 41.5653
2.99611 9.79098 40.1949
3.11892 11.7324 43.7465
3.14259 11.8155 45.4355
3.22344 10.5898 40.1757
3.05615 11.7901 42.2488
3.05066 13.9636 73.5216
5.27843 16.0575 45.0063
3.12724 11.0147 44.4618
3.25397 12.1395 42.9019
3.04088 10.8355 41.7411
3.05815 10.9138 39.0199
2.70555 10.3198 39.694
2.8285 9.96046 41.4796
3.09381 11.635 46.0147
3.31573 11.8493 44.584
3.2414 11.8177 46.6131
3.43805 12.1473 44.1886
3.22682 11.1615 41.0085
2.95362 11.2051 43.6402
3.15916 11.6799 42.3617
3.0396 11.4695 42.6814
2.88974 10.1901 44.1892
3.22865 11.1608 41.7737
3.03379 10.57 40.9242
2.93491 11.3454 46.2038
3.36367 11.8007 40.9194
2.85545 10.7101 43.0508
3.11291 10.9847 40.789
2.89175 10.945 42.799
3.04798 10.9544 40.4988
2.90311 9.7428 38.8854
2.81141 10.6464 44.7961
3.30155 11.8307 42.9547
3.02941 11.5279 43.8526
3.00769 11.0182 42.771
3.08548 11.3198 43.9544
3.07866 11.4296 45.2123
3.21734 10.9184 40.5883
2.93781 11.3144 44.9743
3.29457 12.6096 46.8864
3.26408 11.8961 46.0411
3.28438 10.6578 40.7455
2.82439 10.9941 42.9839
3.11952 10.9511 43.6936
3.118 11.8791 43.1478
2.89785 10.9622 46.6641
3.30935 10.6919 44.067
3.18325 11.6967 40.783
2.7479 10.3717 41.7428
2.9885 11.4321 42.521
2.93992 11.2092 44.4426
3.0858 11.6757 43.3198
3.03972 11.0461 41.3949
2.86268 10.9797 45.4676
3.2142 11.1501 42.6533
2.98974 10.6748 43.3587
2.99251 11.3232 42.28
2.9575 11.5824 44.2367
2.9312 10.4598 42.68
3.04319 11.4441 43.874
3.07406 11.3967 45.1493
3.14687 11.4345 45.1594
3.11549 10.95 44.2503
3.10038 11.6548 38.2685
2.68736 10.4984 43.6068
3.01441 10.838 44.4986
3.09168 11.9987 46.208
3.22894 11.3573 39.3416
2.82739 11.3483 43.8356
2.99599 11.0234 45.6684
3.22543 10.6759 40.7523
2.83653 10.9963 41.9105
2.8375 10.874 40.4632
2.82444 10.4661 41.9527
2.92633 10.6693 42.2412
2.89341 10.102 43.0978
3.03344 11.3189 44.4521
2.97729 10.2105 41.1412
2.95974 11.0338 41.8178
2.85281 11.5821 43.8527
2.99744 10.8007 45.0199
3.05584 11.2696 43.4735
3.00105 11.9827 45.4198
3.05551 10.8381 41.5844
2.90735 10.5294 42.0632
2.87101 11.1631 40.6182
2.76871 10.2258 40.0645
2.7674 10.7652 41.5766
2.89667 10.6577 42.7311
3.02903 11.2333 44.8068
3.06682 10.6678 42.7997
2.93577 10.8859 42.5221
2.93048 10.5949 41.6092
2.84237 10.4652 43.2027
2.9647 11.1139 41.2189
2.81169 10.5202 42.4632
2.86721 11.122 41.8687
2.84975 10.9164 45.5484
3.04771 11.4142 42.1357
2.83931 11.4183 43.3267
2.90947 11.1129 40.7698
2.79674 13.8941 80.0528
5.23289 15.1838 44.3164
2.99161 10.7705 40.6478
2.81462 11.4481 44.8296
3.05391 11.1269 42.651
2.91396 10.5082 41.2274
2.83489 11.0565 41.3506
2.81801 10.2716 39.6766
2.74309 10.4795 42.9459
2.97759 10.6264 42.2466
2.9033 10.2447 40.0668
2.75545 10.7948 41.353
2.72381 10.3667 43.5321
2.96604 11.0852 43.5398
3.06101 11.0541 41.4832
2.76603 10.0947 42.647
2.9684 9.96392 39.4407
2.66256 10.307 43.4279
2.9958 11.2972 42.6044
2.86282 10.9993 41.2639
2.78081 9.85751 39.7727
2.74458 10.8563 44.496
3.01268 10.5251 45.0972
3.03874 11.0136 41.2244
2.75488 9.94532 38.7828
2.69274 11.0043 44.5122
2.98672 10.5427 41.7422
2.801 11.0554 41.3501
2.76009 10.4841 42.9661
2.88404 10.3437 43.1748
2.91884 10.4769 40.9714
2.82415 10.5783 44.6821
2.95323 10.7644 39.8487
2.70576 10.9282 44.5945
3.02207 11.0512 39.7137
2.73979 10.9223 43.4925
2.9417 10.1845 42.3892
2.84062 11.1659 44.9752
3.05896 10.6628 41.0466
2.66898 9.99484 41.3661
2.78988 10.7334 42.9301
2.85605 10.874 42.6482
2.89246 10.5317 42.3582
2.88872 10.8357 41.7405
2.74057 9.98354 41.9259
2.78678 10.0405 40.7543
2.73212 10.5547 41.9312
2.77461 10.9826 41.2211
2.67352 11.0503 40.6787
2.79247 10.4487 41.1027
2.69221 10.3027 39.7606
2.66268 9.56442 41.0884
2.71142 10.4143 41.3895
2.80917 10.8122 43.5639
2.84833 10.602 43.1407
2.95394 11.4956 44.4919
2.91655 11.2363 45.309
3.02945 10.9645 43.314
2.93799 11.0264 42.2497
2.77867 10.6956 43.5435
2.94937 11.562 41.6333
2.79508 10.663 42.6475
2.88408 9.49681 38.6156
2.68328 9.98008 40.2736
2.69606 10.7935 41.0313
2.69276 10.6142 45.2412
2.96916 10.9355 42.1906
2.81846 11.0708 45.0225
2.95858 11.2834 45.6964
2.99257 11.241 44.1674
2.95979 10.5687 42.93
2.78808 11.2221 44.275
2.89577 10.8788 42.8623
2.90454 10.0649 39.3203
2.63702 10.8942 41.5271
2.73392 10.5693 42.0926
2.7786 10.0097 42.419
2.91552 11.1155 43.9351
2.93895 10.3392 41.4543
2.8551 10.945 42.7588
2.84607 10.8486 43.251
2.95567 11.1323 44.0108
2.95774 11.0894 42.7721
2.80076 9.9764 41.2835
2.80804 10.4055 41.9324
2.77531 10.4485 41.924
2.888 11.3808 43.9298
2.88008 11.3669 46.6181
3.13254 10.6627 41.1977
2.75763 10.6128 41.6537
2.78175 11.8444 46.7072
3.14082 11.49 45.6828
3.06647 11.0637 44.4748
2.9485 11.3842 43.9829
2.93076 10.6001 45.1809
3.08493 11.3401 45.4419
2.98559 13.7702 63.7308
4.05213 0 0