# pn-170911/RbIIA-36-RbII-1280-1959.psd
# Power spectrum* (dif=0,1,2) (really just |FT|^2)
# NOTE: only the first half! (symmetric)
# weeks: 1280-1959
# 281 clock-days, 54 excluded
# PSD: 1441
76537.9 1.4643 0.020471
2.44122e+06 62.0612 0.0374908
3.63735e+06 60.8332 0.0427242
1.09043e+06 24.7167 0.0347313
699494 23.5444 0.0395065
425074 17.5875 0.0364662
310192 16.7863 0.0418881
203895 15.7486 0.0431852
161008 13.993 0.042636
133740 13.3555 0.044145
96397.7 14.1419 0.0478971
101218 13.7209 0.0471399
63387.6 12.6979 0.0534405
66203.3 11.1989 0.0497482
54260.5 11.6353 0.0555304
51250.9 13.8146 0.0484556
37806.2 10.8105 0.0527282
35893.1 11.5631 0.056715
36356.2 10.9983 0.0616736
31089.2 11.8856 0.0584848
19600.8 11.509 0.0650369
32850.6 11.7979 0.0644518
24231.8 11.123 0.0653364
19497.5 10.9005 0.0645172
16781.6 10.6511 0.0666397
16455.8 10.008 0.0653794
12609.5 11.8056 0.0811062
14822.7 11.9563 0.0775961
13393 11.3734 0.0836374
11400 11.9975 0.0965943
9517.08 10.6094 0.0850606
11434 11.4736 0.0945458
10182 12.2662 0.0978089
8600.16 11.84 0.105178
9708.08 10.6621 0.0984202
8845.15 11.3908 0.102817
7544.47 10.0524 0.103222
7457.47 11.0358 0.105792
7173.06 10.7146 0.110379
6923.59 10.4991 0.126737
6085.08 10.344 0.122342
5161.46 10.6416 0.112531
5451.77 12.221 0.140911
5660.4 11.4773 0.160819
4639.5 11.7783 0.153072
4622.32 10.5955 0.142744
5011.48 10.8641 0.133969
5307.25 11.8757 0.175762
3929.58 10.7393 0.168273
4220.16 9.97797 0.153813
4413.23 9.73937 0.172277
4263.03 10.57 0.169711
3365.44 11.6618 0.191991
3697.11 10.5619 0.198011
3123.64 10.7553 0.18727
3825.19 9.94286 0.175299
3044.1 9.52643 0.189776
3660.74 10.568 0.220843
3336.62 10.762 0.217251
3238.2 10.3296 0.23552
2920.45 10.5951 0.218402
3274.23 10.9555 0.240323
2922.35 8.93403 0.210041
3270.67 11.4925 0.27335
2999.72 11.0118 0.285285
2857.31 10.6017 0.276474
2454.9 11.5295 0.326438
3020.59 11.3847 0.303592
2445.04 10.7444 0.29587
2288.47 10.6719 0.299831
2244.62 10.813 0.314748
2170.57 10.8121 0.347089
2100.98 10.0473 0.319689
1830.78 10.346 0.329564
1973.69 11.1977 0.337745
2080.05 10.9739 0.36139
2115.34 11.1451 0.356199
1904.99 10.3272 0.366015
1777.95 9.47903 0.317823
1876.65 10.2979 0.392353
1643.08 10.0533 0.379602
1618.28 11.1903 0.391918
1646.47 11.4625 0.439754
1370.51 11.2999 0.481712
1455.67 11.3712 0.437812
1590 10.838 0.387554
1135.48 10.4091 0.430092
1304.27 9.75599 0.44521
1273.43 8.841 0.375418
1216.26 10.3928 0.448502
1037.67 10.3984 0.449522
1442.26 10.3853 0.481829
1290.71 12.2406 0.553815
1199.48 10.309 0.47652
1234.12 10.0713 0.518358
1287.14 11.9569 0.580321
1094.35 10.4102 0.478895
1247.17 11.2204 0.548573
1101.71 11.3174 0.572471
949.063 10.4671 0.563643
974.004 10.362 0.525186
1287.23 11.1601 0.617598
983.851 9.54393 0.513421
1014.47 10.2116 0.54089
1090.81 10.4965 0.579218
1054.93 10.5114 0.590407
800.247 10.3699 0.604748
1072.49 10.0598 0.575958
899.47 10.9021 0.64697
919.882 9.63457 0.589086
822.394 12.4093 0.783507
1035.93 11.613 0.702155
960.508 11.3625 0.709493
728.102 10.3584 0.703044
797.504 10.4331 0.676748
926.338 10.2758 0.698304
621.32 10.9061 0.71875
682.797 11.2571 0.769323
732.943 10.6796 0.734675
690.108 10.0478 0.713501
839.953 11.7732 0.829839
618.164 10.9935 0.777349
696.987 10.2178 0.789618
855.188 10.7141 0.800095
744.87 10.6842 0.79643
687.85 9.78346 0.789422
654.138 10.199 0.803912
529.837 9.95795 0.78322
662.267 11.8701 0.924604
577.716 10.3151 0.857624
614.714 10.6287 0.893613
637.347 10.8634 0.931138
537.949 10.6596 0.999656
610.475 8.93209 0.770696
571.941 10.2345 0.913123
644.998 10.9692 0.967401
605.972 10.5155 0.984781
522.467 10.6791 0.97786
504.681 10.2595 0.931256
584.077 11.248 1.09937
558.875 11.1467 1.13142
600.784 9.90227 0.961323
471.818 10.7458 1.09455
560.408 10.0537 1.0159
540.86 10.938 1.15957
541.622 11.0322 1.13684
434.671 10.5338 1.13953
549.103 10.9325 1.20823
444.889 9.69764 1.03702
492.219 11.1461 1.24685
432.624 10.1808 1.08417
469.887 10.6323 1.22841
496.921 11.1177 1.20009
551.542 11.9371 1.31341
459.455 10.9779 1.27599
478.851 10.8812 1.26009
409.103 10.2362 1.187
479.321 11.6175 1.42483
397.521 9.8871 1.17133
383.364 10.6748 1.42281
416.411 10.8925 1.33568
345.666 10.5002 1.31555
430.002 10.3809 1.28853
376.249 11.5376 1.50688
461.711 10.1458 1.30848
485.034 11.934 1.57025
363.481 11.9777 1.54631
318.926 9.4697 1.28814
439.598 9.07838 1.22362
374.812 12.2488 1.59545
378.567 11.2592 1.54745
277.752 10.1778 1.44379
273.607 11.4608 1.60207
418.247 12.1255 1.74207
323.12 10.6278 1.49573
291.761 10.45 1.50716
366.994 11.5897 1.73743
370.172 11.5095 1.75352
306.278 12.6505 1.94301
361.883 10.6714 1.66004
363.253 11.5925 1.79698
370.206 11.1236 1.79399
297.238 11.3715 1.80455
373.558 10.157 1.63102
345.013 11.081 1.78725
351.151 10.8775 1.7973
320.683 10.3559 1.68045
387.917 11.7445 1.96034
299.906 11.3984 1.91673
265.745 10.8107 1.85219
305.046 11.4695 1.99595
335.457 10.3548 1.74997
271.798 10.7192 1.85831
338.071 12.2717 2.13227
293.182 10.1959 1.86562
289.276 11.4683 2.04245
299.267 10.0195 1.86472
341.697 9.96931 1.83793
247.724 11.059 2.03442
248.552 11.1523 2.05388
267.828 10.7957 2.01814
266.524 11.1336 2.13646
235.703 11.0889 2.18848
313.971 12.593 2.47972
260.152 10.5303 2.0505
228.972 10.126 2.0473
286.196 10.546 2.11114
277.522 11.1241 2.17502
259.673 10.9206 2.30022
290.309 11.5496 2.36022
250.376 10.226 2.09592
279.974 11.314 2.31083
281.337 10.1589 2.16729
262.432 11.3384 2.42859
231.265 10.4383 2.24981
229.363 10.9915 2.41277
254.471 10.4811 2.27111
248.301 10.7699 2.39329
231.131 11.3615 2.55284
233.803 10.1804 2.3221
222.877 10.0878 2.34634
274.119 11.3792 2.66667
240.63 10.9199 2.51754
258.771 11.2231 2.67931
249.348 10.799 2.56579
246.841 11.0693 2.72924
238.722 10.2291 2.47022
235.223 11.3077 2.70276
229.921 11.1868 2.73446
236.607 11.9532 2.9685
226.234 10.7396 2.61896
219.96 11.7021 3.00225
203.539 11.4152 2.97761
228.329 10.4455 2.63132
174.615 9.27476 2.50035
206.932 10.8185 2.86058
181.107 10.2502 2.71438
225.985 12.1209 3.13114
221.485 10.8219 2.91493
213.796 11.4933 3.12539
174.645 9.3351 2.54587
214.993 10.7614 2.96232
178.423 10.0046 2.72552
180.914 10.9239 3.01441
176.256 11.1217 3.02736
182.965 11.5338 3.2476
191.498 11.968 3.46889
165.169 10.7685 2.99799
178.767 11.9595 3.41047
199.781 11.726 3.45766
182.041 11.2453 3.28572
197.208 10.5067 3.20002
165.888 11.3957 3.44082
172.952 12.3558 3.8202
187.676 10.9508 3.31752
154.988 10.9797 3.39488
174.172 10.2652 3.16981
177.78 10.901 3.5356
155.921 11.1988 3.45493
153.985 10.832 3.44685
168.174 10.8564 3.38739
162.231 10.7222 3.46054
138.946 11.1671 3.54175
157.081 12.3568 3.86951
144.324 10.8312 3.54656
156.44 12.1989 4.03522
190.246 10.5154 3.52054
195.83 10.0692 3.25566
117.807 10.8264 3.74551
184.68 10.9171 3.75689
184.455 11.9671 4.06514
156.151 11.5207 3.89633
139.372 10.1522 3.4385
143.157 9.21127 3.31037
157.795 10.6929 3.75464
163.742 10.542 3.76037
131.325 10.8686 3.79439
163.726 10.961 3.88078
138.833 11.1893 3.96512
147.242 11.2352 4.16599
134.477 9.82489 3.53664
144.812 11.4413 4.25603
139.832 10.6016 3.88263
123.843 10.9366 4.22152
116.175 10.4737 4.02679
97.4922 11.374 4.25345
86.4611 10.4782 3.97807
157.055 10.403 4.03337
100.14 10.8283 4.20175
89.3888 11.0762 4.26438
111.378 12.025 4.62335
105.097 9.86398 3.92796
114.732 11.7591 4.615
127.617 9.70813 3.77047
122.272 10.7545 4.44347
121.612 10.8748 4.22406
136.049 11.7955 4.94203
122.256 10.5902 4.47103
117.784 11.6356 4.70459
145.143 11.1858 4.49771
115.636 11.5381 4.80297
130.772 11.3265 4.65262
115.546 11.5154 4.95176
131.754 11.7519 4.85697
116.803 11.5336 5.00636
122.481 10.0338 4.16298
122.119 10.2381 4.39143
111.271 10.2698 4.51357
106.276 12.1165 5.0046
154.381 11.065 4.92344
130.12 10.4462 4.72749
107.589 9.49706 4.35339
98.4418 10.8031 4.76897
111.613 10.7259 4.9321
97.4333 11.5682 5.32823
112.022 11.434 5.00873
108.082 10.9135 5.16913
94.9445 10.5503 4.90241
87.237 9.55227 4.6219
116.485 11.037 5.23938
104.655 10.1717 4.83423
106.456 11.0148 5.23719
120.533 11.7885 5.46827
111.652 10.2723 5.26826
108.493 11.6283 5.41456
98.2683 9.83398 4.9189
107.677 11.6839 5.59309
101.75 11.6041 5.83328
95.2111 10.3305 5.23325
86.5204 11.0943 5.48459
93.4854 10.5603 5.23335
89.4582 12.1398 6.02813
91.4369 11.2964 5.47559
86.9437 10.6294 5.51726
87.2062 11.6355 5.88835
108.538 11.2268 5.75072
78.7409 10.7149 5.7784
87.9591 11.8859 5.98344
110.186 10.6773 5.62809
111.668 12.1788 6.24017
78.4608 10.9776 6.07223
88.3959 11.5816 6.11701
90.96 13.9073 7.31511
99.0846 12.1483 6.52553
86.9067 11.3151 5.98452
107.985 10.971 6.01232
105.436 11.1238 5.98093
98.9968 9.89266 5.46994
97.0597 11.2371 6.10198
102.209 10.2969 5.73615
94.9306 10.8366 6.48265
103.986 11.3009 6.39169
95.821 10.9569 6.08595
107.022 11.8355 6.70069
93.9497 10.4652 5.94967
119.668 12.5485 7.44024
98.4166 11.7673 6.70356
98.0496 11.5191 6.66615
91.0707 10.5782 6.18042
94.0736 9.92498 5.98012
94.8823 11.9688 6.85023
84.0915 11.7393 6.86541
92.7128 10.0762 5.84324
100.431 11.5272 6.95457
89.3488 11.2565 6.62156
78.8336 11.0769 6.72388
90.4504 11.3121 6.78383
88.0078 11.658 7.12357
87.977 11.392 6.94253
80.4071 11.1995 6.89294
78.5218 9.41831 5.86532
75.4418 11.4514 7.1442
87.0096 10.8198 6.65105
88.0818 10.6496 6.63644
70.3611 10.6933 7.02485
89.602 12.022 7.25122
82.2479 11.6637 7.47244
79.0853 11.2776 7.27252
70.8904 11.7659 7.61903
83.5357 11.486 7.38052
80.0757 12.1221 7.42079
77.3924 11.3402 7.3848
84.4464 11.7355 7.71833
75.6635 11.6257 7.45437
70.218 10.3699 7.15255
84.3721 11.3202 7.82563
76.238 11.2446 7.12568
65.9818 9.59624 6.86966
82.112 11.3914 7.56677
95.0853 12.0034 8.08585
73.0649 11.6761 8.21586
82.7527 12.0785 8.58206
73.6135 10.4612 6.87735
82.0151 11.4996 7.83538
63.0745 11.2231 8.24421
74.5575 11.2122 7.84346
68.6898 10.0058 7.26763
82.0525 11.6623 8.44448
69.1933 11.3412 8.1153
86.9726 10.8457 7.59725
85.875 10.6844 7.93653
68.5471 11.62 8.88038
67.8158 11.0658 8.01838
83.5886 11.989 8.41713
63.868 11.8347 8.47239
63.4308 11.1147 8.43172
70.8131 11.6936 8.5055
70.3385 11.6939 8.60839
65.4582 9.81486 7.58911
66.794 9.79286 7.62198
74.8333 11.9223 8.81175
83.0421 11.7991 9.18993
65.5956 11.4407 8.64055
72.7328 10.352 7.98648
67.8527 10.8975 8.28939
54.8936 10.6422 8.32812
71.8242 10.5688 8.4621
64.4633 11.4527 8.66568
65.5937 10.8517 8.63691
63.4147 10.6081 7.79885
57.4915 11.9723 9.15804
61.6225 10.9665 8.41117
56.6358 10.7154 8.95877
59.761 12.0653 9.56803
65.6503 11.6 9.30989
54.4803 9.88591 8.30222
58.9737 12.4525 9.75903
62.2844 10.4129 8.55682
64.7961 9.72079 7.92684
65.3187 10.4288 8.55233
51.6679 10.7481 8.62034
68.1006 10.218 8.57244
66.8028 11.1051 9.15233
64.0848 12.1969 9.62582
58.0066 10.6189 8.59112
67.5994 11.8901 10.3374
56.6798 10.9751 9.34498
63.1074 11.2612 9.35323
64.7673 10.3725 8.88202
67.0769 13.5626 11.8755
66.4319 10.6789 8.97354
76.3105 9.91143 9.10449
68.3888 13.3304 10.6699
70.7501 11.2023 9.65781
55.6205 10.4696 8.88809
70.7852 11.288 9.85748
57.4684 11.4742 9.91758
59.0976 10.5783 9.67403
57.2226 10.8627 9.99102
53.4176 11.6385 10.3934
57.7281 12.2234 10.4103
50.7936 10.6885 9.82767
73.1658 12.825 11.078
66.242 10.9501 10.1761
48.381 11.7427 10.5036
52.1824 12.022 10.9718
74.7257 12.5434 11.9111
55.1018 11.7318 10.2987
63.3011 12.9734 11.5959
49.0597 12.1844 11.0359
45.8394 11.7789 11.344
66.2654 10.8209 9.75136
53.6315 10.7691 10.2333
46.28 9.50181 9.03405
51.0552 10.685 10.1641
56.8296 10.0081 9.28712
48.8524 10.49 9.73279
52.1272 11.1436 10.3467
54.1848 10.7869 10.2139
63.5748 11.3494 10.8247
45.0259 10.7931 10.7131
57.7043 12.4321 12.0198
52.9723 11.5868 10.8641
60.6883 12.5482 11.7868
54.1307 10.352 10.4337
58.4246 12.69 12.0203
47.8082 11.0699 11.1441
46.2611 12.6566 12.4752
53.1078 10.8969 10.9183
56.3181 9.62495 9.27052
41.2462 11.369 11.3636
55.6103 12.023 12.2797
55.7435 10.8325 11.2109
49.1478 10.5117 11.0993
56.9918 11.0787 11.1767
66.2764 11.3814 11.4673
47.9155 11.3174 11.2191
51.2879 12.6246 13.7718
50.5079 12.8823 12.4288
48.595 11.0192 12.0247
45.0159 11.247 11.4188
51.3347 10.3945 10.9646
49.403 10.5041 11.4338
47.6512 12.1935 12.2197
56.8811 11.2693 11.878
55.1546 11.983 12.7896
48.7981 10.3882 11.4731
57.5119 13.0072 12.9781
50.285 10.8318 12.4093
57.1497 11.4395 11.6043
52.8897 11.6074 13.0381
51.9277 13.1075 13.4334
46.6779 12.2881 13.5206
48.3824 12.5499 13.9114
49.9986 11.3627 13.0541
46.7425 11.1572 12.3045
45.1897 10.3153 11.8013
46.289 11.6378 12.5675
46.6479 10.7773 12.3629
52.3812 11.5253 12.4396
44.4713 10.7171 12.2412
52.379 11.0547 12.1295
50.7752 11.9997 13.4485
52.788 12.1418 13.139
53.6338 11.7601 14.1314
47.3783 11.9443 14.0321
46.1303 11.9371 13.8432
48.8806 11.2063 12.5151
44.6992 12.4955 14.1692
46.5993 11.6013 13.395
43.2892 11.2017 12.7865
55.7383 11.3156 12.7661
39.911 10.7565 12.6106
47.0658 11.3126 13.2297
41.3187 11.9128 13.8765
48.4672 11.1607 13.5508
43.281 11.029 13.2401
51.7254 12.879 14.5412
45.441 11.6416 13.8039
48.5145 11.7485 14.4684
43.5327 11.256 13.3465
47.031 13.2914 15.5988
43.5182 13.0385 15.3165
45.3386 11.0691 14.0188
42.0076 10.2115 13.0933
39.6214 11.3555 13.7709
42.7396 12.0715 14.6396
50.901 11.3267 14.7493
44.237 11.4868 14.4583
50.8502 10.1153 12.1475
44.0886 11.0338 13.5002
41.7973 10.3044 12.3336
43.7294 12.4557 15.5561
40.1387 11.5052 14.1455
38.9868 10.2647 13.477
45.7692 10.8834 13.1183
45.389 11.8629 14.965
40.7216 12.3763 16.0039
46.9962 12.7433 16.0666
41.0813 11.3099 14.1421
36.6493 11.4772 14.9727
44.3672 10.8041 14.4564
38.455 12.5945 16.1639
34.6598 12.0165 15.7253
47.6378 12.7338 15.516
46.8055 10.9535 14.8686
33.6728 11.7342 15.0641
48.9471 11.9055 15.9774
47.5283 13.6042 17.104
41.5563 11.832 15.5168
37.6583 12.3544 16.8151
41.556 10.6777 13.5167
41.3174 12.3954 16.0953
45.1495 13.0228 17.9879
39.7848 11.369 15.0409
44.5272 13.4958 18.7293
41.8698 12.7868 17.5113
46.0582 12.7189 17.1635
35.5891 10.8453 14.1845
43.2153 12.2148 16.5158
43.0843 14.3632 20.4049
39.0376 12.3205 16.9329
37.5178 13.4512 18.846
30.412 12.8871 17.8894
30.6433 12.6483 17.9282
55.6781 12.1422 15.3447
30.9429 11.8334 16.0983
31.966 13.0519 18.3848
41.2568 12.9855 18.2373
36.931 11.8128 16.6772
38.3931 13.085 19.0165
39.4054 11.6836 15.1431
35.9701 11.2853 16.3006
35.0577 11.2767 15.9157
37.686 10.8777 15.8086
31.0609 12.0604 16.8077
37.1381 11.7858 16.3603
35.1236 12.2842 17.8953
30.3841 10.8304 15.358
34.3819 12.9726 18.6924
34.8329 11.1587 17.0883
35.4746 12.6796 17.4321
34.0414 11.3562 16.3491
37.4059 11.7622 17.4791
32.9595 12.2612 18.3025
32.4389 12.7192 18.524
34.0363 13.3093 20.1678
40.6845 11.8853 17.6726
36.142 11.1967 16.6474
36.3245 11.8085 18.0314
32.6177 12.4816 19.0249
35.1722 12.6615 18.2178
31.3654 11.8772 18.0091
34.9199 12.3645 18.3015
36.5507 12.528 18.5281
34.0345 11.2613 16.3256
23.9902 11.4061 17.4064
40.055 11.0805 16.9405
32.4531 12.4621 17.8937
34.8253 11.3818 17.161
36.4767 13.0934 21.0665
40.3717 12.4675 18.8248
33.5525 11.6318 17.8399
31.5896 10.2085 15.9079
32.5386 12.6945 19.5619
32.0024 12.6279 19.016
31.0797 12.8598 19.564
31.6719 13.5093 21.7718
35.592 12.6898 18.722
29.6991 12.159 19.3365
30.8501 12.6367 19.8759
33.9225 11.2122 17.4744
30.2582 12.5108 19.5476
32.4849 11.5877 18.2615
27.1976 12.0679 19.5215
30.7297 10.9416 17.1241
32.794 11.5916 19.6426
40.0174 11.4101 17.2576
29.5981 11.8217 18.4253
31.3488 11.8419 18.7984
31.7143 12.6237 19.2028
32.9727 11.9511 19.2011
24.0728 10.0086 16.4923
34.6741 11.8121 19.5807
33.925 12.6773 21.0883
32.7342 12.485 20.6728
32.9725 12.3392 20.146
37.2662 12.2494 19.9426
34.8809 12.6048 21.1108
35.7036 12.8567 21.4149
30.0769 10.4915 17.6022
33.1323 12.6802 19.7452
29.9393 11.7661 19.3943
33.6038 11.0883 19.3231
31.2358 12.6231 20.4077
33.8349 11.2248 19.8443
29.6956 11.5309 17.8135
33.2942 10.8992 19.3771
32.7896 12.0263 22.0214
26.7718 11.6854 19.6861
34.5526 11.0349 18.8645
34.8165 12.3098 20.4519
29.5664 11.0579 19.8464
28.7784 12.0177 21.1718
30.2305 11.2072 18.9638
31.5885 11.8072 20.5177
34.0748 11.8503 20.4568
29.1051 11.438 19.0777
29.9724 10.8806 17.989
32.0569 13.2084 24.2865
32.0859 12.6734 21.2116
32.9174 11.7946 20.1147
27.7818 12.271 22.0288
34.564 12.6716 22.5806
29.5589 12.166 20.2817
27.5508 10.8022 18.7065
30.3006 13.6274 23.5839
32.3368 12.0396 21.6464
28.3004 11.4342 18.7893
26.1353 12.0244 22.0784
32.0377 11.7831 22.2036
30.6329 12.9035 21.8503
27.3253 11.6018 20.8112
28.4761 12.4995 21.622
30.1121 12.7895 22.8901
26.7088 11.3148 21.2218
30.5163 11.1368 20.426
33.0467 11.0158 19.3871
28.0484 11.7529 20.5393
28.2067 10.5931 20.0289
29.514 12.5747 21.8718
27.4338 11.5723 21.3342
25.4194 11.5076 20.629
26.3813 11.4144 21.0869
27.3874 11.6517 21.493
31.9358 14.0567 25.9006
26.4888 12.8112 23.0593
37.2774 13.2523 24.8791
34.3693 13.5143 27.4363
31.7619 12.5464 22.3386
32.2425 11.9477 22.291
29.0887 11.4795 22.4348
24.466 13.4141 24.6335
30.4257 13.2246 24.348
25.7291 12.8168 23.7473
27.2363 13.2527 24.1335
26.5021 11.3295 22.549
26.5985 12.0465 21.6526
28.9957 11.4694 20.9247
31.4518 12.067 23.0786
23.0942 12.2919 24.1059
32.0058 12.058 23.3935
27.9593 13.0914 24.6132
28.7429 11.8455 22.3354
27.6418 13.0638 25.6976
29.6311 12.467 24.8057
31.5622 12.2487 23.8855
27.2528 14.3053 26.7937
25.7377 12.2259 23.0154
26.7177 11.1236 21.4855
23.7127 10.7562 20.7153
26.9629 11.0058 21.3805
26.3185 11.5416 23.3768
20.3382 11.094 22.4659
27.9902 12.4848 24.3147
25.3996 13.4224 26.2574
30.6701 12.5368 25.2919
29.902 12.9597 25.8829
21.1036 13.3804 26.8014
33.6276 12.1022 24.1177
27.5003 11.9482 24.5743
25.9789 12.4167 24.8641
29.1855 13.0433 26.2263
24.5101 13.9986 27.5067
25.9547 13.2064 26.9278
27.8117 12.7288 25.5815
26.3772 13.3037 27.1242
27.337 11.9619 23.8789
28.4358 13.5994 25.6243
30.8187 12.3039 27.1404
28.0385 12.703 25.9349
29.2682 14.1846 26.4761
24.4389 12.4705 26.6477
33.2205 12.3342 25.5611
26.0848 13.6014 28.4345
27.3786 14.0524 28.9872
25.535 11.8734 24.5842
26.0567 12.0235 24.2455
27.331 11.6824 25.8452
24.4593 13.7184 28.3227
32.3928 13.0032 26.6669
29.2888 13.041 25.859
22.2003 12.2993 26.1014
26.2459 14.4694 28.6655
32.6267 12.4536 28.568
23.16 10.7251 23.2512
25.8845 15.0357 30.1816
23.781 12.6744 25.6615
22.2761 11.6869 25.0848
23.5904 12.1235 25.7769
24.399 11.2098 23.561
22.5769 12.5172 26.925
21.0729 12.1827 26.7891
24.7339 11.5972 23.9913
24.6728 12.9353 26.4917
21.4396 11.7898 25.1134
26.0765 12.6335 29.0791
28.0987 13.4233 29.5174
21.737 13.4244 28.0418
23.9816 11.8294 24.2103
26.2426 14.535 31.9696
27.1814 13.0244 26.7745
21.6992 10.6802 22.7015
22.7709 13.1222 28.8718
26.7736 11.6552 24.414
23.0128 11.5801 25.5892
24.181 11.235 24.523
27.6071 12.7292 26.3825
20.4095 12.6737 28.3057
26.4458 12.4908 28.2576
25.0089 11.9916 27.3048
23.2845 12.2541 28.9642
24.4796 13.7689 28.9756
31.5516 11.7279 27.0268
23.8411 12.1414 28.7593
24.8845 13.8691 27.6044
23.7503 11.7915 25.9741
24.4012 11.8112 28.3992
22.077 12.3401 28.3245
27.3352 13.0277 28.438
23.9567 11.9053 26.4375
22.5311 12.2166 28.4301
28.437 11.2004 26.1198
28.0608 12.7698 26.9206
22.5709 11.4943 27.8981
27.7887 12.4983 28.9687
25.5156 12.7228 30.3097
31.9926 12.9759 29.7773
24.3184 11.3033 26.1072
24.0268 13.0012 29.396
23.8563 12.5303 30.279
23.6835 12.6645 27.1201
23.8845 11.3588 26.268
23.5668 13.7645 30.4253
21.5422 12.0492 27.756
23.7239 12.6035 29.6732
22.7315 12.1042 30.2003
22.9735 12.3886 27.9691
25.2325 13.1146 29.2316
24.8936 11.5441 27.429
22.8064 12.7117 30.5612
25.1976 14.4513 33.7224
26.5333 11.9446 28.1485
20.3703 11.7785 27.4946
21.8026 12.5756 30.4955
25.3342 11.6263 26.5404
21.693 14.277 33.8371
19.5187 11.898 29.0837
21.3841 12.8694 27.749
25.7012 11.9318 30.4513
22.2514 13.3563 31.1458
25.0735 13.8117 31.2718
22.7897 12.5729 31.9812
26.7974 11.6893 29.2396
21.9777 13.4085 32.1722
23.4664 11.7452 28.0159
25.5484 13.549 30.1857
23.3399 10.9092 28.001
21.1041 12.5577 30.6427
25.7006 12.0088 28.0944
21.1257 12.3414 29.9725
23.9418 12.466 28.8182
25.7197 11.1503 26.531
22.4431 11.4399 28.5763
22.0433 10.1006 27.4401
25.2184 14.1764 34.6816
23.4342 13.6256 33.0053
26.5782 12.5956 30.757
22.8318 12.4875 32.751
22.032 13.4463 33.5875
20.6556 11.8185 29.3883
20.7096 13.2497 31.4457
24.037 11.9347 29.2098
22.7829 14.0605 35.6436
23.5677 13.4935 33.2118
19.9857 11.2517 28.9753
24.5082 12.1511 31.2072
20.7168 13.4135 32.811
19.2953 12.7427 33.6264
20.9386 13.1114 33.2789
22.4831 12.2052 31.2529
19.8611 13.0011 31.205
23.9706 13.3124 34.014
20.6115 12.7138 32.1426
18.413 12.5216 31.0139
28.9828 12.5614 31.8037
24.2065 11.4737 28.454
20.1306 12.474 30.7961
24.0103 11.8254 31.215
22.2403 14.0602 37.0773
24.9801 12.8315 34.1951
26.3183 13.5929 31.3305
20.3628 13.0191 34.6747
23.9188 13.8514 35.3131
24.8579 13.4173 34.5411
24.4735 12.8024 29.7873
21.6045 12.248 31.2429
22.3988 13.8001 36.9979
22.5767 12.5213 34.4497
23.7134 12.5525 33.0383
22.7038 12.8114 32.3403
20.6107 12.8054 31.9358
22.5702 12.837 30.702
39.9313 11.8698 32.6274
18.2112 12.0038 33.8583
25.2692 15.0184 36.6487
28.7226 12.5333 33.9429
24.9914 13.0307 35.5958
24.587 13.9075 35.5798
24.6262 13.6232 33.1295
20.8542 12.031 33.6073
21.5679 12.5181 35.1773
23.8469 12.3326 33.7961
19.476 12.7129 32.396
20.6413 10.9674 29.0353
18.3839 12.7902 32.3706
17.0003 12.479 34.5826
21.6323 13.3485 34.6997
19.8054 12.7447 39.4478
21.2762 15.4106 35.3975
22.7837 11.6327 31.7364
21.5906 14.2081 37.1184
19.1637 12.955 33.0147
16.7713 11.8915 33.0517
18.8261 11.9925 33.5391
20.3912 12.6286 36.2772
17.8005 13.5277 34.1377
18.9174 13.5932 36.5357
17.4734 12.3221 32.7034
18.1068 12.3245 35.3943
18.2659 12.9557 35.7616
19.8233 12.9497 35.1025
20.0195 13.0249 34.7251
21.3092 13.6748 37.4506
16.913 14.2526 35.0229
22.2131 13.3808 40.5776
18.8914 12.9614 35.9595
21.4449 12.8998 34.9136
21.1449 13.0165 34.1957
24.653 13.4603 40.2299
20.8649 13.0593 34.9508
20.3796 14.3808 38.3492
18.796 12.5518 39.5853
22.966 13.7476 33.1098
18.5408 13.2809 38.1671
18.3743 12.4646 34.7985
21.4537 11.9605 33.4147
18.3187 13.3177 35.532
18.9289 12.0757 36.0295
22.2708 12.0806 34.8881
18.9206 13.9091 36.5623
20.408 10.678 33.1674
19.4903 12.9276 39.8892
20.1034 14.0185 36.2674
18.2408 12.5482 34.8862
20.7128 12.722 34.4419
19.38 13.2767 40.428
19.0887 13.0819 35.8536
18.4712 12.9812 38.0287
19.5744 13.9581 37.7438
14.8254 13.2188 38.1173
19.3755 12.7712 36.5155
19.2568 13.0542 39.4973
17.7301 13.5917 40.3905
19.3494 13.5198 38.1314
20.2622 13.4397 37.637
20.5444 13.552 36.3226
18.2923 13.7282 35.8158
16.4427 13.5526 38.7121
20.4001 12.6295 37.0174
18.9838 12.7576 36.2797
19.2375 12.9972 38.1074
19.8768 12.7504 35.9698
20.8384 13.215 39.5145
18.9149 12.4502 33.2555
19.4096 13.3771 42.1505
20.7071 14.3069 39.6065
14.8856 13.3691 37.1996
18.4569 13.3726 37.5533
19.7318 12.992 40.8548
17.4277 11.4926 34.7237
17.667 12.1164 36.112
17.8142 12.6676 35.0695
18.6343 12.8399 41.443
20.7005 13.9994 34.87
18.335 13.3799 41.8614
18.4048 13.4694 38.3025
21.1283 10.9332 39.3252
20.7902 14.6935 41.3023
18.7965 12.8904 35.774
17.6046 12.8523 34.0505
23.3656 11.9322 36.2736
18.8131 12.8777 41.6461
20.058 13.5726 38.5498
18.2175 13.8535 40.8013
18.3738 14.1778 43.3535
16.6993 13.0132 38.1385
16.1167 12.9863 43.139
19.5377 14.0307 40.5034
19.4881 14.2291 38.9877
16.8895 12.9959 40.5241
18.1577 16.0863 49.7185
19.6125 12.8437 38.5574
18.1382 12.3266 39.4789
21.5929 14.4321 40.4416
17.3236 12.0819 36.6341
16.0792 14.7095 41.8797
17.3914 13.5706 41.6159
16.8249 12.6355 39.2016
18.7315 12.6563 37.2364
13.9687 11.8897 37.6826
17.4837 13.9155 41.2725
17.5582 13.699 39.7866
16.6773 12.6196 39.3588
16.2434 12.9492 38.5568
19.7028 13.8505 43.8626
17.5152 11.552 35.6116
18.9562 12.1975 35.8219
17.754 14.0329 43.9356
19.6469 12.2603 36.7461
19.3504 13.85 41.2471
19.8115 14.0629 42.2301
18.976 14.4804 46.9643
17.3567 14.8456 40.8546
16.898 11.5423 39.4753
20.244 13.1724 41.3952
17.4804 11.9158 41.3182
20.7188 14.2297 43.827
16.9533 12.8987 37.9237
21.4391 13.4327 37.3648
17.8294 13.5936 43.0354
18.7798 13.5816 44.8418
16.9392 13.3072 40.0815
18.3592 12.3534 41.8949
18.8985 14.3807 39.8631
17.1302 12.8418 42.8286
16.6797 14.7874 44.7525
17.1491 13.3139 39.8688
15.8158 13.2412 44.3807
17.5172 14.7219 44.8858
16.7609 14.1549 43.2267
14.0055 15.6769 47.4422
18.2778 12.8674 43.2367
16.6109 13.7213 42.933
18.7464 13.6313 45.7587
18.3823 13.2398 39.4028
14.6573 11.811 38.2755
18.2369 12.3414 40.6856
17.5025 12.5185 38.3079
17.1337 13.0698 41.8359
16.7863 12.1119 39.1929
15.8971 13.0121 41.0026
17.9703 13.4337 39.825
16.7096 14.9015 48.1914
19.5783 14.1739 44.0906
18.5424 11.5014 41.7696
18.7635 14.0207 41.5236
20.4063 13.0407 44.7538
18.9897 14.4882 43.2153
22.1711 12.9439 40.9924
17.1515 12.5488 40.8771
22.7412 12.7729 39.7691
18 13.6165 47.6407
19.5825 13.2438 41.0696
16.2159 12.4631 38.5437
17.6478 11.261 37.3336
15.4812 13.1941 40.8432
15.4766 12.1006 39.4782
20.1568 11.5729 39.9379
16.5537 11.4633 40.3068
15.8068 13.5785 38.6637
18.8515 13.8184 45.5247
21.2156 13.3732 43.4622
15.2928 13.7386 47.9342
19.1146 15.1285 46.2412
18.0675 12.9893 43.4076
15.6816 14.2453 46.8412
16.1794 13.0595 46.9797
21.1667 15.76 44.5462
16.435 12.9074 43.7679
14.6126 12.6629 45.7588
18.6151 13.0026 40.4861
16.4887 12.5993 44.6542
14.6839 13.1742 41.3541
18.3444 13.1194 44.6693
19.2831 14.9083 43.3833
14.0985 12.0804 40.8029
14.7789 12.4919 44.0376
17.6824 13.2414 40.3541
16.8969 12.2635 42.5062
14.756 14.0788 41.8223
14.507 13.5201 47.4984
18.1039 12.8777 45.7938
16.6127 12.1546 39.0531
16.0556 11.99 42.2388
16.3233 13.965 43.9835
14.0099 13.1909 44.6062
17.9214 13.644 45.3352
16.8286 13.3392 43.1794
15.204 13.5051 48.2392
16.0775 13.4166 43.1434
20.0748 13.3926 43.7076
16.4761 13.1595 46.382
17.8525 13.0749 42.6155
16.9139 13.7804 44.4855
18.8529 13.4319 46.4032
16.0946 14.4202 47.7781
19.1343 13.2218 47.6315
18.2442 13.1991 42.3968
17.2305 12.804 42.0375
18.6546 13.0016 46.481
18.8718 12.9788 42.9589
15.3795 14.6624 46.5042
18.6043 14.3481 49.0056
17.5248 13.3413 43.7272
18.5859 12.1512 42.3129
15.7074 13.2242 44.8571
17.2774 12.4284 39.9766
15.2547 13.8651 52.3974
14.7891 13.4013 43.475
16.0582 13.2655 50.2072
15.6004 16.3055 53.9738
16.2603 14.0618 46.6081
15.0523 13.7211 46.4873
15.1169 15.1423 47.2396
15.7382 14.1388 51.6981
16.7215 13.615 45.7983
16.5094 13.8086 49.4033
13.8287 13.4318 42.5159
15.2186 13.9411 50.8597
19.0278 13.4209 42.9528
13.3837 13.0184 44.129
16.5389 14.2331 52.1411
17.5781 15.0973 50.9054
13.5833 13.4163 44.8316
14.8786 12.9633 47.0018
15.5049 14.4763 51.2812
18.1831 14.2174 46.1226
14.9416 11.9383 43.1204
16.4507 12.2606 43.3919
17.8955 12.4997 42.8485
17.6604 13.7556 50.0057
16.4477 15.7144 49.2175
20.5369 13.8574 48.2897
18.1372 13.8842 48.3222
17.3311 13.0309 45.1375
14.2822 13.1383 48.9024
18.5375 13.8581 49.228
15.6794 14.1932 44.8689
15.0929 12.9596 47.3999
16.2231 14.2912 47.9821
18.5957 12.7429 46.72
15.9246 13.7897 48.9516
16.8061 13.3669 44.5391
16.8293 13.8281 47.1314
17.8878 13.6757 49.045
16.1039 13.4453 50.2284
16.486 13.8555 48.7086
13.3566 12.1214 38.8772
17.8956 13.9352 48.4333
17.6959 14.136 53.227
19.6301 14.0488 50.448
18.933 13.3159 44.8361
16.3665 13.4249 44.3906
20.4481 13.6894 50.0105
17.7619 14.0532 53.3185
13.8838 14.8194 47.0766
15.3421 13.9167 48.1528
13.8018 13.9079 51.8273
14.4699 13.2282 48.6538
15.4954 12.9354 47.0821
13.2547 13.6015 45.6787
14.3843 12.631 46.3595
17.3247 12.0046 44.4931
15.4467 14.0818 47.8916
15.5633 13.0176 48.5934
17.2724 13.5767 49.397
15.9625 13.9159 50.4304
16.269 14.1823 54.3194
17.3225 15.006 54.8246
15.8022 15.3924 53.5827
15.336 14.2682 53.9364
17.1193 14.1614 52.6111
17.2539 14.8193 51.9355
15.9695 14.5509 53.9533
19.9642 15.1775 51.3917
16.6559 12.9164 45.8369
17.3856 13.8862 51.5715
17.9868 13.5289 51.7641
15.4491 14.2451 50.9341
18.9734 15.2254 57.072
33.0772 15.1876 47.9854
13.8373 15.0854 57.905
26.912 14.6751 50.7954
24.9621 13.8748 51.4715
21.4285 15.7231 55.1296
19.003 14.3212 58.1913
20.6386 14.9389 49.3902
18.2333 13.3545 48.5702
16.6507 13.0957 50.2872
16.1276 14.954 49.3292
15.6847 13.2796 46.428
17.2203 15.3992 58.0065
14.693 14.0672 51.1146
15.2113 13.8307 54.6294
16.4919 15.4839 51.5435
15.5991 12.3329 45.7085
13.5334 12.8828 44.6383
14.9723 13.7752 47.6334
15.5143 13.9789 54.7375
13.5886 14.551 48.4356
13.4583 13.4578 49.0071
14.5801 12.3175 50.682
13.573 14.2569 57.6655
15.3031 15.0787 48.8128
14.5139 12.6912 47.5491
13.9049 14.4253 51.869
16.2173 12.4075 51.1415
13.037 14.3034 48.2346
15.8403 14.324 52.149
18.5648 14.9423 52.6823
15.6475 12.5161 45.9235
14.1095 13.6157 49.0063
18.746 14.2355 51.0144
16.5111 13.2215 50.499
17.361 14.4114 49.6807
14.655 11.8617 47.5959
17.2964 12.6136 49.2328
14.5537 13.7605 47.5871
16.6451 13.3106 47.2427
14.9302 12.7336 49.8385
14.7253 13.3071 48.7139
13.2892 15.1335 58.233
17.0402 12.8499 51.7924
15.4046 13.7879 50.7641
13.4876 14.0456 48.6645
13.8399 13.3126 49.2549
15.6801 13.3476 50.3037
14.5589 15.2139 56.8797
15.7776 14.6434 49.9034
13.8057 14.1932 56.7271
14.8123 15.2705 52.0293
13.9452 11.5217 49.2482
16.9029 13.724 50.0045
15.1164 14.4926 52.0935
14.4502 13.4576 53.5831
15.7687 14.3886 50.787
14.9945 12.8775 46.754
11.8151 14.87 55.2295
15.7544 14.9742 55.4961
14.4106 14.3579 53.5469
15.8003 13.1162 47.4549
14.8858 15.4807 60.7182
15.5201 13.752 53.3739
15.8516 14.2376 55.7852
13.9835 13.5122 50.5915
11.984 14.9519 56.5264
15.3013 14.0595 48.1887
13.1563 12.3473 46.5236
13.8951 13.618 49.9591
13.1334 12.4314 46.3882
14.9381 11.9547 48.3889
14.2717 12.8067 52.4991
16.5387 15.1582 52.8258
15.0283 14.5035 58.644
12.417 14.9342 54.5923
14.3794 13.1118 52.1379
15.0103 12.2551 51.7254
12.9731 13.8462 51.5854
15.0606 14.769 51.3599
14.1341 13.1247 49.9281
16.6982 13.2805 54.0008
16.4357 13.8019 49.8233
15.6735 13.0215 49.5014
15.9248 14.2706 52.5004
18.8513 14.3167 54.4046
14.6753 12.8678 46.5632
16.472 12.4667 53.7576
14.5502 14.1795 50.8075
17.0534 14.3394 53.7559
15.7113 14.4827 47.2758
15.5718 12.7463 57.2326
18.6737 12.7717 46.1961
17.8441 12.3516 46.8204
12.6524 14.7054 55.9643
15.1983 13.1881 49.3315
13.1814 13.6261 52.2144
14.7523 12.8425 47.2798
12.5774 12.4367 52.1336
12.3452 12.336 47.1942
13.3196 12.9945 49.0964
13.6586 13.2896 44.5888
15.3048 13.3066 47.0225
10.7782 13.49 55.641
11.253 12.2046 43.9236
14.1823 12.1748 48.9193
14.6184 13.5516 50.7275
12.4092 12.2331 49.8907
12.2195 14.1361 54.2907
14.3404 14.1394 57.742
16.866 13.9802 51.1029
15.1432 14.341 53.4668
14.4253 14.4174 54.0354
16.7974 12.4251 45.2501
13.587 12.1534 51.731
15.5029 13.498 46.6601
16.1428 12.3946 49.2786
14.148 13.2806 54.6988
16.1072 14.3472 54.6426
16.5931 13.3181 50.964
13.9821 11.6987 49.4882
14.1199 14.2651 51.3381
15.004 14.1555 50.1893
16.5481 14.1149 57.0575
15.3866 13.6621 53.4381
15.0021 13.8161 52.3428
14.3148 13.8209 52.1899
17.1413 12.093 54.7941
13.3806 14.7775 51.918
15.5479 14.3536 56.7071
14.0062 14.5688 57.0786
14.7682 13.6775 58.1565
16.261 13.9018 50.4178
14.5573 13.221 56.2614
12.945 14.7539 52.6703
15.7646 14.2593 55.652
12.3405 14.5079 55.4076
14.1603 14.3999 56.1042
13.293 15.0491 59.5189
13.299 14.8824 57.4207
16.3822 14.6134 52.4094
11.7597 13.0313 52.0732
14.5891 14.0202 54.8265
14.6063 13.7639 53.906
12.6268 12.9756 49.3642
16.4065 13.8665 54.2089
14.9351 12.9069 51.9282
15.7148 13.6904 57.3737
14.2696 13.3947 49.5593
12.3921 13.944 56.4565
15.5931 14.9607 55.5384
13.5437 13.2879 50.2176
14.6665 13.8258 49.9193
13.6642 13.5228 57.7127
13.879 13.3043 52.6963
16.0592 14.4037 54.0766
14.3127 13.3675 53.1493
15.3335 14.2468 56.0049
14.0392 13.2897 51.616
16.7319 14.5203 55.7166
14.5669 13.8283 55.7148
16.7066 14.1827 53.7428
12.9704 14.1274 60.8885
15.5028 14.9263 54.4998
13.9674 12.1358 54.5205
15.0994 14.0381 54.4853
16.112 15.0194 55.9293
14.9826 13.9406 50.3889
11.5367 14.545 62.1733
17.1425 14.3766 52.1221
15.5766 14.1532 59.0975
12.5951 14.3293 54.1064
15.2552 15.0998 61.2591
15.7595 14.1015 58.5463
14.6361 14.6369 56.4912
13.9322 14.1676 52.6444
15.7274 15.116 59.174
15.9823 14.7033 55.5391
11.3294 14.3264 59.0326
16.8692 13.3131 54.0383
14.536 13.5722 51.8068
13.1989 13.3674 52.3899
15.7629 13.7434 53.0072
14.7857 14.8923 52.6617
11.8884 12.1484 55.4814
13.1793 15.0067 45.1342
12.7233 13.3218 57.2199
14.6864 14.9089 59.5448
12.2001 12.6558 47.0689
10.4411 13.4942 63.8708
16.3471 14.975 55.0798
13.8063 13.0608 55.4776
14.1455 14.6669 54.9839
13.8127 12.9471 50.0689
12.8927 14.3326 55.6584
14.8164 13.9474 54.4729
13.7952 14.9819 56.2094
13.0974 12.7357 55.4382
13.9514 13.8661 53.7037
17.5184 13.0203 49.9328
14.3783 13.4278 53.2981
15.0076 12.2393 55.2169
13.255 13.9584 46.9393
15.5101 12.1848 50.8796
14.4218 15.377 58.7265
16.6362 11.4746 45.9044
13.9347 12.5469 58.2637
17.2208 14.0847 54.9809
16.6218 14.8736 57.5288
16.094 13.1937 50.0925
14.4521 13.5743 57.4018
14.3138 14.5153 52.0408
13.6555 14.1336 57.142
16.7098 13.6499 53.5486
13.2143 12.8233 52.4563
14.3625 14.1487 60.0194
15.0239 14.9406 56.846
11.8502 15.0978 54.8954
14.6128 14.058 53.4463
14.0928 13.0119 50.471
13.2612 12.9809 58.0379
14.2088 15.2018 55.2545
12.7232 13.8567 56.93
11.4951 13.1608 53.5169
14.0352 12.6388 55.7764
13.767 15.0184 51.8437
11.383 14.1746 56.0566
14.4576 14.0185 58.1402
14.4969 13.6699 53.5426
13.0673 13.8232 49.9534
13.3251 13.3428 56.2962
13.8943 15.175 56.2756
13.5262 14.1801 53.8026
12.6453 12.2755 55.6394
11.9346 12.5445 53.9819
14.949 13.8778 48.3839
12.7984 13.8487 50.9597
13.8637 12.562 56.3436
15.0954 15.1002 59.2341
16.5269 14.0584 53.706
12.4689 12.9327 48.48
15.8173 11.3547 50.7835
15.3886 13.8572 55.4992
15.0068 15.1617 62.3787
13.4072 14.548 51.2376
16.3441 13.326 56.0024
14.5886 12.3262 48.1451
13.5745 15.3684 60.7824
17.1739 13.7915 53.5678
16.1504 12.7104 49.2
13.3542 12.6271 53.6826
15.1456 13.0611 51.5675
13.8715 14.5798 55.4201
16.6676 12.8245 56.3907
12.5162 12.9492 49.6676
15.6162 14.8432 53.6798
13.123 12.3222 52.0089
15.6159 14.9504 64.7481
16.9919 14.063 52.9617
16.1649 15.1769 59.5401
15.204 14.1023 56.1204
14.3 13.2058 56.5973
17.1419 15.5943 61.3975
16.0683 14.0756 51.0817
12.2115 12.589 56.9358
14.3759 15.2301 56.2482
13.6514 14.4655 57.6772
13.0261 13.3639 50.9782
11.9804 13.4192 54.559
11.3967 13.5703 58.5268
12.6384 13.818 55.6887
12.9166 13.0222 53.4507
12.9643 15.5114 56.5905
13.3724 12.3407 47.9262
15.8743 13.307 52.8206
12.4489 14.225 58.2641
15.3101 14.4987 59.7456
16.8405 13.5118 52.9848
13.6096 13.6213 59.5347
13.2317 14.3444 57.3974
16.4186 15.1595 58.0271
15.4352 13.4402 53.4364
15.9209 14.9406 57.3396
16.8886 14.1459 51.753
17.0778 12.9696 63.8581
19.4842 14.247 53.3021
17.059 15.3114 54.6854
17.5709 14.5483 60.9914
20.8089 14.3952 56.9915
27.0112 15.0459 58.1481
14.2594 0 0