# pn-170911/RbIIA-40-RbIIA-1280-1959.psd
# Power spectrum* (dif=0,1,2) (really just |FT|^2)
# NOTE: only the first half! (symmetric)
# weeks: 1280-1959
# 1 clock-days, 38 excluded
# PSD: 1441
170912 0.999176 0.0413101
3.14578e+06 12.3964 0.124033
1.94925e+07 442.263 0.172674
2.02503e+06 57.5564 0.239219
1.36977e+06 78.9115 0.181737
404393 33.73 0.0586823
729822 118.63 0.14553
167265 18.2575 0.227322
754854 179.364 0.0171577
176493 47.2801 0.137681
11139 5.01125 0.20443
140720 104.454 0.0619609
361707 220.13 0.0294625
471856 417.803 0.0321247
190977 160.822 0.408165
49037.6 76.7193 0.561886
26943.3 21.6458 0.180332
150098 182.716 0.131328
31996.9 71.8337 0.432121
26395 51.9203 0.0417258
40480.7 95.9298 0.340355
132885 212.823 0.0968609
81159.2 141.622 1.02415
78899.7 181.996 0.423111
71542.5 216.743 1.01403
34080.4 81.8486 0.055447
82992 214.227 1.19451
12203.5 62.4119 0.556409
56027 160.686 0.464574
572.388 9.48539 0.0340299
24634.3 84.7834 0.156213
34031.7 117.447 0.933668
3497.48 18.5576 0.106531
3767.64 31.0585 0.466567
5754.9 56.6096 0.818771
14449.2 92.9355 0.307657
14933.7 65.9111 0.134732
21260.3 150.641 2.21031
4527.02 41.2921 0.0112815
9200.44 44.5508 0.537871
22792.5 180.825 0.933607
8402.14 41.0295 0.905709
23709.7 219.291 1.24025
125.589 0.584689 0.288545
5717.25 56.913 0.0581674
11649.2 144.005 1.52252
6284.28 93.2068 1.60033
959.306 1.70608 0.364578
10103.7 150.465 1.073
6489.71 118.399 2.57815
6582.24 46.0182 0.57477
6649.05 124.633 1.23361
15422.8 147.211 1.09067
3006.92 36.248 0.041359
5881.5 85.7846 0.93427
860.505 9.58657 0.233991
1423.28 7.25386 0.434913
8911.34 152.696 2.39243
4505.64 99.9228 2.48894
305.491 0.165427 0.296672
7092.14 94.3425 1.82718
2107.24 44.1069 1.37982
3326.45 34.6604 0.810178
208.545 13.6762 0.173674
934.117 37.1452 1.16637
248.745 0.000966818 0.309232
2480.45 59.6406 0.547263
4083.48 52.1329 0.726388
16403.9 301.938 4.27096
4232.73 67.9653 2.52766
3310.23 72.4342 2.47846
2012.09 71.0238 2.36659
313.293 21.773 0.264793
2109.58 83.8694 2.36907
2436.27 35.472 0.300702
1043.86 48.3459 0.595384
1182.51 29.1143 0.398195
497.528 14.9179 0.850102
24.9983 7.20172 0.258947
1323.43 27.7921 0.844262
525.721 5.37022 0.0252404
92.9594 11.5648 0.549226
2861.23 136.442 3.24384
1622.08 60.6608 2.34576
6749.13 207.131 4.45174
2064.76 75.8466 2.20643
486.067 9.23829 0.168059
993.802 38.4328 3.09377
1155.19 60.4739 1.22609
547.086 5.35478 0.0356033
9014.65 340.705 9.98105
1405.25 97.1702 2.79911
11811 481.38 22.6152
3457.88 98.0781 4.15396
223.651 27.5475 0.646506
1895.2 78.8497 2.38649
4024.14 148.897 7.37449
362.338 6.4204 1.13898
2431.28 103.411 5.72183
581.722 8.50353 0.127562
362.88 10.1193 0.203562
698.605 27.5619 0.74972
2336.64 69.5919 1.79756
2292.79 76.5878 4.81382
1851.69 79.3316 4.36983
694.444 61.1047 4.74365
538.658 11.7256 0.247209
1057.26 39.275 2.19295
2031.82 78.194 3.08637
1486.61 60.0009 4.31027
944.744 78.5885 3.36929
1301.14 79.9087 4.59472
283.725 32.5983 3.80747
311.88 3.31306 0.42905
239.7 3.47987 0.350618
470.296 7.52787 0.217651
7747.44 464.306 32.6961
3720.73 181.759 10.4808
1114.68 59.6519 2.31136
852.305 91.1548 5.37728
2005.89 84.8441 4.57828
1902.55 102.135 7.28884
1427.2 71.0636 7.11224
1121.5 72.6199 6.25909
2537.34 175.566 14.7685
2997.49 197.712 11.1006
585.123 28.8644 2.71298
1033.27 82.3961 5.62648
259.703 36.5431 2.5943
2517.89 179.308 14.7488
3127.2 261.268 20.8846
2538.45 168.09 16.9555
646.629 35.7044 4.08969
43.166 1.77845 0.11387
42.9649 11.5704 1.05396
484.645 25.2941 3.57468
339.818 34.8588 3.10632
2275.65 231.04 16.6493
601.764 97.7531 8.7675
585.28 21.8538 0.771367
1318.62 100.582 7.48308
270.312 15.6949 1.63296
381.49 24.0288 2.43478
87.7323 6.84627 1.31896
1308.22 169.116 13.314
87.0611 1.59339 0.294144
151.247 23.1596 2.03526
76.9901 4.92631 0.939275
2191.88 289.071 30.2106
73.1926 0.511472 0.574009
1288.29 130.631 17.3892
433.493 70.4713 8.78533
1459.46 113.42 8.18006
180.764 6.0384 0.445416
1357.28 107.775 12.5007
49.9131 2.80547 0.246919
452.387 46.301 7.11761
179.365 39.0571 4.70126
1334.46 129.602 12.8193
1863.83 184.701 26.2294
1744.86 232.153 27.2366
458.432 39.1322 4.52666
244.45 15.6029 2.28094
595.758 68.5372 7.21482
438.124 75.8436 10.991
462.612 38.2642 6.3505
110.885 14.7421 0.919571
265.723 59.4687 9.21318
141.096 10.0057 0.267555
235.769 38.9213 4.67105
21.6755 7.14599 1.53738
386.049 27.9438 2.7526
69.282 2.95493 1.31322
107.674 27.0985 3.39858
115.794 41.816 9.06071
625.425 54.9372 8.00284
122.33 33.0147 4.7171
595.182 71.0078 7.84335
318.357 44.9219 8.35047
389.598 35.4809 5.80065
67.0607 8.19556 2.09658
121.609 10.2285 0.760267
265.979 30.9868 6.88474
476.241 75.9458 9.89682
630.87 108.339 11.6386
1556.49 311.298 56.3049
51.4369 1.04529 1.2181
184.613 33.2288 6.53806
379.419 55.2642 4.9517
1118.7 172.698 26.5408
25.1516 15.0444 2.98186
83.7493 39.964 6.31125
4.04503 4.40212 2.53315
54.1189 5.91006 1.26018
848.247 101.288 18.2124
698.298 169.438 38.6854
701.316 72.9573 10.0984
298.753 40.527 6.19939
66.312 34.4618 9.19879
323.785 29.7365 3.48793
758.85 109.93 18.6368
313.559 39.7315 6.00753
233.743 68.9165 18.3365
1055.04 136.404 25.8696
915.312 172.987 35.9992
39.5384 5.72246 2.59629
229.721 52.1909 6.04383
153.232 26.1683 4.94312
78.8787 33.1915 10.3757
403.668 67.5806 9.18286
50.5504 19.5046 3.84763
192.9 19.2457 1.36382
1246.22 264.114 47.8041
250.052 85.7893 26.5186
563.093 148.829 34.5515
178.946 16.4682 3.26518
124.053 54.6811 11.9967
498.224 66.5746 10.271
44.2021 17.6194 5.32096
120.433 13.8868 3.54644
124.93 16.4951 3.86425
66.9591 34.7855 8.66945
98.1888 4.70215 1.41299
296.424 50.0458 13.245
264.463 41.2644 6.81096
534.806 117.381 23.1497
1324.74 308.934 74.6495
148.923 44.2174 12.3304
164.213 63.1188 13.6026
218.642 98.1973 27.5673
401.163 72.7962 11.4306
146.2 77.0184 19.4992
477.022 79.5228 15.6272
169.813 31.1954 7.00301
83.5847 23.6798 7.33977
150.177 67.9215 21.2395
1637.21 443.904 106.565
18.9524 10.9336 2.78689
36.0195 27.0458 9.07295
256.684 108.709 37.1855
337.577 71.9874 15.8788
225.815 107.849 29.9665
40.6082 15.355 8.90748
118.511 7.94198 0.730176
138.508 82.742 28.9242
1005.09 181.611 33.8828
230.664 48.0378 16.2081
42.6343 10.5446 1.43046
384.553 152.743 53.1464
229.901 59.219 19.1372
207.388 25.5432 7.35254
299.188 82.791 20.3564
31.9452 1.26457 0.295593
137.442 68.5266 22.3793
28.2822 5.62813 3.17503
161.891 52.2299 16.1056
274.36 43.1314 13.213
196.541 89.1518 28.0269
87.0873 6.01618 0.242777
40.9097 57.8004 26.2023
623.832 99.6417 17.7166
260.13 48.6929 10.6659
10.835 1.50689 1.71197
606.489 128.199 33.6213
35.8639 2.23301 0.404865
910.211 251.34 85.7211
277.699 101.047 31.6471
24.7248 2.46638 0.291309
32.6229 24.3218 11.509
159.114 30.7745 10.6225
37.7972 28.7354 14.3923
628.738 172.035 62.9307
107.346 28.707 6.04463
1.39137 9.13842 7.44062
820.74 245.89 80.3719
179.044 59.11 16.4204
516.342 170.548 66.2004
91.5674 28.3206 5.19774
2.20151 3.51618 0.0662376
18.868 14.4361 5.07788
120.539 57.9432 20.8214
408.124 166.488 61.1492
275.426 139.875 67.3299
177.121 22.1762 2.87937
103.562 19.947 1.16886
103.552 36.3737 10.6238
727.852 276.086 92.6487
46.9315 9.19344 3.69169
137.144 69.3911 38.1563
86.6405 5.54326 0.211701
413.964 117.622 46.9848
279.792 119.546 42.2084
197.182 49.3032 13.2532
39.9156 20.9955 6.0122
22.399 23.0217 13.8077
86.8892 10.5684 1.72235
273.295 81.6192 35.4317
16.8749 16.1071 5.87497
64.5993 13.0081 4.93149
1.10358 8.7674 4.97509
59.9948 16.5773 4.61964
429.565 125.196 38.9188
260.46 99.4258 43.7422
34.8784 16.3571 11.4961
11.8157 1.87762 1.4394
28.0591 10.8996 9.55509
109.255 62.1758 16.8584
19.5344 28.8904 18.5996
218.569 52.3946 14.3686
287.973 111.113 52.1246
114.742 86.035 48.4675
164.718 54.4551 14.3658
57.0059 19.0264 16.485
96.5348 54.497 21.4701
172.846 72.8323 32.9881
328.255 223.282 101.85
247.536 58.1831 19.5682
8.77984 5.32194 3.40931
134.491 110.244 51.1063
171.414 79.5658 40.0728
127.596 24.9447 3.93618
103.104 39.8222 17.6775
153.164 41.7848 17.2204
89.7709 34.901 16.7244
265.09 140.403 65.8347
24.1725 39.2643 21.0661
7.13635 2.86002 4.18374
91.6391 47.6677 39.0181
186.363 91.6043 38.2593
136.138 39.9126 14.2147
131.838 92.5671 56.5126
95.4986 65.3584 62.0153
671.377 266.476 106.581
22.627 30.4183 17.6748
119.206 38.0686 16.2853
110.586 44.312 24.0326
23.9784 19.2861 20.8602
33.4702 14.3974 1.29378
37.2105 32.3221 15.4833
40.416 23.5583 6.8046
73.5103 78.506 47.0725
64.4546 26.7642 11.3832
142.096 58.8435 20.0315
13.3239 14.9547 3.09487
261.485 245.795 158.113
346.47 104.056 34.4248
36.0662 7.67775 5.5869
62.4576 68.5274 39.5048
97.9901 24.4581 9.63413
127.388 85.888 37.1537
33.6868 57.5159 40.5353
188.85 87.6868 51.2918
218.115 81.9982 45.9768
86.1187 49.3954 16.5064
25.2894 36.5078 28.196
153.755 82.2084 45.101
80.0782 82.9696 66.1449
60.7589 5.14973 2.33481
95.6606 28.3565 8.80675
136.563 69.1078 48.3069
77.6991 28.5235 14.2924
98.6235 19.1766 6.18784
330.253 141.921 71.4436
99.0181 59.3481 41.2152
5.91684 5.57214 6.46663
37.1186 25.8517 23.1729
167.965 119.933 61.7031
45.6048 32.7794 17.7647
163.662 160.907 93.3567
17.9896 37.1421 44.9727
84.6873 19.7178 9.51988
17.844 3.8314 7.98425
59.0434 28.9515 12.7923
162.137 71.6428 35.5934
1.71738 0.388268 0.258291
56.0733 80.8007 59.5867
87.3338 19.3064 4.09719
14.2642 27.9356 26.1756
50.5511 4.01852 1.25468
174.232 77.918 38.4361
9.84784 1.48636 5.22743
41.278 9.71343 3.63783
90.5449 31.4692 12.4332
76.172 38.7699 29.7266
0.670354 0.0547858 1.28582
7.68886 15.7936 12.0396
23.6152 4.72037 0.422594
41.4888 14.1289 6.89045
32.2909 18.5963 15.0496
2.87103 1.3837 1.78119
32.8725 15.1433 19.0465
65.883 60.5337 36.4824
47.6183 15.5025 8.34776
26.645 40.2079 27.2574
8.57068 5.71735 19.1905
372.393 210.085 126.593
23.9868 49.9765 61.6617
254.571 128.682 65.949
13.4274 0.790373 0.698374
166.756 99.8898 68.2521
8.59369 2.09815 4.58639
1.67077 1.52155 1.65158
18.5558 14.8501 14.9815
52.8925 24.1 20.9871
0.182195 0.0602941 1.67498
9.25856 19.7244 29.0813
179.749 142.882 70.9425
3.5738 9.90136 11.5928
16.1582 5.65314 3.08569
9.09216 25.0188 22.5976
33.4703 41.0625 36.2259
39.0907 13.8042 10.6759
71.9113 28.5947 11.5506
136.505 159.835 160.949
230.543 118.849 46.4643
47.3497 42.3973 35.5207
38.7592 41.6216 63.1783
123.768 38.4277 8.40749
66.0585 22.7286 7.21314
175.976 136.435 116.29
58.5434 44.4943 20.5916
3.38041 3.07778 1.06544
29.0508 34.5788 27.7848
48.2761 28.2143 21.4346
24.9964 32.3865 22.4812
48.5084 19.2985 5.65948
30.2857 28.148 22.3881
1.40583 11.9356 15.6689
9.10249 2.70258 14.7784
213.131 118.647 64.6808
24.4405 12.9153 13.6027
67.4225 56.1151 74.298
259.674 241.73 188.806
56.5406 18.4993 8.55021
8.50207 11.8045 11.4434
14.5092 27.9693 27.533
42.8321 16.2511 13.8644
1.05976 8.3282 5.04029
18.177 13.839 16.969
52.5016 69.4135 50.2092
2.72825 12.7068 15.8472
0.201053 24.4406 54.9233
215.579 110.951 63.2319
18.854 34.1365 36.8333
73.6225 33.6099 22.9556
27.9761 32.5353 31.5853
12.7388 58.1937 80.4282
156.448 61.536 25.5152
40.2776 33.9694 38.7924
24.9456 7.58071 2.38677
5.93266 13.5995 18.1786
89.5451 52.0498 38.5937
3.21665 5.57445 1.43242
9.70145 25.228 35.0655
119.38 71.9979 52.6276
19.261 38.365 36.7276
49.4131 9.75126 1.33712
82.8684 59.8468 49.4734
10.9578 14.8671 20.6836
37.7079 57.1462 40.4142
16.8252 31.5829 52.5945
64.2512 31.837 23.3536
35.0059 4.14102 3.11144
78.2351 38.7668 17.9769
48.784 39.5313 30.867
56.9337 29.3486 20.2594
15.1338 7.89367 2.50489
91.9596 98.0845 101.169
59.3724 52.1943 78.0968
31.6296 16.1838 5.0762
0.963065 3.13342 3.21512
2.69824 6.02229 17.7164
273.033 259.386 239.084
11.1657 6.88454 16.8607
61.6595 33.3373 22.6199
29.6213 33.8925 53.0617
33.0413 36.4854 23.8033
7.93001 19.8777 32.8074
11.6844 2.52749 14.527
217.291 219.697 256.592
229.931 193.47 127.119
8.69558 16.4738 43.5259
61.8025 62.6544 52.3904
28.085 17.2293 26.5044
8.97254 13.1249 5.28216
15.4858 23.5127 40.7877
55.1699 69.8491 52.6534
50.1937 27.6198 31.4987
4.99031 7.19275 4.81962
7.74082 15.0464 7.05037
2.49401 18.2241 21.4541
28.8286 12.9444 10.9768
10.4425 17.6636 27.9208
59.9505 58.2137 61.1171
22.5589 24.9645 17.7852
14.1027 40.8204 60.9935
155.302 132.282 143.187
37.8698 27.308 16.8386
3.30007 4.31008 0.741988
18.2941 46.069 57.6877
130.664 159.188 141.421
2.09841 12.617 27.6379
7.78425 24.005 41.9141
126.778 106.011 106.825
61.6804 90.0699 83.3221
19.5991 41.8763 52.1002
24.1322 32.8439 67.558
26.2111 2.76361 11.9652
113.181 113.97 108.258
51.2622 93.1519 120.132
48.9733 19.7995 5.85494
36.9858 54.4235 64.8808
35.6461 107.324 186.751
149.434 80.0126 35.7064
23.1938 40.4303 70.8122
53.3712 24.2174 21.0308
13.3981 2.88394 3.14303
35.7935 36.6765 44.2423
79.2594 76.5699 89.2206
34.8547 4.17773 6.74439
153.139 123.191 93.5419
76.2186 131.429 181.561
10.7757 20.3428 45.0854
34.7233 17.3195 10.5952
61.6778 88.5573 125.801
13.1702 9.4429 33.8915
37.7593 6.98621 2.73085
69.6899 35.8517 22.208
5.2742 3.00922 15.039
73.0172 43.092 19.3091
109.182 137.721 183.132
27.0172 30.8726 34.6359
6.73436 17.032 28.3157
19.233 35.2742 42.238
51.2339 25.4036 17.7465
2.90413 1.321 4.16559
39.9976 70.8348 101.137
85.6114 71.3443 93.5552
27.4872 38.6867 37.6958
9.63495 1.38148 3.74127
40.1918 76.2173 131.402
77.3596 32.6105 8.04535
32.1529 23.2686 33.903
157.565 203.368 295.183
68.1601 63.2071 88.8566
27.9407 27.7641 26.9973
12.9633 39.7716 61.1433
31.7877 7.163 18.4585
73.5177 71.5275 48.0967
4.34527 20.9541 35.7
53.2805 32.1326 15.2888
3.75622 3.15169 33.586
122.566 148.147 102.353
45.4048 78.5855 107.368
11.9654 55.8741 103.368
36.7383 13.684 6.09385
11.4099 3.15623 2.84989
23.2693 17.1986 17.8327
2.89871 6.26098 8.4161
60.1036 89.4406 159.563
51.6574 41.8497 15.4152
8.78575 8.56757 20.5148
12.469 29.0722 38.7504
62.2969 66.1085 34.3059
40.5554 121.903 156.728
33.5269 21.9182 31.0277
9.51376 56.1318 142.861
99.1586 97.2637 64.9287
9.53696 71.3272 125.332
38.4312 54.2973 108.465
24.1145 9.43586 27.2758
43.7446 11.862 7.27011
24.5803 8.70049 1.02437
34.5867 45.7817 63.3595
17.0241 19.0245 15.5908
8.96019 29.5464 74.5856
45.9673 65.1341 118.909
103.853 63.0815 39.7096
19.7981 5.55609 16.9761
107.064 100.413 78.556
26.269 39.713 80.6577
58.6544 82.7139 124.476
55.3515 103.526 226.418
173.938 248.772 254.783
22.1259 1.61478 3.25216
38.2463 37.015 42.5508
22.3032 39.2671 82.3658
21.864 16.038 1.70023
24.4339 78.8977 136.783
52.7275 46.2714 56.8093
50.118 25.3198 20.1117
79.6899 96.215 102.53
18.8721 33.7418 87.4991
24.4616 55.4129 82.5475
51.3893 54.2625 65.784
20.5262 27.9137 48.8872
8.57105 18.905 10.648
7.96709 46.8411 102.687
71.7035 76.4314 102.482
23.2171 10.1896 10.5589
1.91992 9.2205 12.2361
0.934134 32.6898 134.628
221.417 292.995 345.077
8.3061 0.723952 10.0159
5.57618 0.671301 1.22025
3.43887 1.9099 3.06585
39.3519 109.82 242.917
67.3554 21.5288 12.2053
90.9013 101.759 113.195
6.5285 14.3552 46.927
9.61711 7.45463 19.092
21.5369 57.5612 84.2857
48.7273 88.0801 86.4843
1.89764 21.992 57.654
22.8132 49.1544 139.663
105.02 195.644 273.88
51.704 50.3266 103.367
30.4805 0.892111 18.1894
66.9001 35.2937 10.2653
75.4439 132.7 171.22
3.85251 44.6181 177.118
88.972 53.3395 42.5954
9.88793 30.5982 85.7499
65.7317 56.3052 64.2742
48.4932 55.2476 75.7649
31.2096 10.2782 13.0746
57.4305 46.3095 28.7898
35.2179 39.7526 47.0167
28.4683 41.2253 46.9746
6.16102 19.1815 56.0313
4.61411 2.43806 34.4159
45.0889 39.776 57.6688
24.2068 94.0445 268.136
201.794 173.281 103.989
33.3846 66.2446 148.313
108.186 160.844 143.51
14.5378 30.5916 61.0563
14.6681 43.9352 75.1136
5.37065 0.660606 0.857016
40.9292 112.048 244.931
35.3326 19.4671 6.7443
7.25246 10.6064 14.9214
33.5544 134.021 238.442
37.3767 10.4448 29.2611
11.8891 3.18032 42.6226
56.8672 26.3821 3.36417
25.5655 15.8816 8.41892
25.9922 38.2511 98.3217
72.5011 57.5539 29.1861
28.7684 25.0158 11.8402
35.5835 32.4946 9.95978
37.703 41.3514 24.0765
71.9637 119.495 129.658
36.1023 122.413 250.933
0.928572 13.593 91.386
14.9899 10.4504 13.0292
26.9414 22.8293 11.337
19.7428 32.1898 50.0804
5.62756 5.31092 6.16564
29.7273 67.2259 130.109
4.58452 43.9941 185.154
50.496 47.8738 13.595
2.48843 4.08613 1.96224
16.6946 29.041 52.9065
33.2456 39.8722 65.8467
64.6139 127.384 226.815
9.29664 6.04919 7.67404
3.92457 9.15551 50.4858
32.0622 87.7433 115.318
13.4624 28.0467 83.9223
7.86026 2.29292 27.7751
29.6848 48.3988 150.836
58.7229 91.9551 71.8312
0.630051 28.4048 76.394
24.4162 18.7668 18.8984
26.3205 33.698 38.0362
9.16035 33.5839 113.885
19.0035 17.2602 94.6096
63.2989 100.634 74.9225
21.5538 97.1159 215.356
37.6727 11.6906 3.9334
32.9686 45.1151 65.4548
8.11328 31.7742 85.2471
38.3884 71.8895 117.544
25.3949 60.4826 151.092
57.7715 36.2548 9.52395
41.492 75.8356 142.773
29.7531 36.8352 44.7484
32.8305 96.8716 246.601
28.3523 46.8698 54.871
35.7755 63.9361 121.363
28.5554 21.8011 17.9202
5.70318 3.55801 5.0207
25.467 44.0934 110.899
27.8506 12.4125 3.67552
95.9484 179.759 248.184
4.84566 22.1986 71.7654
7.90344 13.9759 26.9988
20.1352 80.8799 281.028
34.8693 43.8262 64.3373
14.708 22.6648 33.4581
0.029254 0.985724 2.70695
6.67999 30.1642 91.3177
8.50026 4.59923 32.6011
6.25039 12.9676 10.0189
0.565603 4.38891 27.574
9.38841 3.48741 9.02235
22.9386 28.3977 34.3973
6.92031 18.5724 76.4169
6.00645 4.08242 59.6589
33.9964 62.2878 41.1913
9.44553 9.58636 0.49421
19.9077 38.8976 30.3797
13.8946 61.1761 124.134
7.65496 2.51075 32.4857
57.8841 144.898 348.669
22.3025 9.3688 7.0398
1.29752 9.18487 80.7975
33.3905 52.7643 31.099
16.6816 56.1133 85.5794
22.0961 91.0865 165.878
36.5286 40.8769 44.9837
15.1961 33.9182 61.3926
5.26576 45.0231 94.5042
5.19012 17.5341 68.6134
17.6978 13.1505 47.0197
45.6764 58.9306 94.8038
0.578134 0.688553 4.19592
6.33081 15.1935 38.6924
3.85052 4.43014 36.9907
32.6965 110.493 170.6
1.17307 22.0469 150.716
67.9812 69.8012 74.3732
2.21249 9.95382 23.9496
6.19027 20.081 32.9026
9.88252 29.1238 104.021
49.5466 97.3669 181.586
13.8207 36.3514 76.9661
10.8554 0.236981 6.71011
11.1569 3.20726 5.20263
0.636588 19.0749 76.8205
17.654 1.4772 13.7581
32.446 29.7887 39.4869
14.0786 9.38236 1.63264
14.8393 21.6297 37.7727
17.0344 7.02087 5.07918
66.8661 170.013 333.521
11.7107 9.16859 6.79293
1.20714 2.31858 24.3458
30.4981 39.0497 42.0189
11.7041 29.3316 57.0269
9.06541 32.1022 85.2588
1.32795 16.1848 80.7026
11.2463 31.9761 144.451
15.0501 16.2222 2.24553
0.00656444 2.47509 45.2545
33.9028 84.763 129.014
4.36654 22.7258 82.446
14.8516 18.6335 7.02795
2.10816 13.0029 24.2583
2.65966 9.58821 91.9876
44.1466 61.7555 33.3733
3.92258 30.9625 59.8303
8.82844 15.0879 43.9584
6.6421 2.60492 12.3056
2.349 14.1277 148.83
86.9026 268.168 541.359
89.9042 99.1026 152.706
8.52997 46.7919 165.561
31.3582 20.518 6.06362
3.29385 2.26343 44.2077
27.8433 24.3166 43.737
33.8549 64.0833 63.3038
3.15849 6.94491 24.8959
30.6924 43.3614 37.8897
18.2031 85.5469 290.63
35.7425 79.6175 115.023
7.7546 16.9062 44.8202
21.42 34.485 63.2006
18.5751 64.049 176.418
12.6905 52.4999 124.265
10.7587 11.3092 10.6214
0.590418 24.7959 149.924
44.753 71.8677 99.1673
9.67445 7.46891 13.7073
0.243175 9.82796 83.3589
35.9514 45.2398 43.7181
0.185149 12.3575 71.7613
31.1449 35.8644 32.7822
11.8223 19.3223 45.9948
12.0112 16.887 18.9949
0.703371 3.59512 70.6238
45.068 136.557 190.033
6.93366 42.4779 184.942
20.1546 3.30712 15.1337
31.8799 52.8111 116.447
2.83677 12.4292 61.1043
22.3165 21.8224 23.0726
6.38567 10.7213 10.5981
20.4766 57.3391 160.539
6.76194 2.392 15.9553
8.61674 30.0312 39.2418
2.42901 37.5607 165.198
53.4235 144.768 288.151
35.519 24.5358 63.9193
31.2353 41.465 54.9464
7.46903 19.447 56.1581
0.612098 12.5466 113.411
68.9896 145.851 309.562
18.3789 17.8071 1.22091
14.1246 31.692 66.9471
2.65975 15.0273 35.2628
2.33648 22.6367 84.5449
29.3256 67.4975 162.183
21.1009 65.0584 188.967
7.25412 0.420251 31.7458
4.96021 10.6989 33.9054
5.47702 14.6173 46.8162
7.31558 5.96842 11.3612
12.0651 46.1319 59.1762
2.86494 5.66058 21.7352
29.9291 154.477 296.581
12.5373 14.5582 44.8431
0.798053 43.8497 286.286
45.3263 12.8987 27.7282
41.4501 52.7578 20.4036
12.6429 20.949 15.2945
11.833 53.9141 241.832
41.9796 69.1007 68.6832
1.16033 7.38823 37.5536
5.57353 27.4135 108.29
45.4381 86.6298 91.0508
26.8349 146.604 274.299
6.90292 12.6148 92.922
8.89356 2.66482 35.3648
9.29573 15.1149 53.0245
6.99608 41.1754 98.6561
16.979 36.1993 83.6014
17.7875 32.6842 96.9368
4.29168 12.8492 2.88863
0.588451 10.202 19.1419
1.23873 22.9924 92.5836
18.4572 20.5316 63.0097
28.5857 38.6483 28.4041
20.9496 65.6891 145.442
2.00957 8.97206 75.6281
12.6493 44.6282 124.451
4.76544 10.0163 274.516
103.298 231.323 240.75
0.762266 8.26034 20.0277
2.89542 19.543 39.5184
2.20937 27.1738 85.077
2.04288 1.03118 54.278
27.3839 101.054 129.43
2.52269 39.6474 67.3183
0.777501 40.3611 156.541
8.26075 8.40912 138.592
46.9248 65.9101 119.677
17.4413 41.8199 24.4038
9.98573 82.1695 194.262
4.80344 32.0137 196.896
9.58333 17.9899 149.248
33.8225 49.0331 59.7229
6.32572 22.2553 56.2597
4.19884 7.9597 12.5494
0.652991 10.4437 81.4114
40.3771 130.789 332.529
36.8203 34.4482 40.0674
21.3158 172.985 568.328
17.4424 6.18562 225.78
19.1485 7.19774 237.044
69.8253 102.359 87.0424
24.913 71.398 153.285
40.5754 42.5118 13.8863
10.8768 33.0205 50.5673
5.61955 25.9626 130.099
8.33977 12.2114 5.42298
3.06913 14.444 62.5012
12.2816 46.6139 84.103
9.81737 8.93884 76.184
17.3718 94.3804 241.948
19.0439 2.88041 20.1522
12.5811 15.3182 47.1497
39.2361 99.3448 201.378
6.66499 2.37714 7.80743
11.8292 23.3389 68.8435
2.18452 23.5804 98.4079
15.9669 30.5282 52.3388
15.204 19.8688 33.3835
1.98127 1.79097 5.98825
0.453043 11.5341 66.0596
15.6415 23.3851 31.4275
1.6041 4.21041 30.8526
15.7801 29.6428 52.2606
3.60781 21.9424 37.6959
4.4157 20.5241 155.442
23.0835 50.3004 60.9604
6.08035 9.6625 13.1747
6.64297 37.4968 168.717
4.73621 2.55808 110.673
25.4813 86.1921 95.4833
3.49104 5.88963 51.1367
15.3906 23.2585 63.5365
5.20063 9.22117 38.8918
5.80845 34.5981 185.153
22.2157 69.5235 80.9339
4.90968 4.47605 5.3163
5.55856 76.9066 357.318
45.9659 40.6757 1.66318
13.4524 63.7632 109.472
1.29393 22.0175 85.7393
6.25524 0.513769 35.8204
11.7734 16.5656 21.1803
0.543867 2.54648 20.8195
4.2387 10.5581 16.5105
3.84671 9.23742 78.5487
26.3578 88.7354 179.56
19.1103 25.0019 57.2984
0.094246 6.74826 76.1522
4.80844 7.03113 42.3068
4.30252 26.0318 63.2104
16.3172 74.0883 188.583
20.608 21.4359 40.1486
3.42805 28.3879 154.684
31.5898 93.002 177.184
4.38856 0.103358 16.374
3.21332 2.17657 17.2591
1.06817 7.71755 10.4838
5.48738 20.3462 73.6578
4.41715 38.7928 78.2878
7.07157 23.6932 98.6931
12.0432 36.698 226.749
22.4326 29.2448 58.9864
3.24619 14.7404 72.1521
13.51 47.333 65.4989
7.99721 2.91741 1.47032
6.524 18.2673 65.6115
10.0362 52.4263 80.6486
7.14752 43.9927 194.738
22.9385 42.2877 61.6368
1.05907 7.68601 65.9022
11.7536 34.6334 65.7329
2.9924 1.72841 4.67918
0.0978967 28.1084 205.237
48.6171 123.754 334.99
29.7683 43.3254 74.1881
7.54426 11.7975 14.9024
2.65978 9.82753 92.7836
9.9588 56.459 95.5336
5.68904 32.8415 61.356
4.1198 98.0948 442.393
48.2751 18.197 8.03743
11.7359 35.629 70.8996
0.725866 23.1717 158.724
7.35917 13.6634 313.414
60.0468 71.4766 13.1311
3.20076 14.1287 28.1717
2.93809 53.1123 168.745
16.9356 36.6683 336.445
71.5094 139.396 161.966
1.09717 0.50853 5.23214
9.43865 36.0675 178.387
15.3006 33.767 13.9575
3.54901 55.0216 182.538
18.7223 16.5148 120.187
21.5052 22.8358 17.134
4.36298 1.25124 8.14011
4.25034 7.43324 101.093
26.9908 45.0086 45.7022
1.50928 4.1356 40.3803
28.5252 69.6492 81.03
0.729184 30.4652 175.892
17.3416 20.5377 33.2018
0.116488 3.38378 21.2859
8.63414 32.9623 106.517
4.31856 18.9505 35.5983
4.30262 75.5201 313.151
32.8897 27.3725 29.1394
5.74533 4.40353 27.0709
16.5611 29.0086 50.5456
0.351894 4.23624 6.47779
1.58567 12.1704 60.5359
9.75412 10.3904 57.2178
3.76124 11.9373 28.1698
2.65623 75.272 407.506
41.8889 9.00248 207.077
66.4128 123.528 83.4543
2.15654 9.65054 23.6963
6.69915 5.64412 66.1775
24.9517 40.593 21.9274
2.66872 11.7557 53.572
25.8149 58.1098 49.6679
15.0493 98.4939 359.549
16.4115 11.278 38.5186
1.59878 1.67282 19.091
11.4063 17.9388 7.23444
2.02622 12.7367 100.669
12.8501 41.7687 44.2629
4.01632 13.5645 54.1673
3.01867 34.8228 274.663
39.0481 98.525 128.705
11.7389 43.0147 127.42
5.91143 7.86622 7.46773
4.68352 45.1352 228.77
7.02511 9.28967 105.828
7.14613 6.31627 68.5641
13.1043 35.0543 71.2057
5.54918 19.4481 9.20322
15.0402 95.2766 125.367
0.731676 26.9321 87.2951
9.07801 24.1241 136.481
3.93419 0.0110022 68.7666
14.1942 96.73 282.959
29.4473 28.2333 99.8627
13.7295 19.6433 1.7142
6.37008 50.9693 266.444
16.4068 73.5747 244.993
30.4219 57.9552 87.0146
1.37959 3.78624 60.8385
20.0417 74.3973 205.683
2.60202 16.067 338.583
36.8673 58.2442 6.15222
2.78982 26.4998 4.8926
5.6702 83.5046 252.039
23.3402 43.8607 58.178
15.6617 103.309 386.426
21.5439 7.53034 17.1147
8.55899 26.6391 41.2113
0.88382 11.7751 124.384
9.21001 14.9311 58.8143
7.88451 31.9782 25.6931
1.01925 17.9852 15.7967
0.170182 27.7761 69.5904
6.39169 24.2722 159.765
14.5376 22.7727 0.527991
3.4074 66.6785 244.122
23.9398 52.468 75.7109
2.43091 7.71035 45.7685
5.67589 3.22416 78.6987
16.7552 33.6335 134.844
13.9574 97.568 234.254
14.831 15.7887 168.628
26.8103 33.3033 116.845
21.0317 47.8779 85.4133
0.855209 24.5762 218.811
26.5236 81.1312 144.803
7.64273 7.69434 138.183
24.1905 73.2983 84.0985
0.334966 22.0575 166.571
10.9785 28.2805 32.7801
3.98082 33.5384 143.654
7.88887 0.0864067 69.0714
13.0253 94.9149 349.073
31.6489 17.5921 3.63577
7.95422 13.5847 6.07087
2.34007 32.554 173.759
9.98162 23.5233 186.635
24.5289 25.7295 59.5891
16.9394 46.8531 76.4899
13.4151 43.0979 115.939
3.61952 25.949 65.5248
12.675 55.3945 195.371
9.16715 13.3176 62.8554
18.8112 21.9902 3.50027
16.444 123.052 394.868
10.6369 4.37417 97.833
6.42696 23.579 44.234
1.90602 26.6901 102.699
5.69983 0.645833 66.8905
6.29355 18.6916 10.9177
2.61274 4.68714 135.516
20.2991 116.307 195.571
11.2079 7.37887 82.0306
8.54431 3.52285 38.5988
9.27676 18.4664 52.8552
1.82488 17.5135 51.0894
7.31287 2.82748 2.65838
0.317532 2.17139 19.8673
4.11512 23.5234 153.682
20.7961 23.4333 147.905
20.2131 45.3307 141.087
23.7385 119.062 115.504
3.4139 62.1698 325.238
19.1992 1.35607 72.7881
15.7848 35.4756 90.134
4.4724 10.7006 21.7411
4.27067 17.2616 38.39
2.64044 47.293 289.507
14.0203 30.0215 83.529
9.11939 5.19344 141.327
17.2993 46.7463 78.2579
1.49225 12.864 34.9942
5.6931 5.5264 55.8414
4.83512 55.2878 196.778
14.4706 5.23633 124.045
19.6326 6.73692 62.847
16.3947 30.2524 72.6185
9.3148 16.5458 136.837
15.0464 15.0598 247.887
52.9254 189.221 120.561
5.86738 45.0265 67.7098
0.61272 11.166 19.7755
5.53447 60.808 139.1
1.72117 28.5603 80.0532
9.24375 42.1238 144.966
2.6383 7.16854 41.6678
0.0910148 20.697 151.366
4.00866 0.975654 89.3501
8.46502 65.6859 409.296
37.8265 93.7192 53.3965
4.24467 17.7744 53.9971
3.53144 18.8975 36.2231
2.16036 10.9687 42.2853
7.25315 24.9007 148.676
15.1727 10.4666 3.05471
4.66875 19.1596 57.9151
0.509314 13.9027 37.8015
3.54326 0.271894 4.36586
1.99684 7.43976 21.0837
7.16372 10.8037 76.7692
18.3882 161.102 561.273
28.969 3.99088 126.349
15.6897 40.4284 13.8525
0.788259 1.98442 20.1894
5.05132 25.9136 52.1817
1.52217 7.6019 83.8427
10.3622 20.2902 92.637
10.8067 7.41728 11.9167
5.5412 56.3956 324.259
31.4976 45.0634 8.84111
1.82723 24.0836 93.6639
4.33545 3.53557 23.1178
4.51103 12.1956 1.87555
1.15588 11.9594 23.6252
1.53942 6.31592 106.249
21.3318 46.892 139.163
18.0607 95.0543 224.83
10.7951 22.1642 179.167
13.9043 58.8651 57.9058
0.0663062 26.0799 115.203
9.66464 12.6567 115.046
7.83934 11.5579 21.9632
5.70608 24.0444 73.8205
3.13356 1.08836 27.0877
5.04163 3.59303 12.7033
5.58675 41.1042 118.195
4.07859 11.0102 212.344
17.7768 8.90016 21.1937
2.35304 0.314304 157.871
24.9519 70.8381 145.981
6.69801 38.198 11.1348
1.48429 25.5795 99.5908
7.26577 11.9189 17.6208
1.02573 10.0058 72.3007
2.65891 5.4019 19.6607
1.50615 5.37125 79.7643
3.83368 49.5038 146.3
16.9042 15.7812 7.87042
0.720868 16.6586 166.86
9.75133 13.2932 60.0635
9.38357 49.0897 29.3465
1.81041 19.5202 36.1994
0.244191 19.7348 114.1
7.48467 2.67573 54.5807
7.75053 14.9503 36.343
6.96347 22.6588 164.699
9.73486 81.3993 246.986
15.4715 2.41658 139.19
22.5341 34.2474 3.65646
7.68141 49.9704 263.701
28.7892 73.3579 41.4476
0.906527 28.4816 78.7928
0.104759 22.1964 185.036
5.16947 6.16808 61.6117
2.67991 35.7232 229.418
18.6652 33.1543 215.081
10.9256 6.07621 115.891
13.3051 49.5855 106.987
5.44132 60.1883 99.2518
9.7335 1.20702 90.706
15.8273 106.735 167.573
8.38649 8.14395 76.0391
4.62135 55.5133 213.06
10.2142 22.5667 110.461
14.7016 56.3858 181.933
15.7181 22.8975 14.4967
0.746996 33.7892 136.929
11.7863 35.5383 126.753
14.2708 43.523 177.432
12.5685 7.66718 0.491254
1.3803 8.06876 235.954
28.5698 149.722 325.637
15.0481 5.20076 196.748
13.6371 23.1942 28.5843
3.75573 33.8205 50.1181
6.09111 20.1353 136.157
8.93096 64.3124 108.579
2.53302 23.1704 28.7231
1.79958 2.14336 60.315
10.0784 120.666 285.754
14.448 8.59435 130.58
4.33012 11.3552 94.5571
8.05585 20.534 104.602
14.9219 9.74557 7.95476
4.38017 42.0611 184.44
8.72989 69.71 352.655
26.3536 47.3842 138.068
11.3358 8.22236 300.219
30.5136 31.6679 27.8836
9.61995 55.2312 308.773
36.9393 94.4534 122.833
3.14772 2.81916 71.9392
17.0474 81.9642 237.276
4.71176 2.34695 74.2239
5.62727 66.8755 303.387
27.625 29.7459 71.912
2.05817 27.0379 43.6253
3.40911 28.2558 163.286
15.1153 0.855154 108.524
16.1681 6.50815 144.088
19.6025 75.8203 96.1076
6.44938 39.7406 208.198
11.6195 61.9569 181.233
16.2295 27.2643 42.6056
3.16024 10.3189 115.885
19.7632 51.5628 31.1754
0.989206 34.7758 203.46
10.0877 9.64122 24.7348
5.53327 2.1511 156.545
20.2541 74.9284 327.308
23.7854 59.4723 20.0741
1.14168 10.7562 71.3446
2.6846 12.1 66.7459
4.03617 6.84947 122.883
20.5504 117.08 88.9167
7.87348 52.7714 99.3331
3.05655 20.327 85.3903
3.95104 36.6227 256.865
9.71116 7.93448 93.1372
6.04488 49.7165 196.899
15.3022 36.4185 116.474
5.35473 35.7445 120.255
5.29128 5.90129 98.1371
3.5396 5.40349 72.2054
3.23981 68.7086 179.565
12.6867 5.76478 3.24381
1.70272 8.19729 61.7134
8.17524 23.8033 99.6242
4.33947 25.1558 149.418
5.6429 21.7928 2.73893
1.73676 39.1307 186.612
13.1007 4.03021 93.747
4.79815 31.2786 38.8396
3.60714 18.5613 189.467
22.3441 106.7 309.68
20.8507 6.82134 49.532
8.20622 80.5306 383.93
29.8686 32.8249 44.2755
6.05771 5.45392 21.3513
8.81852 28.0018 23.2744
0.288161 13.8793 120.869
5.11883 16.0348 24.0464
2.24633 29.7131 203.588
23.3949 32.4359 60.5712
7.9263 35.6601 36.029
1.54281 23.0943 135.645
8.17905 20.8994 6.00831
0.32487 29.0995 155.035
8.09506 17.3324 350.905
18.0438 119.835 244.6
14.8355 11.1304 46.1537
6.87746 6.76604 10.6864
3.8318 12.8984 77.7243
3.99158 19.8138 41.3079
0.262914 1.56445 167.758
11.1849 117.555 237.752
13.4975 2.57529 202.267
16.8378 43.4056 85.5847
1.37283 32.1516 216.776
16.953 77.3306 200.633
6.44548 9.47402 347.833
28.1974 126.153 119.847
4.34268 32.6254 634.21
58.3843 190.172 265.538
6.68057 11.6882 132.514
6.44897 18.867 4.74278
1.92601 47.9472 222.648
10.7282 8.91582 28.7914
3.62971 22.5899 156.064
9.46473 48.7191 55.8497
5.67043 4.43767 78.8853
8.20986 5.27202 4.35048
2.00807 10.6084 19.5498
0.0429117 19.4986 285.402
14.6747 77.3893 210.607
16.0079 33.7458 218.729
23.4062 39.5013 251.548
20.5086 94.7751 94.441
1.88741 14.2539 12.5743
0.787045 39.1525 209.642
6.53285 12.5392 21.0529
2.23978 0.785421 44.808
1.068 21.4021 89.1409
13.5966 35.5009 146.815
7.91174 28.8862 82.5207
6.33954 10.5658 55.5403
10.927 32.2808 124.543
5.02896 87.6789 340.62
22.276 16.4044 116.034
12.5046 55.8503 73.9094
2.11506 56.6424 538.162
28.4914 87.1091 122.58
14.8766 28.8607 95.3875
3.89812 24.4025 154.507
7.37187 7.71273 70.8269
5.84646 36.1405 53.7363
3.73953 23.6044 105.018
9.34986 26.2095 133.451
10.6251 22.6587 11.5673
0.658019 22.3125 203.353
9.02485 11.5305 25.845
0.469077 22.1506 67.1336
4.43661 43.7771 135.258
10.7529 2.13422 36.3749
6.68143 20.2279 72.5908
5.02393 23.8686 75.5766
2.10662 6.11239 44.4123
6.54048 10.5664 2.26473
1.32857 23.8498 342.571
17.9932 90.4845 108.504
3.49585 7.52596 16.4241
0.40683 36.9296 129.578
11.4275 23.3029 106.984
8.23003 46.4191 494.954
30.9919 29.3215 138.436
12.1277 83.1667 101.375
7.22646 4.65602 58.4037
5.16936 24.0677 80.6502
9.07372 36.3208 87.7682
3.46415 36.8659 138.078
6.03079 13.1103 280.84
12.1581 58.9622 66.8062
5.12307 3.2928 19.0124
0.556911 18.3882 82.3126
3.06576 21.5623 44.7837
4.26186 7.40495 176.419
14.5767 39.206 6.08604
3.20951 41.6143 91.3948
2.3047 32.7099 296.721
16.6211 8.7994 173.792
5.91488 43.8987 11.9526
1.14754 2.39503 68.5902
6.4709 49.9132 78.9768
7.59723 0.564218 37.3925
4.96379 49.5224 410.358
24.5967 86.8575 74.9326
9.17089 69.3408 192.221
14.8096 0.989601 21.4233
0.90436 13.8911 126.038
15.6378 6.66361 7.01236
2.42302 2.05046 45.2664
2.99288 8.72102 1.07202
1.82705 2.87072 117.06
14.3741 42.106 100.564
10.1163 63.0405 136.867
2.94786 28.5516 207.261
7.75123 16.5531 148.326
6.32471 13.2753 42.3215
0.531057 36.7484 88.9671
10.4967 15.302 85.201
3.42411 21.8506 74.8215
6.80528 31.6342 121.511
14.8883 35.9041 121.646
4.57586 8.73923 123.45
9.57071 71.0099 100.428
8.08918 1.98526 2.36762
0.670793 6.5012 42.8123
0.881996 21.8199 134.025
12.3792 9.77382 155.646
14.3519 37.024 62.2831
9.05894 56.2612 306.531
9.97537 39.4586 30.4393
3.68238 2.29007 117.13
4.62074 109.521 338.332
32.1004 11.0814 19.7641
1.08347 19.2773 60.3717
5.33752 20.6249 525.294
49.1682 71.8028 48.2355
6.40899 30.4138 16.3888
2.80594 76.1102 207.736
7.83741 7.22625 4.57385
2.16756 13.7702 47.6888
1.17022 1.2742 32.0051
6.74414 64.0427 198.754
5.64342 1.64431 82.9074
2.95984 7.16474 170.621
5.8657 22.2525 5.38409
2.3895 13.9933 171.778
8.09776 81.3467 113.899
12.9509 5.30726 47.7325
1.21251 10.3947 144.578
11.0223 19.4627 30.7453
0.967972 13.9686 20.7634
1.98978 0.343875 5.00147
0.00335071 3.57073 2.03026
1.69262 0.545256 21.1327
3.53155 10.0581 0.927348
0.27563 12.1763 83.4951
3.01229 3.97487 11.0306
0.414297 3.66523 155.773
6.9061 69.1196 95.0996
9.61838 1.83578 92.0494
13.5582 43.1448 122.624
4.33662 3.31309 35.0655
1.11313 52.8281 238.563
19.4088 15.1365 1.12736
1.18867 1.47979 39.0733
5.23298 38.0507 235.008
8.48161 16.2998 96.5539
2.52367 57.7016 152.46
12.8024 24.032 232.363
8.4028 33.7973 65.2787
8.5818 10.3747 2.4329
0.225681 2.70139 133.844
3.27971 72.7535 28.0978
5.18955 39.7285 267.994
21.3214 5.66905 45.1373
4.92823 16.1226 103.224
7.12943 59.2184 343.404
24.0763 21.8715 234.915
22.4833 66.4884 41.5219
0.311301 1.99107 34.4049
3.27636 1.02465 234.883
13.4693 40.9074 67.2528
8.2526 125.366 184.229
9.58185 2.17569 17.821
3.32913 2.63148 78.0655
11.5784 26.7793 78.4134
5.78175 95.6284 444.917
20.133 27.8359 8.09685
3.78812 0 0