# pn-170911/RbIIR-44-RbIIA-1280-1959.psd
# Power spectrum* (dif=0,1,2) (really just |FT|^2)
# NOTE: only the first half! (symmetric)
# weeks: 1280-1959
# 4086 clock-days, 139 excluded
# PSD: 1441
5950.18 0.181365 0.0292625
606849 12.8742 0.0279266
1.80314e+06 33.6549 0.0274479
355127 10.9995 0.026338
212233 11.7974 0.0285691
106443 7.56463 0.0276535
71637.3 7.65162 0.029712
47630.4 6.71541 0.0302415
38321.3 6.73716 0.0304627
28193.7 6.3577 0.0304692
23974.3 6.42943 0.0289907
19273.1 6.13913 0.0302242
15942.5 6.15087 0.0336545
13497.6 6.04795 0.03415
11905.9 6.24373 0.0334935
10204.6 6.04175 0.0341445
9120.83 6.10093 0.0337861
7965.35 6.14736 0.0359704
7200.94 6.19774 0.0353293
6233.06 5.86404 0.0370748
5874 6.23961 0.0393499
5286.65 6.20663 0.0412741
4944.39 6.58328 0.0423499
4543.41 6.41268 0.0428902
4232.84 6.69952 0.046902
3846.49 6.69039 0.0470415
3580.02 6.66186 0.0479751
3325.25 6.73171 0.0507463
3174.3 7.05315 0.0551666
3082.98 7.45137 0.0599417
2889.13 7.39065 0.0607193
2738.43 7.49468 0.0619654
2537.81 7.62382 0.0669071
2419.1 7.8047 0.0680024
2318.07 7.70266 0.0692909
2261.63 8.14547 0.0736858
2172.57 8.5035 0.0801359
2054.57 8.55207 0.0840883
1962.85 8.57401 0.0848543
1864.98 8.60205 0.0898252
1799.8 8.84064 0.0958243
1745.17 9.234 0.103377
1658.69 9.29912 0.108061
1668.92 9.54123 0.111931
1560.21 9.40227 0.113243
1487.46 9.58062 0.119924
1417.24 9.57793 0.123459
1400.96 9.90024 0.133038
1407.91 10.4127 0.141143
1331.98 10.2477 0.144961
1273.74 10.4055 0.149605
1270.28 10.7977 0.160706
1259.4 11.2274 0.173088
1197.42 11.1491 0.174496
1217.44 11.6752 0.190121
1139.62 11.5131 0.19382
1114.56 11.7405 0.202056
1066.37 11.4493 0.205239
1039.42 11.8711 0.219569
1039.11 12.6306 0.237085
990.902 12.3043 0.236586
967.526 12.14 0.239161
969.063 12.6354 0.260018
903.239 12.171 0.256429
912.102 12.6752 0.275499
902.993 13.25 0.293847
864.351 12.9968 0.298243
855.742 13.276 0.310322
800.475 12.9957 0.309328
825.471 14.0117 0.343152
814.152 13.894 0.350937
778.968 14.0164 0.365324
770.768 13.919 0.371514
736.013 13.7589 0.375203
722.42 13.8306 0.383567
704.793 13.8779 0.396331
714.229 14.3109 0.41838
681.953 14.4738 0.432861
672.657 14.6654 0.450884
650.235 14.3564 0.457006
626.945 14.2255 0.46339
616.008 14.2599 0.469972
619.874 14.8785 0.499901
598.665 14.7482 0.505084
572.867 14.5037 0.506608
593.1 15.0691 0.539871
573.851 15.4916 0.569554
553.597 15.0583 0.563297
547.651 15.0061 0.574501
533.708 15.0599 0.592571
530.457 15.2431 0.61223
525.767 15.8025 0.649167
497.128 15.1329 0.639876
489.195 15.2013 0.647444
468.041 14.7458 0.646645
479.529 15.739 0.699009
615.311 22.5547 1.00301
459.183 15.7017 0.721532
443.447 15.2305 0.714523
427.593 15.1665 0.729138
434.898 15.4178 0.754266
444.164 16.5649 0.832102
450.4 17.3548 0.878872
421.591 16.3108 0.847521
413.191 16.2053 0.864087
406.913 16.5385 0.883474
391.047 15.9793 0.874382
391.8 16.1542 0.899034
383.056 16.4525 0.9317
384.73 16.5538 0.959731
377.655 16.7821 0.984722
361.527 16.2053 0.968001
363.425 16.818 1.02203
378.568 17.8979 1.11173
374.518 18.0521 1.13233
353.905 17.5481 1.13024
343.355 17.1995 1.1217
327.215 16.0976 1.05799
328.137 16.9379 1.1417
321.646 16.5362 1.12707
325.755 17.2462 1.1935
324.853 17.5395 1.23503
301.096 16.5353 1.1826
318.451 17.94 1.31277
311.114 17.298 1.28138
302.895 17.4778 1.3118
302.073 17.7571 1.35809
294.729 17.3211 1.33482
284.758 17.2822 1.36668
285.067 17.4634 1.40289
285.512 17.6936 1.42035
281.076 18.031 1.49794
291.337 18.952 1.57816
277.765 18.1381 1.53342
266.874 17.4808 1.49991
261.857 17.8231 1.55484
261.529 17.9606 1.5815
263.458 18.4738 1.65585
258.509 18.3298 1.65683
247.284 17.5024 1.61706
253.612 18.6225 1.75293
249.472 18.6369 1.77686
237.449 17.8418 1.71085
247.002 19.2583 1.87844
241.396 18.7527 1.84715
231.273 18.0349 1.81068
230.809 18.6896 1.90071
232.465 18.7374 1.92844
224.592 18.6092 1.95038
230.036 19.0381 2.00759
238.383 20.2593 2.18212
220.555 18.863 2.03289
219.061 18.9438 2.08498
218.642 18.921 2.10344
208.801 18.4757 2.0823
215.02 19.6402 2.25215
213.794 19.459 2.25595
204.823 18.7828 2.20054
216.386 20.349 2.41817
201.253 19.2592 2.3137
195.958 19.1021 2.31433
200.317 19.7582 2.44878
199.409 19.7393 2.44975
195.771 19.9142 2.51904
195.011 20.0022 2.54917
186.241 18.8723 2.44304
188.908 19.7361 2.59864
187.195 19.893 2.63861
193.184 20.2721 2.72852
185.054 19.9914 2.68765
177.834 19.336 2.64223
179.951 20.1431 2.78736
187.008 21.0207 2.95422
176.229 19.6908 2.7835
175.818 20.3399 2.93895
181.779 20.9956 3.04585
170.859 20.0912 2.92844
171.123 20.2426 3.01167
167.596 19.78 2.9594
165.388 20.2194 3.06637
167.215 20.5443 3.14411
166.056 20.6761 3.20519
166.472 20.8125 3.24761
164.626 21.5082 3.45343
167.18 21.4408 3.39761
161.106 21.3064 3.45444
165.028 21.3334 3.45289
154.94 20.6694 3.42419
156.844 21.0195 3.47841
151.113 20.1367 3.39956
146.508 19.711 3.35764
152.06 21.6242 3.7984
244.85 37.6376 6.38945
147.008 20.9298 3.65935
143.279 20.5439 3.65785
149.231 21.7378 3.92032
146.32 21.4408 3.8715
145.518 21.2751 3.86658
145.561 21.6548 3.99883
142.115 21.4102 3.99397
138.314 21.5945 4.09708
139.417 21.5328 4.08795
141.295 21.6917 4.13788
136.605 21.5783 4.22092
139.529 22.5668 4.39369
133.14 21.2557 4.21579
136.83 22.1494 4.36421
130.949 21.4487 4.32033
133.753 22.2631 4.53026
132.549 22.7151 4.70159
131.72 22.0186 4.52279
126.358 21.857 4.59313
125.682 21.8022 4.56101
127.721 22.1419 4.70457
126.466 21.9702 4.74482
125.296 22.3333 4.84685
123.639 22.4561 4.91358
127.11 22.5769 4.9809
120.253 21.7496 4.82083
124.026 22.9731 5.15093
117.842 21.8137 4.97642
121.466 22.5025 5.15537
119.971 22.8889 5.30539
120.159 22.8257 5.29689
118.147 22.5498 5.2783
119.047 22.6809 5.34768
116.775 23.2377 5.5483
114.717 23.0198 5.56878
115.014 23.4035 5.75034
119.478 24.0869 5.87474
112.985 22.7725 5.54353
107.815 21.7828 5.42877
110.906 23.0607 5.8049
113.151 24.0492 6.1698
117.536 24.4623 6.16995
109.115 23.1401 5.99349
109.809 23.1571 5.97232
106.033 22.513 5.90784
104.642 22.3506 5.91737
105.71 23.5691 6.30587
104.956 23.2685 6.22794
103.914 23.1594 6.27555
103.574 22.8151 6.29374
102.647 23.1691 6.36401
98.5192 22.9257 6.39924
102.68 23.8216 6.64007
104.02 24.3903 6.85531
100.604 23.3347 6.61599
100.342 23.6057 6.69819
100.288 23.3051 6.70837
96.9906 23.3682 6.82585
97.2632 23.3039 6.82532
97.8404 23.8541 7.10426
98.4787 24.0393 7.12108
93.85 23.1082 6.94121
97.6532 24.1673 7.29333
96.398 24.008 7.24261
94.3958 24.4534 7.537
94.4156 23.9613 7.39286
93.94 24.0653 7.55108
94.9035 24.5784 7.7209
91.3957 23.719 7.44077
87.9779 23.3117 7.46692
90.1638 24.2382 7.82661
90.8108 24.3243 7.79301
89.3337 24.0435 7.84812
89.0438 24.0559 7.77813
85.5932 23.263 7.7249
88.612 24.29 8.12394
86.0578 23.7071 7.91166
85.9523 24.175 8.18295
85.2435 23.8296 8.10472
86.3084 24.379 8.28646
84.3077 24.3018 8.44617
85.1674 24.383 8.44255
83.9187 24.3033 8.50195
84.9306 24.8733 8.76107
83.9108 24.5212 8.64228
81.4076 24.0846 8.60198
79.8588 23.9116 8.60854
84.132 25.3093 9.09652
82.1966 24.7529 9.06372
82.2958 25.3217 9.31245
78.7815 24.2417 8.92112
77.8291 23.9736 8.97119
77.1524 23.7934 8.95151
75.2843 23.7235 9.07626
77.2214 25.0462 10.0099
148.417 50.2503 18.2007
77.7724 25.1149 9.81891
74.9703 24.4182 9.56656
74.7158 23.8907 9.45056
75.9808 24.779 9.66006
75.0449 24.851 9.76207
74.4299 24.8738 10.0021
75.6149 25.0824 10.0395
73.4208 24.6921 9.93454
74.8634 25.3585 10.2626
73.4619 24.8953 10.148
71.8642 24.5761 10.0932
72.648 25.4302 10.5918
70.7137 24.3829 10.1681
72.1001 24.9713 10.3916
70.0307 24.6941 10.4785
68.2413 23.8821 10.1834
70.282 24.9816 10.6637
69.5306 25.1248 10.7219
68.4849 24.3373 10.5631
67.8122 25.1102 10.9296
67.7224 24.7856 10.9321
66.3714 24.4458 10.8184
67.9324 24.5607 10.8784
68.2558 25.6045 11.4293
66.4187 24.8456 11.1566
65.2104 24.3298 10.96
64.9165 24.7985 11.2792
64.7135 24.677 11.3775
64.7182 24.9249 11.3781
64.7192 24.5986 11.304
64.698 25.3452 11.8683
65.6911 25.7266 12.0349
64.7241 25.5642 12.0051
64.1016 25.3395 12.0783
63.3815 24.9693 11.8425
61.5144 24.7422 11.8966
61.3975 24.753 12.0081
61.3099 24.6404 11.9838
61.7654 25.1613 12.23
61.0562 24.9215 12.2195
60.0748 24.619 12.2544
60.7776 25.2712 12.4938
59.5043 24.7922 12.4567
61.9284 25.7048 12.8649
59.221 24.7744 12.601
61.4418 25.7063 13.0015
58.8262 24.6144 12.5263
58.4473 24.8203 12.6962
57.5653 24.8162 12.8003
57.4608 24.8183 12.9543
56.865 24.9467 13.0653
56.8382 25.0637 13.2538
57.4794 25.4915 13.5512
57.1462 25.2845 13.4151
56.1848 25.3921 13.6434
55.8822 24.9778 13.3864
55.4997 24.8718 13.4858
55.6967 25.3503 13.6376
56.0102 25.5476 14.0649
56.4621 25.7843 14.2588
55.5632 25.2826 13.92
55.6935 25.2034 13.8904
53.8652 25.5277 14.1884
54.3007 25.1254 14.0831
52.6171 24.7762 14.0884
52.9739 25.0166 14.1671
53.7204 25.7561 14.7256
52.7231 24.9214 14.2452
52.205 25.2193 14.5839
51.6511 24.8869 14.4938
53.0138 25.197 14.5869
51.3425 24.9802 14.7294
50.842 25.5854 15.1874
50.8769 24.8864 14.752
52.0625 25.8356 15.3551
49.8277 25.0571 15.0095
49.6512 25.3331 15.2796
50.5823 25.3376 15.3759
50.1624 25.0322 15.0879
50.4756 26.2395 16.0502
50.6761 25.5533 15.7841
49.1217 25.2966 15.5388
48.299 24.9608 15.5658
47.5854 24.6246 15.2975
47.669 25.3451 16.0917
49.3168 25.6869 16.0383
47.4233 24.6695 15.606
48.5617 25.8738 16.4114
47.7034 25.7849 16.394
46.8326 25.2682 16.2864
46.9164 25.0213 16.2092
46.0628 24.9964 16.4555
46.5839 25.5061 16.7412
46.2534 25.1364 16.6864
45.5207 25.643 18.529
94.326 55.4214 33.5639
44.9189 25.6279 17.6172
46.197 25.9024 17.5018
44.6069 24.88 16.9063
45.7294 25.6618 17.307
45.434 25.2505 17.2244
44.2501 24.8791 17.0602
45.4332 25.441 17.2548
43.152 24.8167 16.9807
43.5028 25.3695 17.5371
43.656 25.2146 17.6229
43.7525 25.6099 17.9463
43.8175 25.7422 18.0811
43.6329 25.2743 17.8355
42.6501 25.4091 18.0433
42.9398 25.481 18.0707
43.625 25.9074 18.5064
42.208 25.3934 18.1301
41.2171 24.7381 17.9802
42.5728 25.707 18.5873
41.9596 25.4431 18.488
41.8026 25.5168 18.7213
41.3423 25.088 18.343
40.534 24.9462 18.4738
40.752 25.1175 18.5839
40.3759 25.1511 18.7703
39.9023 25.0753 18.8959
40.3589 25.0057 18.6759
40.1355 25.1404 18.8243
40.4897 25.449 19.5813
38.6115 24.6678 18.7044
39.3218 25.3237 19.6212
40.2204 25.8176 19.7338
39.6401 25.8536 20.0061
38.6205 24.9445 19.3907
38.8193 25.3337 19.7644
38.7181 25.3577 19.9565
39.2887 25.7952 20.3354
39.6866 25.9749 20.422
37.9076 24.9503 19.8152
37.4067 25.0878 19.8787
37.593 25.1453 20.2842
38.3619 25.7613 20.5631
38.2165 26.1523 21.1442
38.3276 25.3049 20.5081
37.3615 25.2835 20.4576
36.2872 24.6632 20.3246
38.5879 25.8869 20.9441
37.4471 25.9197 21.461
36.271 25.2115 20.9929
37.316 26.1083 21.6122
35.9725 25.4643 21.5144
37.0844 25.7484 21.5795
36.3488 25.3706 21.187
36.9728 25.9593 21.7894
35.8455 25.3543 21.6352
35.9409 25.6212 21.9216
36.101 25.7869 22.088
35.5955 25.5261 22.0102
35.6016 25.7184 22.1723
34.5904 25.0838 21.7641
34.8077 25.172 21.7794
34.7313 25.6135 22.5732
34.7464 25.2847 22.1865
35.3211 26.1133 22.9416
33.796 25.1158 22.304
34.8742 25.9363 23.0211
33.8588 25.3121 22.688
34.211 25.4511 22.859
34.5235 25.4296 22.784
34.1974 25.7681 23.112
33.835 25.5246 23.1356
33.1653 24.9624 22.7007
32.7829 25.0761 22.9179
32.9721 25.4979 23.3856
33.3575 25.857 24.1593
33.9684 26.0598 24.0568
33.3596 26.0284 24.2396
32.8141 25.3212 23.7967
32.3088 25.3696 23.7578
32.0325 24.6943 23.371
32.9352 25.723 24.3848
32.2252 25.2187 23.9536
32.1429 25.8191 24.8118
31.2894 25.2363 24.2023
32.7116 26.069 24.9261
31.7485 25.7023 24.539
31.2349 25.4161 24.5796
31.488 25.722 24.8648
31.5006 25.4983 24.9224
30.5527 24.3183 23.6721
29.9186 24.6955 24.4709
30.7197 25.167 24.9367
30.5806 25.1023 25.0398
30.024 25.3013 25.9851
30.505 26.4822 30.8556
64.3236 56.4084 48.6469
29.4188 25.1002 26.047
29.5774 25.0504 25.616
30.7942 26.0884 26.6079
30.889 25.6058 25.976
29.8154 24.898 25.3608
29.3451 24.7186 25.3719
30.0231 25.8869 26.658
29.2442 24.9653 25.6778
29.4751 25.0907 26.0573
29.3703 25.5807 26.4418
29.3146 25.5498 26.6272
28.4358 24.9858 26.4192
28.1185 24.5157 25.7874
28.8092 24.7524 26.1954
27.9742 24.4319 25.9738
29.2964 25.9366 27.1693
28.3913 24.9682 26.5755
27.8565 25.0589 27.0225
28.2931 25.3372 27.2636
28.6158 25.4817 27.3532
27.3927 24.339 26.4237
28.151 25.1835 26.8372
27.2711 24.9395 27.2475
27.3936 24.8906 27.4904
27.2818 24.9009 27.3011
26.6374 24.5215 27.0252
28.4679 26.0906 28.4812
27.1615 25.1947 28.0856
27.1125 25.0369 28.0342
27.5579 25.2602 27.8171
26.2538 24.7002 27.7087
26.9166 24.9391 28.2201
26.4827 24.697 27.7567
26.2761 24.8608 27.9973
26.1527 24.9306 28.617
26.8399 24.921 28.3123
27.2382 25.3521 28.8893
26.6014 25.2841 29.0382
25.9729 25.1786 28.9143
26.063 25.4379 29.1367
25.6229 24.7923 28.8823
25.3136 24.731 28.7077
26.1017 25.4754 29.6342
25.6413 24.6577 28.9464
25.4886 24.8217 29.3981
25.5045 24.8406 29.2951
25.0698 24.9542 29.7389
25.3039 24.8455 29.452
25.0936 24.7951 29.1849
24.7162 24.5513 29.5695
24.9029 24.5248 29.4437
24.8996 24.6466 29.7327
24.9434 24.7707 29.7706
24.8353 25.2487 31.0661
25.436 25.0775 30.2221
24.0704 23.7247 28.8857
24.1875 24.5223 29.7932
24.2054 24.547 30.3652
23.7507 24.259 30.1227
24.7006 25.5573 31.5206
24.6377 24.9508 30.674
23.6694 24.2027 30.163
23.8142 24.6515 30.6682
23.8943 24.7251 30.9355
23.8382 24.7496 30.9065
23.5223 24.8507 31.2238
23.5134 24.5566 31.0104
23.5208 24.4647 30.6671
23.1689 24.2743 31.0726
22.9825 24.3803 31.3488
23.4742 25.2389 32.2668
23.027 24.7965 31.7366
22.8616 24.7812 32.3974
23.609 24.7826 31.5947
22.2266 23.8007 30.7765
22.5319 24.1675 31.7365
22.8756 24.715 32.4734
22.8365 24.6841 32.0899
22.8029 24.8226 32.4558
22.8552 25.1789 33.0015
22.3766 24.8097 33.1705
22.8074 25.0328 32.7567
21.9931 23.5152 31.2747
22.0927 24.4386 32.52
21.4397 23.369 31.407
21.8544 24.1126 32.4267
21.881 23.876 32.2891
21.8315 24.9066 33.637
22.2724 24.8559 33.6989
22.1179 24.788 33.192
21.9146 25.1233 34.1264
21.4423 24.3575 33.7801
21.5491 24.2532 33.651
21.8917 25.2079 36.0626
21.3392 26.6832 46.0144
45.9075 53.6265 60.6228
21.611 25.5707 35.4875
21.0539 24.2743 34.2653
20.9401 24.8199 35.2621
21.4088 24.0868 33.7119
20.4787 23.9517 33.6129
20.8568 24.4822 34.9935
21.1611 24.4522 34.494
21.0496 24.5062 34.6383
20.6892 24.1866 34.6221
21.2579 24.3242 34.4616
20.3934 24.0146 34.282
20.5413 24.377 35.126
20.4073 23.7061 34.1221
20.6314 24.0817 34.3614
20.018 23.8651 34.3866
19.5856 23.5581 34.5607
20.1777 23.9409 34.8687
19.5277 23.6406 34.1476
19.4667 23.5 35.0443
20.2115 23.9383 34.6435
19.6272 23.8368 35.1023
19.8807 23.7828 35.1395
19.9751 24.5131 36.1765
20.0535 24.2252 35.8158
19.4066 23.5698 35.1192
19.7888 24.1032 35.6313
19.6424 23.5504 34.7543
18.8881 23.494 35.5208
19.3785 23.9436 36.4822
19.6851 23.8075 35.7202
19.4956 23.7713 35.5068
18.7366 23.5912 35.6707
19.0333 24.0326 36.5891
18.6176 23.8348 36.5388
19.1535 23.7784 35.735
18.3295 23.0822 35.5325
18.3859 23.6652 36.7165
18.7145 23.3869 35.8823
19.3009 24.9203 38.5596
18.4408 23.3868 36.8602
18.8599 23.6991 36.6666
18.4668 23.3214 36.7905
18.8221 24.2496 37.6501
18.4987 23.1605 35.993
18.117 23.277 36.5429
18.1087 23.1926 36.462
17.7425 23.4919 37.6251
18.8798 24.4087 38.0124
18.0329 23.5556 37.441
17.7247 23.483 37.3573
17.9304 23.3779 37.2587
18.2333 23.9567 38.1596
18.0558 23.8766 38.5475
17.9909 23.5826 37.8546
17.8541 24.0234 38.5895
17.3219 22.6667 36.2852
17.0442 23.2029 38.149
17.1591 23.0465 37.895
17.5245 23.3988 38.1252
17.5326 23.2785 37.9239
16.9214 22.9404 37.8967
17.2265 23.2692 38.7881
17.2001 23.1831 38.692
17.6169 23.6191 38.4486
16.8632 23.0868 38.4372
17.5443 23.7283 38.9014
16.4802 22.3464 37.6105
16.8738 23.4109 39.3712
16.7941 22.6154 37.5526
16.63 22.5741 38.1667
16.9824 23.1457 38.8617
16.7259 23.518 39.7315
16.5587 22.7625 38.0215
16.134 22.2936 38.2844
16.8598 23.4325 39.4073
16.3668 22.9916 39.708
16.8249 23.1318 39.1403
16.6646 23.4389 40.6244
16.6868 22.8699 38.9017
16.1206 22.699 38.9104
15.9459 22.5127 39.0882
16.0226 22.9628 39.5208
16.259 22.7207 39.1821
16.1298 23.2407 41.2746
16.3246 23.4922 41.1167
16.7276 22.9689 39.8509
16.2037 23.2947 41.4338
16.2145 22.9417 39.957
15.9463 23.1565 40.5747
16.1394 23.1383 41.031
15.9231 23.0351 40.7172
15.7286 22.4005 39.4192
15.5036 23.2211 42.1605
15.5087 22.9318 42.786
15.7926 25.4179 62.2646
33.979 50.2695 68.1146
15.6918 23.502 42.5421
15.2481 22.5916 40.7133
15.146 22.5019 41.3688
15.3702 23.21 41.9717
15.5311 22.7813 40.8152
14.9967 21.9656 39.8771
15.5688 23.5623 42.7489
14.8865 21.9863 40.8229
15.5295 22.3171 40.4241
15.0492 22.5837 41.5907
14.9473 22.4733 41.7817
15.2091 22.8527 42.2398
14.9353 22.3439 41.0995
15.1358 22.7381 42.5024
15.2835 22.5837 41.575
14.8047 22.2373 41.3003
14.6056 21.8191 40.919
14.8305 22.8584 42
14.3092 21.9717 41.9111
14.5558 22.0842 41.567
14.5717 22.0637 42.2595
14.5913 21.8302 40.9022
14.4174 21.9408 41.4701
14.788 22.6085 42.1244
14.3515 21.5477 41.3312
14.3737 22.5416 42.7956
14.4649 22.1713 42.8309
14.8301 22.7403 43.4504
14.3614 21.8312 41.3375
14.2785 22.289 42.594
13.9549 21.638 42.4196
14.6132 22.8246 43.5847
14.3204 22.8988 44.1036
14.0673 22.1063 42.8187
13.9703 22.1292 42.3613
13.8429 21.8313 42.6996
14.0059 21.5938 42.4111
13.5646 21.5916 42.2205
14.1902 22.6602 44.2076
13.7663 21.7862 42.6278
13.532 21.575 42.8378
13.4336 21.3801 42.7333
13.837 22.0156 43.1585
13.6942 21.4822 41.7913
13.3993 21.9765 43.6266
13.2905 21.1339 42.3853
13.1748 21.1137 43.2425
14.3244 23.1849 44.7023
13.062 21.3765 43.1443
13.1405 21.2274 42.5337
12.9475 20.7206 42.3382
13.4937 21.5964 43.0777
13.0686 21.1016 43.0381
13.3222 21.5311 42.7358
13.0662 21.6465 44.6012
12.799 20.8189 42.7592
12.9861 21.1424 42.9718
13.0396 21.5116 43.8139
12.9332 21.7125 44.0543
12.73 20.7788 42.8317
12.7588 21.207 44.0799
13.0298 21.6214 44.7227
12.7342 20.4398 41.9093
12.704 21.5406 44.3585
12.9953 21.707 45.2624
12.9222 21.3097 44.2791
12.6796 21.2723 44.7825
12.9426 21.6738 44.808
12.6595 21.2007 43.57
12.3256 20.7621 43.9446
12.6488 21.3699 44.6844
12.6278 20.7863 43.6096
12.679 21.5828 44.9662
12.404 20.56 43.9418
12.2737 20.8314 44.3661
12.4019 21.0492 44.2299
11.9392 20.4213 44.3846
12.3199 20.797 43.992
12.2323 20.8049 44.2559
12.2861 20.6126 43.9042
12.0314 20.9088 45.0045
12.2796 21.1487 45.1124
12.2021 20.9302 45.4995
12.0998 20.4661 43.9707
11.8636 20.3916 44.8935
12.2741 20.9695 45.1805
11.9269 20.9828 45.3154
11.8488 20.7086 44.9208
11.7344 20.4301 45.0344
11.9405 20.8537 45.5801
11.9917 21.2577 45.8488
11.5484 20.3623 45.733
11.7288 21.2012 47.3954
11.8349 20.8427 47.0449
11.3869 23.4214 77.5579
25.7315 45.9529 70.4763
11.5203 20.8804 46.1934
11.4835 20.728 46.4589
11.6027 20.4862 45.5133
11.682 20.7685 46.0243
11.3921 20.502 46.3406
11.2677 19.9074 44.847
11.2848 20.4606 46.1661
11.2882 20.4436 45.9007
11.4173 19.9161 43.7662
11.1859 20.1987 45.5781
11.0556 19.9077 44.9747
11.2155 20.1854 45.3368
10.9823 19.579 45.5525
11.3698 20.0832 46.0128
11.1719 20.0007 45.3838
11.2331 19.9538 45.3515
11.2298 20.0473 45.8306
11.0846 19.6809 44.761
11.2622 20.4631 46.4418
10.9722 20.0742 45.309
10.8802 20.7163 48.5372
11.1854 20.1175 45.8654
10.9653 20.0648 46.2605
10.9531 20.0958 46.5195
10.9201 19.3933 44.3579
10.5802 19.5602 45.7746
10.6875 19.5835 45.2257
10.9232 20.313 47.0006
10.8159 20.1064 46.8669
10.7762 20.0986 47.273
10.5636 19.2517 45.329
10.5711 19.6103 46.2522
10.5727 19.4094 45.3204
10.2592 19.2612 45.8644
10.6637 19.675 46.2076
10.329 19.3071 46.218
10.8502 20.0414 47.7655
10.6846 19.8899 47.1556
10.4987 19.6042 46.8555
10.7139 19.9257 47.6058
10.511 19.6707 45.7276
10.1238 19.1997 46.2481
10.3641 19.2995 45.6177
10.119 19.6675 47.5484
10.1375 19.512 47.4456
10.3868 19.4624 47.1533
10.5889 20.0632 47.6175
10.3951 19.418 46.292
10.062 19.7499 47.875
10.3146 19.7398 48.5315
10.3889 19.5603 47.2437
9.91577 18.9113 45.9652
10.1142 19.3769 46.9573
10.0483 19.231 46.8696
9.9631 19.8419 48.3496
9.93658 18.8923 46.5884
9.90362 19.1254 47.1704
9.95312 19.1293 47.748
10.2294 19.378 46.7758
9.65595 18.6326 46.1421
9.56209 18.4934 45.4412
9.77726 19.2727 47.2206
9.80991 19.4272 48.6356
9.73004 18.5807 46.41
9.90727 19.3247 48.0314
9.69241 18.9803 47.2084
9.59289 18.9486 47.7884
9.81857 19.3049 48.2517
9.77938 19.1881 48.1424
9.62773 19.1283 48.0528
9.66832 18.8705 47.036
9.57578 18.8909 47.1682
9.5142 18.8233 47.2001
9.21429 19.0547 48.4149
9.56448 18.7204 47.7172
9.59548 18.9157 47.6482
9.44732 18.7192 47.4362
9.50744 18.8323 48.7444
9.55317 18.3694 46.424
9.39461 18.8584 48.2559
9.40702 18.657 47.521
9.34979 18.2408 46.6233
9.45616 18.9349 49.0007
9.50115 18.924 48.2128
9.29558 18.9723 48.9245
9.17276 18.7629 48.0581
9.23064 18.5942 48.848
9.2956 18.6627 48.278
9.32519 19.1416 48.6818
9.22172 19.0363 49.2889
9.29498 19.2401 49.9098
9.29023 19.1667 50.621
9.42736 19.5875 50.6586
9.02944 20.0525 55.2696
9.43561 23.0946 96.3121
21.0399 42.2624 71.1112
9.43046 20.3868 53.2985
9.47687 19.5819 51.0626
9.43664 19.2575 50.9104
9.26411 19.2287 49.5063
8.98158 18.4961 49.5279
9.19607 19.2467 50.19
9.11942 18.7801 49.5203
8.82689 18.5819 49.7066
9.08635 18.5229 48.5789
8.6925 18.5047 49.7623
8.94952 18.4145 49.5732
9.05228 18.6229 50.4814
9.23367 19.3119 50.6301
8.72586 18.043 48.6508
8.97351 18.5924 48.9912
8.59812 18.2054 48.67
8.71767 18.419 50.8018
8.84069 18.7952 50.6768
8.94541 18.119 48.6363
8.64944 18.0695 49.0439
8.67298 17.9006 48.6008
8.56928 18.0177 48.6699
8.56182 18.0039 48.2702
8.63005 18.1647 49.5364
8.48545 17.5542 48.6456
8.72682 18.4287 50.2946
8.62614 18.1465 49.2245
8.56586 18.2481 50.0558
8.50231 18.0468 49.1136
8.57937 18.0215 48.6207
8.21682 17.4179 48.3749
8.50601 17.9506 49.0483
8.2975 17.8005 49.8897
8.59052 17.8336 48.6486
8.16104 17.7276 49.297
8.34064 17.8452 49.3833
8.4757 17.9187 49.5765
8.39246 18.2254 50.2649
8.4747 17.9988 48.9446
8.21772 17.8597 49.9361
8.11379 17.9232 50.3038
8.3132 17.7326 48.7461
8.11864 17.7714 50.4755
8.17755 17.5294 48.4571
7.97541 17.7237 50.5922
8.26842 17.9785 50.0633
8.03618 17.5143 49.162
8.10286 17.1575 48.2025
8.13038 17.4635 49.4339
8.20405 17.6728 49.825
8.39334 18.143 49.9729
8.01098 17.3699 49.4303
8.01717 17.3563 49.0844
8.06586 17.3851 49.1573
8.01568 17.7952 50.2484
8.11166 17.5283 49.6132
8.13993 18.0042 50.8412
7.99023 17.3197 49.7442
8.1372 17.4496 49.7105
7.9971 17.5751 50.0965
8.00472 17.6996 51.3439
7.90103 17.3855 49.5185
7.84588 17.4033 50.5289
8.0014 17.4102 49.9422
7.80699 17.4129 50.053
7.84866 17.3438 49.617
7.75606 17.7871 51.3057
7.60518 16.9974 50.7938
8.18525 17.6996 51.2534
7.95666 17.5235 49.4581
7.63323 17.5305 52.0197
7.86014 17.5863 50.2531
7.61398 17.2988 50.2403
7.73144 17.3503 50.4829
7.5839 17.1435 49.807
7.84371 17.4441 50.5451
7.57451 17.2205 52.0059
7.85055 17.4359 50.4309
7.68264 17.178 50.55
7.72115 17.3283 49.7383
7.62545 17.366 51.1099
7.54856 16.69 49.3983
7.65929 17.2497 50.9587
7.64689 17.3924 51.4444
7.54557 17.2357 51.821
7.62076 17.2486 50.8796
7.60415 17.3562 51.2503
7.57795 17.0425 50.4313
7.56607 17.1425 51.5041
7.58936 17.2941 51.2832
7.49535 17.3119 51.8811
7.5353 17.2591 51.8853
7.51721 17.6075 52.7177
7.56152 18.009 55.7522
7.47962 21.9475 110.814
17.3577 37.2608 65.6432
7.42406 18.2033 52.6066
7.29434 17.5833 52.7583
7.2929 16.9964 51.3475
7.2487 16.7259 51.5854
7.42544 16.9471 51.0514
7.4311 17.2976 52.2472
7.37359 16.6229 49.7465
7.23786 16.9523 50.9688
7.36824 17.2261 52.1296
7.39647 17.1859 52.5285
7.44192 17.0757 51.5629
7.24588 16.6036 51.3048
7.14423 16.6219 51.2175
7.25815 17.0012 51.2527
7.18773 17.0751 52.3351
7.33888 17.1346 52.6696
7.41753 17.2154 52.0987
7.17219 16.7803 52.5661
7.4337 16.8 50.274
7.06098 16.4922 51.4031
7.33482 17.4884 53.4884
7.35226 17.001 51.8342
7.24551 16.8242 52.2164
7.11998 17.1018 52.6889
7.14385 16.462 51.1315
7.08121 16.5881 51.3034
6.97441 16.3465 50.9665
7.08233 16.9265 52.4728
7.22899 17.0294 53.7417
7.19455 16.7538 51.2406
7.02236 16.9473 52.1065
7.04792 16.6504 52.0046
7.12453 17.1386 53.9211
7.00224 16.671 51.6546
6.8618 16.2532 51.3581
7.04535 17.097 53.3843
7.13227 16.5803 51.8997
6.83087 16.0219 50.2013
6.91867 16.2766 50.7812
6.97144 16.7502 51.455
6.95156 16.7766 53.126
6.96208 16.4989 52.5532
7.02937 16.4159 51.3298
6.79804 16.5824 53.0586
7.00351 16.5861 53.0997
6.96933 16.3271 51.6466
6.91949 16.6856 52.7462
7.00475 16.4677 51.9954
6.86222 16.3439 52.3016
6.90571 17.1322 52.7485
6.76987 16.2946 53.5956
6.95838 16.9209 51.9538
6.57031 15.5498 50.6079
6.61442 16.0054 51.5295
6.65026 15.9651 51.2915
6.62949 16.1048 51.9758
6.75592 16.3262 51.8895
6.73337 16.0392 51.91
6.86606 16.6925 53.8807
6.83627 16.296 53.2777
6.74204 16.3622 53.2576
6.89072 16.7046 52.6686
6.77841 16.6951 53.1098
6.67624 16.3844 53.4157
6.77483 16.6558 53.0204
6.72148 16.46 53.1532
6.6665 16.021 51.1692
6.60721 16.1495 52.996
6.6819 16.2293 52.0038
6.50414 15.9017 52.1721
6.63932 16.4017 52.6828
6.66328 16.6547 54.3306
6.67348 16.0203 51.7061
6.49828 16.4569 54.0335
6.54042 16.2866 54.0846
6.63724 16.3391 52.5084
6.48532 16.1346 53.3315
6.5362 16.2953 52.788
6.45383 15.7299 52.1906
6.46969 16.0053 52.8177
6.44729 15.9964 53.0549
6.54387 15.8133 52.8597
6.49032 16.229 53.1786
6.49735 16.076 52.5989
6.36356 16.0815 53.8077
6.55951 16.0286 51.8451
6.29818 15.8406 52.6241
6.4992 16.1273 52.2891
6.2505 15.7529 53.6845
6.47278 16.5114 54.5358
6.63812 16.5156 53.5844
6.44025 16.6865 54.2355
6.36389 16.2279 54.6541
6.40181 16.768 57.3798
6.58931 22.1041 126.912
15.0521 33.3035 63.3954
6.49476 17.1225 53.9129
6.26113 16.3106 52.7205
6.10483 15.8104 53.7662
6.369 16.0967 52.2755
6.12771 15.9997 54.4696
6.3156 15.9586 53.0709
6.24434 16.0012 53.4811
6.3554 16.4303 54.2075
6.33782 15.8112 54.553
6.32944 16.0861 53.754
6.20424 15.8152 53.0109
6.27188 15.6177 53.0296
6.36212 16.1422 53.0429
6.22735 15.7283 52.4071
6.12795 15.3497 53.6942
6.37144 16.1991 55.0846
6.40566 15.966 53.981
6.34177 15.7138 53.4912
6.17211 16.0938 54.3347
6.20052 15.7555 53.6733
6.06096 15.5429 51.3278
5.93493 15.4168 53.1402
6.12554 15.5125 53.5432
6.20758 15.6561 53.299
6.09151 15.6453 54.2351
6.14158 15.5669 53.3141
6.10064 15.6104 54.3461
6.28256 15.764 54.501
6.28417 16.0143 53.1806
6.02044 15.6207 53.8026
6.22017 15.4859 52.7931
6.04306 15.4114 53.516
6.10918 15.7482 54.2867
6.26751 15.9963 53.9496
5.98855 15.3105 53.6672
5.92704 15.714 53.0593
5.84858 15.0332 53.1377
6.12818 15.8664 54.3386
6.02491 15.4214 52.9828
5.98875 15.4544 53.6311
5.9274 15.137 53.7076
5.99081 15.3246 52.8826
6.06163 15.3873 53.0242
6.04899 15.7914 54.1807
5.9463 15.4461 53.4531
5.75061 15.2001 53.8555
5.99372 15.2861 53.3654
5.88086 15.3308 53.9515
5.97215 15.3215 53.4688
6.02994 15.7168 54.1382
5.97958 15.4891 53.8521
6.03484 15.1832 52.6825
5.88419 15.4355 54.3247
5.96846 15.2609 53.5709
5.86198 15.6367 54.3167
5.97924 15.155 52.8477
5.9143 15.3553 53.9047
5.93969 15.3629 53.8878
5.8202 15.4475 53.9517
5.88249 15.4136 54.5543
5.86612 14.7013 52.8855
5.86052 15.454 54.2823
5.89484 15.3586 53.8475
5.76453 15.1647 53.8087
5.80421 15.0067 52.7607
5.76538 14.925 53.0284
5.78368 15.3449 53.6058
5.65422 14.9767 55.3309
5.96808 15.8506 54.5809
5.86211 15.3055 54.2873
5.86465 15.4584 54.2178
5.75242 15.0721 53.8657
5.77999 15.4915 55.0437
5.81153 15.1141 54.4523
5.84764 15.3031 52.7598
5.73381 14.9177 53.4688
5.80597 15.1026 53.4444
5.62101 14.9732 54.6621
5.95021 15.5692 55.0978
5.78151 15.1675 53.7398
5.79436 15.5564 56.7379
5.83712 15.2101 54.5059
5.82194 15.5359 55.5414
5.8507 15.36 53.4979
5.52162 14.6488 53.4997
5.74923 15.6741 56.3992
5.77853 15.5387 55.1883
5.67667 14.8503 54.6908
5.74835 15.5089 54.577
5.64973 15.4615 55.695
5.73835 15.6428 55.4735
5.71532 15.6222 55.9768
5.86198 16.34 57.9917
5.90622 16.611 59.7028
5.87634 23.2835 147.812
13.9089 31.6823 62.089
5.87902 17.1807 58.1388
5.81025 15.5271 55.4267
5.65249 15.7458 55.8423
5.76667 15.5862 56.0018
5.65173 15.1676 55.3863
5.66116 15.3666 54.9755
5.59346 15.3138 54.9778
5.589 15.0533 54.8138
5.67017 15.4513 55.4906
5.62037 15.1262 54.1454
5.45337 14.5629 55.2923
5.66863 15.3866 55.539
5.65872 15.1073 54.7756
5.59176 14.6286 52.8255
5.39621 14.7627 54.184
5.57777 15.0886 54.9705
5.51131 15.3217 56.3946
5.65879 15.0214 54.8723
5.55308 14.8024 53.6619
5.45451 14.9118 54.7051
5.49629 15.0105 54.6267
5.51986 14.7634 54.7209
5.55062 14.7814 54.6618
5.48223 14.6672 53.5035
5.51005 14.9395 55.0549
5.43306 15.1744 55.7836
5.60862 15.3155 55.004
5.43976 14.8268 53.739
5.38886 14.9127 55.2809
5.36949 14.0828 53.7203
5.5042 14.7686 54.7629
5.49457 14.8336 52.8547
5.30165 14.5512 54.0287
5.32864 14.5482 54.853
5.5051 14.6867 53.6013
5.39048 14.3939 52.9076
5.27324 14.3817 53.6445
5.39753 14.9546 55.893
5.44578 15.1371 56.4545
5.55026 14.7184 54.7668
5.36932 14.8454 55.0982
5.38338 14.8862 54.5864
5.46579 14.5066 54.0177
5.30166 14.7362 55.0642
5.39144 14.844 54.99
5.47038 14.9123 55.1925
5.33002 14.6748 54.6516
5.41483 14.5391 55.1086
5.42382 14.8287 54.4518
5.31029 14.6519 55.5101
5.45601 14.5908 54.4164
5.37487 14.4149 53.3681
5.29155 14.8092 54.6819
5.33253 14.7551 54.6262
5.21447 14.3122 54.3186
5.32903 14.3652 54.9331
5.25775 14.6238 54.8136
5.22058 14.7672 55.3975
5.33025 14.2579 54.2021
5.33168 14.7891 54.2288
5.22593 14.3646 53.8232
5.18883 14.7191 53.7272
5.17794 14.5945 55.3424
5.32782 14.6731 55.6457
5.37271 14.3483 53.2481
5.20154 14.4648 56.6787
5.50967 15.0287 55.0824
5.29799 14.813 55.402
5.28909 14.604 56.0098
5.39148 14.3887 54.8986
5.35567 14.5159 54.5675
5.24344 14.6757 56.0051
5.30526 14.4687 55.3545
5.38999 14.7709 54.8264
5.26415 14.5906 55.5434
5.34645 14.8245 54.5616
5.17358 14.1977 52.9814
5.05031 14.4554 55.6295
5.26887 14.3951 54.0704
5.09887 14.2345 53.9957
5.14524 14.1608 54.8714
5.21891 14.3123 53.6542
5.13735 14.2334 53.6768
5.16139 14.3041 55.1844
5.21775 14.2959 54.5837
5.18566 14.5334 54.6937
5.19801 14.4544 54.1524
5.24396 14.2877 54.5379
5.15418 14.2684 55.0088
5.1511 14.5403 55.3739
5.2382 14.5474 55.4628
5.19974 14.6931 55.9598
5.2699 15.3562 55.2468
5.07976 15.337 57.0917
5.20901 22.3503 154.18
12.237 28.354 56.5335
5.08883 15.1498 54.3341
5.16604 15.3639 54.7787
5.12192 14.5126 54.3619
5.03078 14.2562 53.8808
5.01262 13.8457 52.9343
5.0781 14.1134 54.2563
5.0863 14.2782 54.1166
5.03356 13.8163 53.4108
4.99355 13.9865 52.6806
4.92266 13.7777 53.6017
5.00593 13.8375 54.3913
5.18998 14.5102 53.7631
4.94666 14.0656 56.2482
5.25763 14.7919 54.7434
5.0796 14.3403 54.6023
5.08927 14.1033 54.0549
4.91119 13.8812 55.0005
5.19417 14.191 53.5741
4.92084 13.9439 54.5949
4.98568 13.9153 54.039
4.881 14.3731 54.933
5.00205 14.1744 54.1373
5.02697 13.8473 53.4654
4.97078 13.8922 54.7513
5.11024 14.443 55.6987
5.0804 14.5864 54.6954
5.07997 14.0759 54.9427
5.05983 13.7813 53.0633
4.93979 13.8884 55.4712
5.05274 13.8633 53.9428
4.93764 14.3974 55.0244
4.96463 14.2589 55.281
5.05974 14.0924 54.4109
5.02116 14.2495 56.2534
5.0257 14.0585 54.7098
5.07802 14.0786 54.0857
4.88728 14.0966 54.5803
4.98722 14.4616 56.3083
5.08024 14.1826 54.7408
5.02731 13.9588 55.1422
5.00689 14.1688 55.0066
5.02151 14.1999 53.437
4.90755 13.5629 53.3448
4.96007 14.4756 56.553
5.15537 13.7303 54.5534
4.95751 14.1216 53.4913
4.92496 14.288 56.0653
5.02863 14.038 54.1586
4.90897 14.0241 54.8564
4.97709 14.0705 55.3732
5.01743 14.1871 53.649
4.91977 13.65 54.7695
5.00245 14.5438 55.3867
5.06287 14.2522 54.8869
4.98678 13.7937 54.346
4.88711 13.8649 55.0893
5.09138 14.0851 54.65
4.95324 13.7045 55.0289
5.05832 14.2005 54.6022
4.92357 13.9612 56.4299
5.12566 14.2202 55.5011
5.01965 13.9809 53.1488
4.81304 13.7541 55.8719
4.99423 14.164 54.2226
4.82127 14.5009 56.6325
5.01173 14.0569 54.7334
4.9558 14.093 55.1623
4.9323 13.8843 54.9069
4.94681 14.0594 54.8283
4.93933 14.0979 56.2113
5.01956 14.2468 54.6782
4.89933 14.0328 53.4993
4.76625 13.9582 55.0638
4.92338 14.0173 56.0386
5.05832 14.0808 54.7586
4.90309 13.9094 56.0598
4.97563 14.1156 55.3378
4.97879 14.0427 55.7611
4.89766 13.7684 53.8862
4.87522 13.6154 53.6776
4.83495 13.7532 54.3217
4.89256 14.1448 54.9623
4.93345 14.0994 54.5443
4.90112 14.0094 56.0116
4.93803 13.8547 54.2737
4.9201 14.2097 55.611
4.88546 14.0142 54.9022
4.90233 13.752 53.5297
4.7805 13.6885 55.1601
4.87126 14.1711 54.8234
4.8536 13.9509 55.3856
4.95361 14.3323 54.9755
4.8619 14.4067 54.2179
4.83652 14.653 54.1827
4.85543 23.3399 163.783
11.7788 26.5079 57.2099
4.95441 15.4038 55.7155
4.87217 14.8024 56.5377
4.92603 14.5679 55.8507
5.00982 14.3006 55.7517
4.92288 14.255 54.371
4.79743 13.936 54.8839
4.76005 13.9064 55.4281
4.96703 13.7209 54.1239
4.84437 13.8372 56.6692
4.99586 14.1285 54.8192
4.86458 13.8061 54.7275
4.84791 14.1653 54.769
4.78959 13.8662 54.8388
4.89554 13.9478 55.5251
4.82779 14.1137 55.5589
4.80446 14.0132 55.4724
4.90571 14.1295 55.4787
4.85244 14.0392 55.2021
4.87344 13.9541 56.2686
4.88147 13.9223 55.6491
4.79978 13.771 54.5476
4.83296 13.6087 53.6827
4.73178 13.9851 55.1124
4.77952 14.0253 56.3805
4.89647 14.2948 55.7057
4.80076 13.8241 55.2104
4.74286 13.691 54.4841
4.74478 13.6455 54.7486
4.7811 13.7902 56.0136
4.81831 13.6135 53.8996
4.7816 14.0737 56.3706
4.91475 14.078 55.305
4.7961 13.9497 54.4582
4.67744 13.63 55.278
4.75681 14.2139 56.7423
4.88367 13.8423 54.536
4.80623 13.5607 54.5176
4.81048 14.1046 55.4474
4.78274 13.873 54.486
4.77245 13.7817 53.7915
4.71963 14.1892 56.8895
4.96687 13.7776 55.5087
4.74467 13.9478 54.5412
4.81564 13.7001 55.7831
4.90837 14.2054 56.2533
4.87596 13.8549 54.6575
4.74375 13.8419 55.8327
4.88833 14.1527 55.2724
4.77117 13.7478 54.7604
4.71626 13.6213 53.4657
4.65294 13.4431 55.1823
4.82673 14.1129 55.0053
4.83846 13.649 54.3936
4.81496 13.6754 54.0681
4.76007 13.6922 55.4912
4.74773 13.5823 54.4951
4.73882 13.6914 53.9557
4.70789 13.8239 55.5289
4.8195 13.8399 55.0894
4.83589 14.1134 56.9334
4.89397 14.2302 55.1233
4.82571 13.4906 55.2547
4.79059 13.8081 53.645
4.71744 13.408 55.6838
4.89773 13.5802 53.7688
4.74145 13.9808 54.2826
4.7521 13.7125 54.5369
4.78478 13.6353 55.9845
4.82374 14.0525 55.2907
4.76836 13.9502 54.9102
4.77848 13.9102 55.7577
4.80313 14.061 56.476
4.88652 13.9305 56.1556
4.84429 14.2284 56.7135
4.92363 14.0243 57.0262
4.88766 13.8356 54.5087
4.79047 13.9094 55.5866
4.92285 13.8335 55.3958
4.87865 14.068 55.7354
4.81998 13.9306 57.4561
4.92831 14.2466 54.9671
4.70685 13.8444 55.5364
4.89141 14.1082 55.9169
4.84408 14.8391 58.128
4.94069 14.0319 55.5037
4.8367 13.7966 55.5094
4.76131 14.3272 55.97
4.89166 13.9399 54.43
4.72579 13.6388 57.4375
4.94092 14.1715 57.1132
4.8997 14.3665 57.1148
4.93574 14.7387 58.738
5.01415 15.1172 58.3195
5.04339 15.9656 58.7338
4.97816 24.14 154.725
10.7862 0 0