# pn-170911/RbIIR-47-RbIIR-1280-1959.psd
# Power spectrum* (dif=0,1,2) (really just |FT|^2)
# NOTE: only the first half! (symmetric)
# weeks: 1280-1959
# 4522 clock-days, 216 excluded
# PSD: 1441
293.179 0.144131 0.0477747
83931.5 2.0562 0.0460731
224810 4.14498 0.0467754
60153.5 1.91344 0.0468845
53836 3.55533 0.0465171
17389.3 1.45992 0.048379
13647 1.63463 0.046916
8806.56 1.32396 0.0452875
7749.16 1.70062 0.0464619
5240.16 1.3587 0.0475177
4353.08 1.35594 0.0461188
3630.14 1.40675 0.0472045
3168.07 1.50742 0.0501838
2736.76 1.51574 0.0462454
2441.72 1.61148 0.0480618
2200.2 1.66182 0.04805
1990.8 1.76686 0.0494517
1857.39 1.8821 0.0493142
1749.02 2.047 0.0492504
1648.54 2.12935 0.0512557
1566.38 2.34538 0.051884
1494.58 2.45424 0.0509854
1459.14 2.70507 0.0536249
1430.71 2.89775 0.0528677
1381.35 3.1309 0.0535093
1337.57 3.30413 0.0572659
1348.85 3.66489 0.0597544
1306.43 3.83851 0.059486
1351.28 4.33264 0.0628518
1261.64 4.46779 0.0638661
1277.62 4.84182 0.0661943
1289.98 5.21454 0.0711191
1236 5.40643 0.0738053
1250.43 5.78285 0.0783407
1265.65 6.2512 0.0824283
1231.46 6.45202 0.0864418
1190.93 6.70452 0.0883367
1269.84 7.59983 0.0962841
1269.69 8.00351 0.102862
1237.26 8.25399 0.106524
1244.22 8.73266 0.11207
1207.2 8.96734 0.117716
1196.86 9.37807 0.12647
1235.44 10.2038 0.132795
1253.77 10.8558 0.14739
1189.6 10.7792 0.14724
1146.07 10.9782 0.156261
1157.51 11.5058 0.166777
1232.58 12.768 0.18672
1184.99 12.9024 0.193975
1125.06 12.626 0.196324
1134.29 13.397 0.208498
1129.77 13.9159 0.228073
1153.78 14.6839 0.238803
1163.34 15.3377 0.26197
1091.31 15.121 0.263498
1126.84 16.0476 0.28502
1069.71 15.6979 0.294172
1100.32 17.0031 0.32015
1054.6 16.7402 0.327398
1037.49 17.0209 0.335349
1037.66 17.7121 0.35433
1038.23 18.3159 0.378039
986.922 17.9952 0.387212
1041.12 19.6827 0.426817
1016.67 19.6458 0.440429
982.963 19.6622 0.458051
977.794 20.1208 0.475636
911.189 19.3097 0.468227
936.584 20.4265 0.505314
900.919 20.1971 0.517417
881.747 20.4357 0.5336
925.449 22.2445 0.590012
892.601 21.6355 0.591496
869.834 21.8156 0.613298
814.548 21.1199 0.610693
840.071 22.2877 0.658985
816.562 22.316 0.667321
835.254 23.3608 0.723466
793.084 22.79 0.718866
791.977 23.4355 0.766638
766.347 23.1361 0.76275
768.662 23.7543 0.801197
736.565 23.3392 0.810539
751.42 24.5705 0.868659
745.76 24.7003 0.894229
710.469 24.2638 0.896989
700.571 24.3594 0.920938
698.108 24.8067 0.956196
681.564 24.7796 0.975407
673.852 25.1434 1.00337
685.685 26.1363 1.0718
648.373 25.1703 1.05331
619.523 24.5659 1.04761
623.225 25.2235 1.10615
630.469 26.2258 1.16523
709.742 30.3762 1.36901
626.753 27.1065 1.24956
596.455 26.4875 1.24891
586.634 26.424 1.27747
592.508 27.3539 1.33738
571.27 26.6747 1.33508
592.492 28.378 1.44724
538.18 26.4567 1.37071
556.007 27.5084 1.45046
550.845 27.9664 1.50536
523.029 27.1033 1.49125
508.892 26.924 1.51302
517.417 28.0465 1.58805
511.781 27.9495 1.62194
497.446 27.6607 1.62257
482.124 27.1193 1.62224
476.203 27.4564 1.68098
483.096 28.4523 1.7646
477.012 28.4775 1.80093
466.968 28.4769 1.82832
455.727 28.3241 1.84185
432.975 27.235 1.80423
436.358 28.0795 1.88862
450.031 29.437 2.01402
451.28 29.7944 2.07295
435.123 29.2544 2.05452
418.073 28.7292 2.06049
421.672 29.6378 2.16627
411.554 29.2081 2.15493
411.946 29.6124 2.22249
396.203 28.9255 2.22084
390.389 28.8165 2.2452
385.303 28.9923 2.28028
379.426 29.04 2.33846
366.877 28.6075 2.3094
379.832 30.1047 2.48546
366.891 29.3301 2.46588
368.836 29.8865 2.53642
356.979 29.2706 2.50217
363.97 30.7245 2.67786
355.667 30.3387 2.68447
341.557 29.5855 2.66065
345.593 30.1502 2.7536
341.86 30.0497 2.77568
333.594 30.0833 2.82603
323.61 29.6758 2.82685
317.734 29.1746 2.80454
329.536 30.9975 3.03042
324.93 30.9775 3.07067
318.541 30.543 3.0543
313.283 30.6026 3.12134
304.33 30.0911 3.10383
293.972 29.6225 3.09225
304.25 31.2111 3.3045
298.243 30.7544 3.30867
291.99 30.627 3.32672
280.097 29.688 3.25531
289.39 31.2574 3.50258
278.306 30.2642 3.43646
290.102 31.9739 3.65318
288.427 32.183 3.7373
277.131 31.2558 3.65356
269.389 31.2154 3.71829
278.782 32.5601 3.92721
263.706 31.1294 3.79584
260.051 30.9467 3.82226
257.938 30.7833 3.81984
268.535 32.8581 4.15939
263.747 32.6501 4.15622
255.266 32.1449 4.17581
247.914 31.4912 4.11037
257.864 33.1375 4.39083
250.114 32.4426 4.37463
248.287 32.265 4.3423
245.343 32.4901 4.44999
242.316 32.5142 4.5102
244.381 33.3038 4.68386
237.354 32.5049 4.61594
231.068 32.0077 4.60304
237.294 33.3431 4.83312
235.146 33.4105 4.88351
229.449 32.9904 4.90835
227.218 32.9871 4.93047
224.833 33.1938 5.04887
222.964 32.7892 5.01146
219.341 32.8792 5.07901
218.733 33.2581 5.18625
221.765 34.3695 5.4669
214.518 33.0426 5.26521
213.29 33.7596 5.49211
213.133 33.6579 5.44999
210.435 33.7796 5.58239
209.78 33.9544 5.66467
209.116 34.3768 5.79217
205.256 33.9091 5.79868
198.523 33.4086 5.80049
242.421 40.8853 7.05453
205.314 34.6959 6.07079
190.9 32.8952 5.87443
196.982 34.4633 6.19409
193.573 33.8554 6.13882
193.717 34.365 6.24589
187.821 34.0196 6.30191
190.604 34.2978 6.3777
188.709 34.7104 6.55518
189.034 34.889 6.62599
189.965 35.4502 6.82082
183.818 34.586 6.69717
187.545 35.7353 6.997
185.166 35.4871 7.0145
187.269 36.3609 7.25831
179.096 34.9853 7.03447
175.6 34.7783 7.06378
175.556 35.2584 7.28556
178.453 35.7709 7.36794
175.058 35.5349 7.42254
175.148 36.1436 7.64536
174.366 36.0308 7.64843
173.707 36.4168 7.85643
172.434 36.7316 7.97823
167.132 35.3985 7.71329
169.041 36.424 8.06212
165.753 35.6361 7.9028
164.916 36.1226 8.10157
161.887 35.6896 8.13232
159.832 35.9338 8.22102
160.836 36.0221 8.35808
158.193 35.7607 8.31157
160.409 36.668 8.61274
159.143 36.3344 8.55656
159.444 36.973 8.86796
155.657 36.4476 8.79952
158.568 37.6216 9.13081
160.479 37.7783 9.15021
155.379 37.7066 9.34622
157.018 38.1364 9.53285
155.013 37.7991 9.47086
154.392 38.3814 9.82956
152.429 37.9005 9.67368
150.539 37.7226 9.70645
147.224 37.2518 9.62876
146.886 37.5099 9.80875
140.339 36.4004 9.62453
149.171 39.3422 10.5898
148.624 38.9811 10.442
141.8 37.405 10.157
138.768 36.8631 10.0729
144.232 38.2928 10.4472
144.142 39.3629 10.9477
139.448 38.2205 10.7438
141.976 39.0375 10.9515
135.664 37.6938 10.7416
141.455 39.5334 11.3032
135.131 37.8591 10.9593
131.898 37.6902 11.0514
134.505 38.3763 11.2712
131.235 37.7888 11.1786
134.847 38.9317 11.5471
133.777 39.1387 11.6971
135.156 40.0368 12.1005
132.443 39.1948 11.9206
132.293 39.5439 12.0964
130.9 39.5649 12.1642
126.586 38.898 12.2156
130.994 40.024 12.5988
129.324 39.6668 12.4669
128.982 40.124 12.8014
125.28 39.3673 12.6709
128.482 40.4826 13.0561
123.198 39.2232 12.7766
121.649 38.996 12.8446
124.46 40.4589 13.4381
122.47 39.6972 13.2009
120.589 39.2892 13.1626
120.051 39.8573 13.4574
119.821 39.5497 13.3405
118.793 40.036 13.8118
119.19 40.1543 13.8995
120.951 40.8964 14.1359
117.105 40.2271 14.1738
117.677 40.7272 14.3809
117.576 40.4547 14.281
115.864 40.3362 14.3895
114.775 40.1993 14.4146
114.742 40.6443 14.6257
111.659 39.8765 14.6032
112.94 40.9117 15.0895
110.982 40.0837 14.8059
109.073 39.7062 14.868
111.288 40.3709 15.0702
110.363 40.7098 15.3992
109.667 41.0576 15.856
135.6 50.3094 18.8434
109.46 40.7791 15.7477
107.372 40.3903 15.6268
106.95 41.1124 16.0642
106.75 40.7579 16.0548
105.612 41.0579 16.2318
106.42 41.4025 16.4653
103.617 40.5728 16.3014
105.065 41.2685 16.4947
104.356 41.5607 16.7764
100.718 40.3157 16.5597
102.575 41.3341 17.0138
100.935 41.1578 17.1148
104.221 42.6894 17.7186
102.387 42.0153 17.589
101.147 41.6773 17.5768
100.918 42.1313 17.9558
97.6444 40.9373 17.6008
98.5229 40.9941 17.4805
96.9728 41.2903 17.9565
96.9402 41.3372 18.0597
96.4653 41.1386 18.0633
98.0662 42.2402 18.6237
97.6749 41.8862 18.4494
96.9359 42.6351 19.1066
94.4332 41.2869 18.5075
96.7948 42.6505 19.2036
96.4278 42.9294 19.595
93.3135 41.249 18.8336
93.7161 42.2129 19.3227
95.2355 43.4764 20.3089
93.0188 41.8656 19.3097
91.8999 42.0661 19.6713
91.5222 42.4598 20.0627
91.1014 42.8702 20.503
92.1975 42.7014 20.3087
90.7717 42.2641 20.2165
89.832 42.5179 20.5839
91.0187 42.9051 20.661
89.5415 43.2795 21.3192
92.524 44.2907 21.6969
89.2233 43.0446 21.2371
89.044 43.3273 21.527
87.0072 42.5983 21.4025
87.7162 42.9932 21.4607
86.0604 42.7026 21.5867
84.8622 42.3429 21.6919
85.5042 42.7334 21.8659
85.4237 43.1027 22.1032
84.4682 42.8149 22.1461
83.7703 42.7119 22.2624
84.3561 42.9698 22.3597
84.4884 43.7232 23.0537
83.5768 43.3859 23.1058
84.4697 43.9175 23.2045
84.2772 44.0764 23.5005
80.4578 42.4083 22.8682
81.1369 42.9094 23.2585
81.23 43.0839 23.4272
81.3999 43.6344 23.8194
78.0707 42.4067 23.5687
78.7847 42.5905 23.6411
77.5988 41.7167 23.0555
79.5547 43.2984 24.1181
78.1188 42.9488 24.2086
80.8093 44.3772 25.0506
78.2497 43.1486 24.1292
75.3693 42.011 23.9589
75.2515 42.6249 24.5887
77.2231 43.9474 25.3913
75.4718 42.9055 24.9751
74.938 43.4687 25.5828
75.7699 43.6056 25.6094
74.5832 42.6147 25.0959
76.3954 44.3758 26.317
75.0228 43.2059 25.5996
74.0299 43.6523 26.2697
73.8249 42.9521 25.6821
74.8594 44.4608 26.8026
72.4247 43.2251 26.4133
71.0985 42.3902 25.8822
72.2099 43.372 26.691
71.6396 43.4612 26.7955
70.3848 43.2328 27.1764
71.6629 43.2268 26.5979
69.7707 43.2262 27.2058
71.0996 43.8712 27.6196
70.8955 44.2417 28.1392
71.521 44.3762 28.0641
69.3388 43.9246 28.2097
68.4432 42.9312 27.7046
69.3667 43.6712 27.949
68.0573 43.623 28.4466
66.5398 42.1651 27.5516
67.1454 43.8131 29.0407
70.04 45.0702 30.0323
82.5727 53.0584 34.1534
67.0319 43.8274 29.2701
67.3538 43.9748 29.4206
67.0246 44.0323 29.5586
69.1144 45.5714 30.4797
63.2282 42.2858 29.0703
67.0336 44.2176 29.8213
65.0037 44.1512 30.5081
63.6061 42.8881 29.7463
63.0559 42.5324 29.3036
63.1809 42.9921 29.9637
64.8506 44.145 30.5076
64.2699 44.7215 31.5405
63.1881 43.9386 31.0728
62.3604 43.0368 30.6854
61.8924 43.0324 30.5829
64.5353 45.0436 32.0292
62.3165 44.3674 32.0301
62.8729 43.8437 31.4251
60.2616 43.0268 31.287
60.8686 43.6196 31.9362
60.2834 43.1117 31.5039
59.0384 42.6847 31.6334
61.1299 43.6871 32.0365
60.3389 44.0565 32.8216
59.374 43.0686 31.7573
57.75 42.6406 32.3021
59.1576 42.9577 32.0493
58.383 43.633 33.1292
59.2166 43.6303 33.053
59.2098 44.1507 33.4706
55.8402 42.255 32.6081
57.2702 42.8884 32.9405
57.64 43.6165 33.7579
57.2573 43.3829 33.4914
56.9377 43.5168 34.104
57.2972 43.5698 34.0493
56.5084 43.8006 34.6195
55.8373 43.0981 34.0507
55.9498 43.3394 34.3959
55.3624 42.987 34.0938
55.8518 43.4956 34.6135
54.4209 42.6721 34.2901
55.5862 44.0386 35.6685
55.1433 43.5748 35.3282
54.2972 43.1397 34.9811
54.5065 43.643 35.6019
54.5976 43.8753 36.0299
54.0821 43.7065 36.1294
53.7505 43.6699 36.2552
53.4672 43.1255 35.617
52.2543 43.0783 35.9447
52.327 43.1954 36.5182
52.6616 43.6896 36.823
51.1563 42.1222 35.6272
53.4234 44.8079 38.0622
51.7584 43.1175 37.0002
52.9495 43.9224 37.3152
51.4237 43.3465 37.3062
50.1814 42.7417 37.3244
51.4782 43.8382 37.904
51.1542 44.0057 38.5836
51.5745 44.152 38.7283
50.5643 43.5988 38.5164
49.8518 42.6813 37.8103
51.3771 44.1641 38.6154
49.7198 43.7351 39.2776
49.6547 43.0608 38.1288
50.0543 44.0473 39.4248
49.086 42.6644 38.2732
48.9717 43.5722 39.2953
47.531 42.5604 38.7645
47.012 41.7912 38.21
48.1196 42.5911 38.7647
48.6113 44.2242 40.9414
49.993 44.7626 40.7912
48.7714 44.5645 41.4996
48.8714 44.3195 41.0498
47.4974 43.4756 40.7268
47.5578 43.5117 40.611
45.9847 42.4947 40.2682
48.1446 44.2599 41.256
45.7455 42.76 40.9128
46.6302 43.3916 41.5134
47.5518 44.0521 42.0867
47.5466 44.6557 42.9537
46.0787 43.2976 41.4687
45.2048 43.0822 41.6557
44.9515 42.6425 41.4314
44.5974 42.5551 41.9069
46.2313 43.7032 42.2793
45.6064 43.827 43.0241
45.0623 43.4254 42.8133
44.7757 43.3738 43.0753
45.077 43.9637 43.6303
43.3572 42.3464 43.431
54.2054 52.3052 50.1044
43.8453 43.5768 44.3148
44.8002 43.7656 44.0142
44.3185 43.8818 44.7116
44.6067 44.7646 45.6197
44.3895 43.8724 44.2879
41.9082 42.0306 43.1718
42.1508 42.4351 43.5726
42.1355 42.7684 44.8095
42.8362 42.5511 43.8075
42.6482 43.342 44.6399
41.4637 42.3783 44.151
41.7704 42.8013 44.775
42.2022 43.4389 45.5094
41.5098 42.8698 45.2346
41.8986 43.4983 46.0611
42.2598 43.7301 46.2966
40.6462 42.356 45.5311
40.6485 41.9184 44.6132
41.0352 42.6228 45.1336
40.2672 42.3267 45.6582
40.9408 43.3094 46.7928
40.1934 42.6866 46.5475
40.5614 42.6537 45.8801
40.157 43.0301 46.7745
40.1687 43.4877 47.5758
39.0387 41.6417 45.5008
39.7129 43.5529 48.3797
39.1633 42.3661 46.92
38.6598 42.0484 46.675
39.4423 43.2288 48.4422
38.65 42.491 47.86
38.7566 42.4004 47.9164
39.2347 43.0024 48.2021
38.0128 42.2221 47.8732
37.9996 42.1783 48.0233
38.5045 42.7914 48.2032
38.0712 42.6432 48.9396
37.9232 42.3374 48.508
37.4715 41.8627 48.0338
37.2315 42.0672 48.3168
36.9933 41.9674 48.92
37.51 42.7767 49.5099
37.5405 42.6021 49.0591
36.1453 42.2113 50.3468
36.7275 42.0109 49.2366
36.8567 42.3224 50.122
36.369 41.7888 49.0989
35.4072 41.1388 49.3775
36.8354 42.4807 50.0417
35.2056 41.1369 49.4422
36.1114 42.3953 51.2626
36.4465 42.8564 51.5371
36.2066 42.9668 52.3
35.3402 41.6333 50.4597
35.8269 42.2749 51.0495
35.4551 42.2727 51.7276
35.4281 42.1891 51.3986
35.2117 42.1363 51.7689
35.1743 42.1906 51.625
34.9639 42.3253 52.3907
34.6214 41.8667 51.7887
34.563 42.0296 51.8446
33.975 41.6852 51.9609
33.798 41.6283 52.5041
34.1133 41.3983 51.9724
34.2945 41.976 52.1385
33.1671 41.014 51.6862
32.6044 40.4639 51.9268
33.4869 41.2858 52.0695
33.3575 41.4712 52.8969
34.2157 43.0426 54.6339
32.3456 40.7344 52.4939
32.4428 40.7216 52.6224
33.3157 42.2051 54.6149
32.8077 41.9182 54.8765
32.5952 41.11 53.2031
32.5743 41.81 54.8323
33.4983 43.0997 56.0695
31.4665 40.3637 53.639
33.0873 41.9711 54.5018
31.8098 41.575 55.2139
31.8227 40.7366 53.4787
30.6246 39.992 53.418
31.1756 41.1234 55.2786
32.1497 41.8884 55.9676
31.1253 40.2669 53.7522
31.3198 41.5 56.141
31.5295 41.3122 55.1554
30.399 40.0723 54.3633
31.0572 41.3959 56.3831
30.854 40.6516 55.2627
30.5908 41.2015 56.6531
30.7228 41.0506 56.1557
30.3582 41.1958 57.2444
30.3348 41.8501 60.7459
36.3426 48.2706 63.5508
30.64 41.4658 57.7565
30.5929 41.0815 56.863
30.7167 41.794 57.7061
29.5562 40.5163 56.989
30.1448 41.3115 57.4414
29.0631 40.163 56.8998
29.3191 40.4809 57.5696
28.9748 40.032 57.3154
29.5759 40.3217 56.951
29.5084 41.0572 57.6582
28.8303 40.2328 57.4194
28.9222 40.3341 57.6182
28.2303 39.9553 57.8237
28.7345 40.0871 57.6842
28.5218 40.1644 57.6067
28.0279 40.4272 59.578
28.5934 40.2951 58.3688
27.8056 39.385 57.3498
27.4155 39.3088 58.0763
28.5851 40.7766 59.332
27.988 39.9445 58.5757
28.0512 40.3448 59.0051
26.832 38.6533 56.9547
26.8041 38.9385 57.8396
26.3477 38.1597 57.1851
27.658 40.1729 59.3548
26.785 39.188 59.1843
27.4975 39.9692 59.359
26.7521 39.5699 59.6277
26.4502 39.0907 59.2774
26.8678 39.5207 59.9313
26.7059 39.439 59.8479
26.6838 39.7992 60.7267
26.5429 39.3205 59.9213
26.5917 39.9669 61.0244
26.5483 39.7736 60.8726
25.8229 38.6861 60.3216
26.3604 38.9012 59.3638
26.2466 39.0449 59.6685
25.7521 39.0232 60.2588
25.6849 38.8569 60.2173
25.5271 38.7196 60.2256
25.5872 38.8613 60.2677
24.8907 38.3151 60.9801
25.9832 39.7139 61.4866
25.2988 39.1311 61.9224
25.4165 39.4658 62.2412
25.0465 38.7682 61.6209
25.2506 39.1068 61.7623
24.9771 39.0948 62.4433
24.4267 37.9765 60.9761
24.1032 37.6454 60.78
24.7494 38.8814 62.4874
24.738 38.6388 61.8175
24.5653 39.2085 63.4967
23.7133 37.1654 60.8757
24.8717 39.2662 62.9385
23.9619 38.2497 62.513
24.0784 38.2441 62.2504
24.5813 39.6332 65.3774
24.3679 38.2087 62.1102
24.4166 39.1034 63.0969
23.2667 38.0083 63.9127
23.7149 37.3952 61.2757
23.3875 38.3262 64.2568
23.973 38.3395 62.9976
23.6169 38.5453 63.5513
22.8438 37.229 62.4285
23.0694 37.8403 63.6884
23.2852 37.9092 63.0032
22.823 37.978 65.0299
23.1745 37.4325 62.0488
22.37 37.3008 63.475
22.5106 37.3528 63.7733
22.8811 37.6056 64.0983
23.1869 38.3564 64.5409
22.9858 38.3755 64.1608
22.0782 37.6868 65.4599
22.8643 38.0714 64.9083
22.482 38.3577 66.5242
22.1865 37.0774 63.9411
22.5007 38.1547 65.7054
22.2285 37.9272 66.0322
21.5423 36.2832 63.4719
22.0078 37.872 66.2511
22.0755 37.1968 64.7439
21.9989 37.2891 64.8247
21.3064 36.779 65.3456
21.8319 37.6548 66.2917
21.5374 37.3829 66.9371
22.3882 38.1284 66.4449
21.1878 36.5783 65.0874
21.4668 37.2049 65.7093
21.0991 36.6284 65.7303
20.9492 37.1026 71.051
25.6383 43.1399 71.2527
21.491 37.8861 67.2684
20.5681 36.7457 67.1419
21.2694 37.4686 67.4952
20.6627 36.5863 66.8221
20.6827 36.2469 66.1377
21.1639 37.2716 67.2173
20.6037 36.716 67.1962
20.5734 36.6335 66.8981
20.4806 36.1154 65.7551
20.5984 36.8672 67.4341
21.059 37.8444 69.1637
20.539 36.8103 68.1033
20.5728 36.7104 67.2496
20.1383 36.6944 68.4174
20.1996 36.3277 67.9438
20.2941 36.1847 66.2934
19.6361 35.9537 66.9478
19.778 36.5945 68.9229
19.5549 35.745 68.319
20.323 36.2254 67.0984
19.7304 36.3268 68.2131
19.4526 35.6599 67.4273
19.2814 35.482 67.4125
19.7343 36.2065 68.044
19.6271 36.6742 69.4252
19.4002 35.866 67.8051
19.1253 35.8512 69.2343
19.2843 35.4987 68.0111
19.1198 35.7174 68.8376
19.431 36.2496 69.3246
19.5283 36.7931 70.1908
18.8811 35.2872 68.8416
19.542 36.6983 70.0699
19.1147 36.2813 70.1281
18.6361 35.0222 68.8599
18.4731 34.5766 67.2079
18.7393 35.7574 69.2343
18.5861 35.4341 68.8366
18.0324 35.0564 70.7445
18.8307 35.2721 67.6385
18.2148 35.6785 70.5528
18.0051 34.509 69.5532
18.345 34.2616 67.145
18.1435 34.8138 67.6143
17.7177 34.9521 69.2658
17.7076 34.6889 69.6686
18.2502 36.0518 73.3872
18.9682 36.2361 70.5128
17.3533 33.8295 68.5213
17.8581 35.1053 70.8778
17.8745 34.3982 68.9895
17.8059 34.9165 69.395
17.3484 34.428 70.2363
18.0862 35.6908 71.6716
17.5164 34.8967 71.3503
17.3002 34.101 70.7002
17.7004 34.6722 70.3793
17.6852 35.2106 71.612
17.4291 34.105 68.7445
17.0051 34.589 71.1711
16.9772 34.0912 70.2482
16.8963 34.1663 71.6689
17.194 33.9 70.1071
17.4491 35.3443 73.0019
17.2835 34.4182 70.9587
16.7545 34.276 72.113
17.1579 34.2367 70.7734
16.9476 34.2555 71.0677
16.6542 33.5977 70.6915
16.6153 33.2335 69.0213
16.3088 33.7839 71.2014
16.3831 33.376 70.3245
16.4174 33.654 71.1819
16.9908 34.9405 73.6354
16.7603 34.0817 71.036
16.3602 33.7254 71.3911
16.1908 33.5238 71.7455
16.1866 33.1545 70.3349
16.048 33.5366 71.7332
16.0252 33.4224 71.8235
16.0453 33.3377 71.6124
16.0525 32.9412 70.5392
16.0973 33.5716 71.0528
15.6757 32.9764 70.6787
15.8934 34.3259 74.4769
15.3439 31.612 68.9217
15.6145 33.1536 72.1668
15.6736 33.3012 72.6358
15.4195 32.3444 70.1845
15.6561 33.5389 73.0916
15.4283 32.7458 71.146
15.0868 32.3764 72.2975
15.7167 33.8443 74.9548
15.4636 32.2784 71.8032
15.3997 33.5505 78.7933
18.7228 39.0744 78.8374
15.0576 32.6843 72.5709
14.9825 32.351 71.5911
14.9255 32.5715 73.2573
15.1343 31.9956 70.7193
15.0785 33.083 73.3299
14.9472 32.3866 72.1205
14.5658 31.6156 72.0369
15.2575 33.0961 74.0199
14.8607 31.96 72.4825
15.3342 33.1128 73.1495
14.6688 31.9488 71.4646
14.4755 32.0637 73.4107
14.9508 32.5608 72.8744
14.6039 32.2816 72.038
14.0581 31.2667 72.2098
14.379 31.9596 72.4779
14.0459 31.2805 72.0988
14.305 31.582 72.5774
14.404 32.1577 73.7061
14.3354 31.8982 73.5109
14.2065 30.9586 70.4164
13.7585 31.0165 71.2746
13.7127 30.6057 70.7628
13.7655 31.1863 72.3069
13.8729 30.7554 70.5618
13.6733 31.3703 73.594
14.1296 31.8167 73.3564
13.8558 31.3646 72.6084
13.5708 31.2118 74.4348
13.9526 31.0528 72.7621
13.6441 30.5939 71.8778
13.6087 30.8658 72.5331
13.6441 30.4958 71.382
13.4313 31.0204 73.4405
13.6646 30.904 71.9608
13.2224 30.8254 73.2485
13.4752 30.7221 72.7145
13.4849 30.6501 72.3232
13.4053 30.9323 72.9637
12.8916 29.472 71.3886
13.3318 30.9786 73.4194
12.9256 29.6877 70.4873
13.0087 30.3204 72.4496
12.7141 29.4779 71.2418
12.8759 29.9442 71.3905
13.0786 30.9141 73.7546
12.8019 30.3014 73.7685
13.1577 30.7621 73.9757
13.0906 30.8153 74.8985
12.8933 29.9266 72.5701
12.8275 30.7066 75.4171
13.1014 30.4201 73.4282
12.7772 30.1131 73.5876
12.7423 30.0343 74.2118
12.9076 30.2965 74.1351
12.951 30.5274 74.4508
12.827 29.814 71.7762
12.4799 30.1833 73.8375
12.6447 30.3456 74.0144
12.3034 29.7896 74.4096
12.3359 29.0535 72.5115
12.4594 29.9313 74.2068
12.6093 30.2953 74.0062
12.3498 29.9145 74.7807
12.3734 29.4116 73.0008
12.4338 30.2863 75.2191
12.236 29.4023 74.0868
12.49 30.136 74.2765
12.1938 29.5894 74.5873
12.2253 29.5886 74.1677
12.2168 29.5032 74.0947
12.1017 29.5784 75.2582
12.3279 29.7076 74.2848
12.0771 29.4832 74.2623
11.9608 29.5203 75.3981
12.1526 29.6226 75.0219
12.0873 29.4005 74.367
12.1021 29.9992 75.8902
12.038 29.9077 76.3669
11.9239 28.9892 73.4334
11.545 28.5487 73.4773
11.6458 28.7775 74.2487
11.8154 28.7745 72.721
11.4439 28.8408 75.4544
12.1278 29.8706 76.2919
11.9855 29.6537 74.4397
11.3606 28.6742 75.4437
11.8255 29.6129 76.5876
11.8822 29.4991 74.5959
11.4412 29.0098 75.7855
11.6211 29.0636 74.8987
11.5225 29.3754 75.5589
11.0429 27.9953 74.863
11.6643 29.3702 76.8096
11.4547 29.5613 83.4643
13.5639 33.1824 80.7776
11.6551 29.3652 76.5755
11.4885 29.5394 77.6161
11.3727 28.7964 75.7209
11.3751 28.9324 75.3134
11.0844 28.6855 76.3652
11.2787 28.88 76.0041
11.1477 28.0989 74.5869
11.3035 29.0225 76.4096
11.0539 28.6876 76.0551
10.8132 27.3665 74.1074
11.0108 28.4033 75.1064
11.0195 28.0204 73.9519
10.803 27.5691 73.1133
10.745 27.6696 73.1692
10.6122 28.3467 77.5026
11.2126 28.6284 75.1943
10.5659 27.9352 76.0833
10.818 27.7605 75.3433
10.7352 27.7743 76.9586
10.9778 27.9163 74.8998
10.9489 28.451 76.1108
10.6978 28.0318 76.3061
10.7646 27.8925 76.9115
10.9649 27.6146 72.3555
10.3537 27.8158 74.9815
10.4021 27.422 74.7537
10.5214 27.7983 76.1153
10.5283 27.6611 75.2627
10.295 26.8645 73.8216
10.2988 26.7708 72.7054
10.1093 27.2073 75.5599
10.2885 26.5978 72.295
10.0833 27.0328 75.1413
10.456 27.632 76.065
10.3421 27.0852 72.9613
10.009 27.2822 75.7251
10.2321 27.1778 75.2598
10.0623 26.6343 74.2445
10.2441 27.6837 75.7015
10.0195 26.7862 74.0844
9.90918 27.1917 75.4327
9.70985 26.2053 74.3532
10.1109 27.3083 75.7048
9.8675 26.3291 73.7798
9.86141 26.7159 75.8503
10.0752 26.8412 74.1023
9.81029 26.8488 75.1866
9.5588 25.7624 73.9417
9.96188 27.0639 75.7328
9.67007 25.677 72.3772
9.62757 26.4095 75.1389
9.77012 26.2447 72.6898
9.56968 26.8878 76.8659
9.67637 26.04 74.7512
9.87505 26.7432 74.4597
9.46361 26.2133 74.8717
9.48638 26.0882 75.4944
9.65684 26.2918 75.6374
9.69813 26.2554 74.8145
9.60993 26.5045 75.2922
9.5412 26.4014 75.2673
9.44788 25.8162 74.4072
9.61148 26.8535 75.0409
9.20521 25.4641 74.1594
9.36908 25.92 73.3192
9.14361 26.0141 74.8105
9.12511 25.2786 74.0957
9.34664 25.7642 73.568
9.13973 26.1084 76.8914
9.42791 25.765 73.4033
9.07475 25.5215 74.8489
9.44821 26.7503 77.1783
9.15769 25.3039 74.1581
9.05658 25.09 74.1381
9.27652 25.6635 73.8391
8.98592 25.5495 75.3839
9.20085 26.228 76.8415
9.18973 25.6556 74.7286
8.96987 25.0343 73.7556
8.90305 25.5599 75.7522
9.12747 25.952 76.5077
9.05348 25.1674 73.4393
8.97051 25.7001 74.4197
8.7854 24.9473 74.4961
9.00603 25.506 75.5814
8.90564 25.5659 76.0403
8.98247 25.0528 73.2441
8.71398 24.9978 74.4122
8.81928 25.4194 75.6289
8.90773 25.8776 77.5631
8.91192 25.1105 75.9962
8.96575 25.3998 75.8006
8.85718 25.3472 76.4489
9.00554 25.3748 75.2004
8.63929 25.3673 81.8358
10.0761 28.4233 77.5632
8.59648 24.9864 74.6465
8.62349 25.0728 74.717
8.57507 25.2022 76.0903
8.66793 25.2944 74.974
8.31437 23.9782 74.385
8.51586 24.3296 75.0888
8.70729 24.9605 74.4428
8.4303 24.57 73.7312
8.42996 24.6332 74.2372
8.37432 24.5255 75.0242
8.51637 25.0248 76.4192
8.5884 25.5306 77.6391
8.39196 24.2017 74.1071
8.409 24.4205 74.6702
8.43717 24.9905 75.1303
8.28245 24.2106 73.7191
8.06787 23.9505 73.8377
8.18994 23.7203 72.7945
8.0315 23.8737 75.1022
8.34952 24.3799 74.5465
8.45102 25.507 77.7585
8.43416 24.6701 75.0274
8.26462 24.7828 76.5434
8.24764 24.4016 75.4239
8.19324 23.9523 73.3773
8.08356 24.1869 74.5895
8.09479 23.9608 75.8597
8.2589 24.3221 73.8505
7.99663 23.9956 74.7622
8.0929 24.2329 75.5704
8.20673 24.4948 76.1274
8.04785 23.89 74.4609
7.99349 23.9509 75.373
7.97878 23.6992 74.8508
8.0493 24.0168 73.6766
7.80191 23.5008 74.5733
7.99404 24.073 76.787
8.1684 23.8326 73.9808
7.92722 23.6913 72.7367
7.6099 23.0528 72.9503
7.76888 23.6415 73.238
7.63873 22.8595 72.3535
7.65454 23.1342 73.1204
7.84961 24.113 74.3837
7.60628 23.2345 73.8447
7.65624 22.8588 71.1434
7.28857 22.3009 72.7029
7.58137 22.7197 71.8157
7.50244 23.3748 74.401
7.56474 23.0104 74.0582
7.65005 22.8666 72.9852
7.66063 23.4908 73.4182
7.63194 23.8783 76.3605
7.6044 22.7116 72.9593
7.46442 22.9909 74.0043
7.67801 23.6231 75.0309
7.41537 23.0367 76.9118
7.87105 23.0313 70.9156
7.33004 23.1803 74.9865
7.51563 23.0361 74.7697
7.50192 22.8575 74.1623
7.50457 23.007 73.6851
7.43606 23.1264 74.6389
7.47688 22.7341 71.8513
7.24493 22.4613 73.3359
7.41044 23.0911 74.053
7.31032 22.5606 73.17
7.25881 22.313 73.0388
7.37175 22.789 73.0628
7.25074 22.7707 73.4881
7.17656 22.5574 74.1572
7.34005 22.8257 74.4109
7.31408 22.871 73.523
7.19694 22.5574 74.0403
7.20718 22.2897 73.7858
7.1685 21.9226 72.0317
7.13412 22.657 73.4534
7.16116 22.4308 74.3058
7.30776 22.664 73.9116
7.17507 22.0398 72.0474
7.10151 22.3204 71.9471
6.934 22.0265 73.2293
7.08721 22.2475 73.106
7.06495 22.1065 71.378
6.79883 21.741 72.7213
6.95312 21.745 73.0992
7.02149 21.6691 71.279
6.91301 22.1252 72.8813
6.93937 21.5731 71.0452
6.76891 21.5491 72.2315
6.89863 22.0857 73.0424
6.86282 21.5463 71.9863
6.89728 22.2121 73.3916
6.8134 21.6276 72.9577
6.98523 23.0344 82.1175
7.8975 23.8916 73.3132
6.76076 21.82 73.1676
6.829 22.2524 76.1303
7.18081 22.5702 73.695
6.8344 21.628 71.664
6.65664 21.3894 72.7541
6.67258 20.9986 70.835
6.76037 21.8753 72.5539
6.70675 21.3682 71.5687
6.58659 21.3467 72.375
6.70445 21.6839 72.7602
6.74846 21.3858 72.4016
6.67591 21.4653 71.7896
6.66322 21.7574 73.9654
6.78655 21.893 72.6257
6.49566 21.0111 72.7608
6.71889 21.6962 73.4092
6.74639 21.9497 73.7494
6.73365 21.5188 72.5741
6.51812 21.0804 71.119
6.50004 21.2272 73.4565
6.63199 21.1965 72.2924
6.47086 20.5941 70.9802
6.46067 21.0389 70.9187
6.48065 20.8659 71.1346
6.40332 20.8444 70.8915
6.44958 21.4282 74.0376
6.63773 21.3969 71.4606
6.41015 21.0933 71.702
6.43668 21.1384 72.8955
6.52508 21.6675 73.0774
6.36153 20.9994 74.6007
6.65355 21.4012 74.1649
6.61178 21.4978 74.7613
6.65371 21.3758 72.1027
6.36938 21.2874 73.8924
6.50829 21.416 73.0673
6.45104 21.1501 71.3551
6.24565 20.5171 73.8186
6.65792 21.9148 73.6168
6.38847 20.8683 70.6106
6.18177 20.4873 70.9313
6.14833 20.3664 71.069
6.11258 20.0663 71.2517
6.26512 20.5501 71.6889
6.31975 21.0102 72.1784
6.20776 20.6814 71.9535
6.19622 20.2156 71.0592
6.22432 20.4577 70.445
6.14592 20.3083 69.637
6.05967 20.5552 72.3158
6.26484 21.0912 72.7906
6.16823 20.3254 72.1924
6.25357 20.9237 72.3698
6.1679 20.3757 69.4469
5.98192 20.4581 72.956
6.26206 20.671 71.7773
6.14394 20.5471 72.7486
6.22758 20.5519 72.1576
6.17234 20.9367 72.7763
6.06722 19.8554 70.731
6.08087 20.5956 71.817
6.08653 20.2465 70.7066
5.99671 19.9389 71.2508
5.97762 19.8437 70.161
6.02966 20.8172 74.0375
6.19388 20.3354 72.0627
6.05208 20.2536 71.733
6.06662 20.2937 72.279
6.08961 20.4613 72.8953
6.1397 20.7832 73.1995
6.0222 20.3278 71.8017
6.00038 20.3978 71.5733
5.92076 20.0127 71.6004
6.00034 21.0453 74.6829
6.13692 20.3639 73.0002
6.08379 20.068 71.284
5.90053 20.4429 72.5776
5.96831 20.3278 71.7754
5.84256 19.7813 70.8491
5.9141 20.3325 70.9307
5.78261 19.6593 72.0374
6.0189 21.1009 74.5847
5.94973 19.8933 73.546
6.04608 19.9737 70.8911
5.9386 20.4742 73.8455
6.00154 20.3583 73.2283
5.92821 20.2374 72.2021
5.82835 19.7848 71.311
5.85972 20.3545 73.6332
5.94516 20.0836 72.0587
5.88751 20.1853 72.0518
5.86512 20.3448 73.945
5.97403 20.0136 73.2977
5.92743 20.5621 74.445
6.02726 21.2349 80.0788
6.45425 21.4456 74.2378
5.93563 20.4958 72.8972
5.8803 20.1445 72.5122
5.74965 19.9673 72.3024
5.82249 20.252 73.23
5.82772 20.0076 73.0295
5.78183 19.6707 72.5763
5.84134 20.0333 70.393
5.64824 20.0437 72.8366
5.74369 19.4001 70.5914
5.66092 19.8452 71.3907
5.6049 19.5326 73.3066
5.8273 19.5568 70.3111
5.63023 19.7836 71.5113
5.56039 19.6474 72.4953
5.69686 19.8111 72.0831
5.71097 19.9663 72.8888
5.75293 20.0664 72.5639
5.67827 19.7972 72.9473
5.74376 19.7627 70.1312
5.48631 18.86 71.2014
5.6732 19.8107 71.3264
5.63798 19.6765 72.9203
5.64188 19.301 72.1287
5.64959 19.5011 70.2214
5.4722 18.9771 69.2032
5.36212 19.5643 72.3469
5.58723 18.9928 70.4907
5.4451 18.7915 69.9521
5.48477 19.3475 70.2219
5.45771 18.9974 69.5221
5.43226 18.9116 69.9784
5.45625 19.558 71.4556
5.45941 18.8648 69.2699
5.3341 18.7317 69.5266
5.38332 18.939 70.8397
5.47294 19.2572 69.8119
5.34362 18.8949 72.47
5.5801 19.3539 71.4625
5.41591 18.8065 71.3046
5.50012 19.1548 70.1318
5.41063 18.9988 69.7231
5.30158 18.7894 70.6765
5.38398 18.8284 70.0546
5.38641 18.9356 70.0872
5.35245 19.0755 70.5858
5.30429 18.3817 70.3424
5.44767 19.645 71.7872
5.36855 18.4293 69.2192
5.33258 19.2244 69.6203
5.24537 18.6225 69.329
5.21275 18.5795 69.9313
5.29812 18.6344 69.069
5.22787 18.5174 70.3861
5.31193 18.711 69.6954
5.24706 18.4067 67.1986
5.08851 17.9395 67.7217
5.10164 18.5113 70.6064
5.29546 19.1471 72.2463
5.40383 18.4513 69.468
5.3139 18.8939 69.2435
5.16431 18.8366 71.3464
5.25932 18.3701 70.3869
5.32928 18.7195 69.6622
5.2343 18.8106 70.4027
5.26957 18.7986 69.6586
5.1812 18.6461 69.0405
5.12719 18.281 71.0547
5.29433 18.8344 69.2873
5.13016 18.475 71.1853
5.29313 18.4736 69.3348
5.13271 18.2727 69.3471
5.15353 18.1547 67.9836
5.09781 18.4639 69.6405
5.12086 18.0586 67.7455
5.05446 18.431 70.341
5.16854 18.0801 68.5162
5.09691 18.6998 71.1085
5.21228 18.4732 69.8705
5.11125 18.3368 69.7266
5.13329 18.4192 68.8022
5.05661 18.2778 69.4267
5.09634 18.6684 69.833
5.08207 18.1069 69.6445
5.10136 17.8599 68.1345
4.96659 18.343 69.458
5.03834 18.3189 69.5328
5.0517 17.7309 69.7782
5.09617 18.2689 68.9623
5.03733 17.9051 69.8589
5.16646 18.4537 68.6112
4.97586 18.4111 70.5997
5.13456 18.1068 67.68
4.9372 18.4285 69.9708
5.03718 18.0102 67.8259
4.88063 18.2751 73.907
5.31235 18.7324 69.852
5.0717 18.4663 70.0188
5.03478 17.9751 69.0554
4.96784 18.0424 69.1137
4.95813 17.6307 70.0569
5.10773 18.3495 67.4827
4.87643 17.9598 70.1774
5.02741 18.3206 69.2263
4.91782 17.6285 68.2968
4.97939 17.9635 67.9481
4.89205 17.3851 66.179
4.75525 18.0133 70.6175
5.00851 17.6041 67.3513
4.91032 18.1943 68.9101
4.85046 17.6065 67.881
4.86632 18.0479 69.2422
4.93311 17.6671 68.8645
4.92473 17.8045 66.5156
4.76637 17.5201 68.0708
4.83211 17.978 69.4946
4.92963 17.5904 68.5954
4.87925 17.8696 69.5798
4.93769 18.2089 68.6089
4.8646 17.829 68.2117
4.82513 17.868 69.5813
4.87916 17.5437 67.434
4.79674 17.5386 68.5115
4.86755 17.6054 67.5767
4.79339 17.4215 67.263
4.77541 17.6108 67.6599
4.79677 17.5266 66.6598
4.69514 17.5486 68.1201
4.78576 17.7174 70.8588
4.97206 17.6383 66.4353
4.64416 17.3765 68.4172
4.81156 17.89 69.8464
4.94262 18.0671 70.0825
4.91942 17.5298 68.2362
4.76861 17.4474 66.5063
4.71935 17.2585 68.5891
4.81113 17.792 67.5206
4.75797 17.6387 68.2079
4.72172 17.2115 68.5548
4.80042 17.5679 67.63
4.70776 17.0122 66.1983
4.61352 17.4676 67.6814
4.69846 17.246 67.2328
4.73462 17.3029 68.2794
4.77802 18.0413 70.2755
4.88207 17.5521 67.6975
4.71864 17.2886 67.2028
4.67101 17.1246 65.9554
4.60964 17.3501 67.4578
4.6761 17.1397 67.0524
4.69044 17.5561 69.2289
4.81675 17.2425 69.6147
4.85219 17.6023 67.7218
4.72612 17.926 69.3634
4.76422 17.6069 68.8782
4.70437 17.1217 66.8954
4.59687 17.4212 70.0091
4.80396 17.4416 68.3306
4.79009 17.6321 67.6684
4.65111 17.9787 70.5187
4.8315 17.7311 68.0574
4.62761 16.939 65.9872
4.63799 17.4002 69.0996
4.72021 17.4738 67.9347
4.68956 17.3813 67.7884
4.61986 16.9077 67.8709
4.71192 17.3035 66.2833
4.59942 16.8882 66.5432
4.58145 17.4236 67.9552
4.66997 16.9921 68.0745
4.67964 17.19 67.0833
4.59394 17.3096 68.7974
4.7303 17.6203 68.5982
4.72432 17.1422 66.8408
4.6231 17.3079 68.3262
4.64832 17.3061 68.4548
4.65923 17.2989 68.0611
4.65172 17.1695 67.842
4.67454 16.8441 66.2678
4.52888 16.9014 66.929
4.58607 16.7433 66.6655
4.57031 17.255 69.0478
4.69156 17.1339 67.6034
4.64759 17.3816 68.3634
4.68167 17.1158 66.3036
4.53672 16.8841 67.2725
4.57745 17.4084 68.1646
4.64753 16.9254 67.2617
4.56411 17.2632 66.5467
4.52509 16.7695 67.1482
4.57385 17.2067 69.1444
4.69917 18.0642 71.4179
4.7945 17.1959 65.0175
4.42584 16.9391 67.1486
4.55351 17.0872 66.1895
4.50299 16.7647 67.8645
4.59531 17.0901 68.4664
4.65727 17.2848 67.5799
4.577 17.244 68.1807
4.61667 16.8822 67.2645
4.62796 17.3115 68.1712
4.5951 17.0082 67.6265
4.58914 17.0598 66.6859
4.4933 16.668 67.2737
4.52384 17.4447 68.7357
4.61561 16.986 67.2928
4.58339 16.9819 66.2265
4.48144 16.8141 69.7436
4.72673 17.2636 67.198
4.51524 16.9139 68.1534
4.59958 16.9974 66.6599
4.49271 16.839 66.1346
4.47952 17.1595 67.8182
4.55963 17.0006 67.6473
4.52078 17.067 68.4164
4.63716 17.5361 68.5356
4.61359 17.2664 67.402
4.54304 16.7354 67.0351
4.54091 17.1336 67.1988
4.49455 17.1797 68.4819
4.60346 16.6288 66.0261
4.45518 17.0266 67.4424
4.51052 17.0381 68.7038
4.61832 17.1968 69.0784
4.65384 17.1977 68.0331
4.56926 17.4235 68.53
4.57744 16.9383 67.5101
4.52127 16.9369 68.402
4.61046 17.3697 67.7647
4.53479 16.9397 67.7839
4.53435 17.3194 67.8059
4.50397 16.5926 67.5933
4.58538 17.0202 66.978
4.51117 16.6369 67.2284
4.45275 17.1299 66.924
4.49362 17.026 68.348
4.57178 16.7194 67.2954
4.48332 16.9656 65.0879
4.31564 16.7646 68.22
4.53833 16.9895 66.3866
4.47383 16.576 66.2724
4.44153 16.7225 68.2456
4.57823 17.1231 67.7028
4.52866 16.6981 66.5641
4.4564 16.6365 66.8266
4.50842 16.8616 66.9477
4.42937 17.0456 68.0519
4.53657 17.1611 67.5992
4.49594 16.7149 67.0633
4.47447 17.0117 66.8854
4.49569 16.9665 68.5539
4.5822 17.0754 69.2972
4.63543 17.0337 66.4543
4.44224 16.8244 67.0333
4.43349 16.7268 67.2919
4.49468 17.1272 69.1814
4.61732 16.9696 67.1544
4.51723 16.9918 67.2497
4.49521 17.0851 67.1385
4.47732 16.5541 67.3195
4.48103 17.2517 66.1725
4.37147 16.7954 68.3664
4.56019 16.6957 67.8665
4.50312 16.9045 68.7371
4.59913 17.0272 67.4894
4.47984 16.9861 66.4724
4.44011 16.9372 67.1575
4.48154 16.5359 67.1152
4.46918 16.6571 66.5947
4.45546 17.0734 66.7625
4.44557 16.9606 66.6599
4.4519 16.899 68.2968
4.55777 16.5043 68.0183
4.53299 17.2451 66.8529
4.47632 17.0074 66.9098
4.44819 16.9952 68.7109
4.55882 16.89 68.034
4.54303 16.9081 68.9644
4.58912 17.4726 69.1119
4.59296 17.1454 68.2297
4.49859 17.0055 68.2621
4.52221 16.9069 68.6506
4.57294 17.3074 69.1715
4.61421 17.2504 69.2861
4.60006 17.4651 70.6442
4.65201 17.785 70.8414
4.73924 18.1468 69.4299
4.62231 17.8739 75.7485
4.99443 0 0