# pn-170911/RbIIR-57-AMC2-1280-1959.psd
# Power spectrum* (dif=0,1,2) (really just |FT|^2)
# NOTE: only the first half! (symmetric)
# weeks: 1280-1959
# 475 clock-days, 25 excluded
# PSD: 1441
803.535 0.0786272 0.0588227
25697.2 0.464038 0.102871
157054 3.36521 0.103594
15294.2 0.528558 0.0968856
55218.4 4.38417 0.113837
5090.13 0.458066 0.112207
5115.97 0.684282 0.102894
2750.75 0.481406 0.101466
3885.96 0.919551 0.0930281
1485.18 0.447752 0.0976633
1608.87 0.580725 0.100988
1210.03 0.537356 0.0990042
1148.32 0.613068 0.0927824
883.841 0.540302 0.103353
836.824 0.610506 0.0979064
687.027 0.559714 0.101682
732.505 0.751857 0.0951738
624.905 0.688203 0.0898651
550.238 0.711219 0.093724
507.025 0.749273 0.0906152
540.75 0.810572 0.0967518
453.362 0.798087 0.101187
478.05 0.938704 0.11068
402.193 0.876122 0.10208
417.988 0.98164 0.104708
382.562 0.982715 0.095076
377.38 1.01223 0.102255
353.124 1.03191 0.0995114
369.942 1.20175 0.10748
322.14 1.148 0.10286
340.452 1.28208 0.109839
325.104 1.28811 0.116197
309.205 1.29421 0.10966
301.116 1.4112 0.104412
315.068 1.5753 0.113893
315.09 1.70953 0.113601
300.318 1.72291 0.115735
291.745 1.70922 0.103698
302.218 1.8313 0.113447
267.358 1.75574 0.119332
263.16 1.90182 0.116688
270.868 1.96771 0.113085
271.344 2.08965 0.115757
276.768 2.10994 0.12193
261.099 2.17425 0.109525
243.711 2.1997 0.116917
246.373 2.23795 0.125654
253.485 2.39695 0.129817
291.731 2.89314 0.134716
243.172 2.60491 0.125246
235.089 2.64729 0.132656
252.705 2.91191 0.133778
225.249 2.72067 0.142583
216.748 2.70749 0.138265
245.298 3.23182 0.140661
224.364 3.14886 0.138063
230.947 3.15122 0.147988
226.813 3.32637 0.149709
245.855 3.73 0.160867
238.652 3.83147 0.154555
221.728 3.51365 0.160696
214.049 3.70233 0.170443
264.358 4.72109 0.18891
222.397 3.9566 0.17584
195.755 3.62368 0.169706
224.581 4.22111 0.176169
195.999 3.9847 0.183814
223.776 4.57522 0.207032
204.84 4.33731 0.193607
225.783 4.80565 0.210819
204.909 4.5878 0.208532
211.801 4.96555 0.212738
226.402 5.5245 0.239466
205.04 4.9896 0.227781
213.171 5.29163 0.23072
186.84 4.85306 0.229717
188.02 4.83654 0.233127
200.853 5.45128 0.253336
205.847 5.72534 0.269711
184.691 5.23451 0.265357
195.473 5.75114 0.277931
193.683 5.77518 0.274094
189.757 5.86747 0.299448
192.798 6.13892 0.301021
205.564 6.52438 0.312234
172.021 5.73083 0.296393
184.275 6.23416 0.331973
178.98 6.25672 0.316502
179.518 6.54055 0.34772
174.497 6.35728 0.356504
168.937 6.12653 0.325858
173.896 6.67755 0.344796
173.483 6.85109 0.37628
159.076 6.19562 0.36641
171.042 6.82636 0.383097
158.984 6.70786 0.368209
249.598 10.751 0.525956
155.833 6.75626 0.383222
165.712 7.209 0.417606
164.757 7.42427 0.458049
164.815 7.7635 0.454855
172.315 8.26081 0.492174
187.926 8.98895 0.572614
164.569 8.16162 0.497071
153.139 7.57413 0.493993
149.061 7.46441 0.477081
158.917 8.22904 0.52631
151.887 7.96602 0.534657
152.664 8.36273 0.537024
152.048 8.33679 0.564672
161.106 9.01935 0.591144
146.201 8.31779 0.57776
132.561 7.83461 0.534388
146.76 8.69063 0.622453
174.419 10.5092 0.753907
162.222 10.0246 0.726739
140.167 8.71015 0.6443
143.204 8.97132 0.667156
136.968 8.72003 0.66257
138.167 9.12505 0.6754
145.539 9.78423 0.769188
148.042 10.2039 0.773483
133.061 9.10387 0.730355
143.727 10.0896 0.78997
130.356 9.31017 0.765486
130.95 9.67881 0.805362
158.24 11.5638 0.925509
132.552 9.96215 0.834103
134.759 10.2551 0.874568
138.442 10.6153 0.903159
128.318 10.2848 0.939778
154.616 12.4129 1.0781
150.323 12.0979 1.05371
131.493 10.6183 0.963453
127.711 10.7773 0.997753
135.418 11.4805 1.11119
143.46 12.1963 1.17169
131.67 11.5714 1.09749
130.018 11.2016 1.07581
126.553 11.4699 1.13734
124.517 11.4459 1.15124
121.302 11.1371 1.11618
123.103 11.442 1.18079
126.784 12.1589 1.25812
136.159 13.2933 1.32111
139.469 13.4238 1.37486
114.513 11.4267 1.23026
124.069 12.3506 1.34055
114.741 11.8452 1.31249
114.4 11.7538 1.31011
124.989 13.1509 1.49795
122.384 12.5993 1.43932
127.158 13.5444 1.5556
113.022 12.2496 1.38883
120.033 13.1707 1.59963
120.475 13.6416 1.61918
136.096 15.3688 1.81888
120.369 13.8102 1.61828
118.18 13.6484 1.67017
108.792 12.7492 1.62569
115.465 13.7714 1.68778
127.657 15.3435 1.96038
109.738 13.1456 1.67139
110.919 13.7259 1.73465
110.149 13.9057 1.85805
109.064 13.6206 1.8192
115.058 14.5935 1.93383
106.022 13.9148 1.94356
121.183 15.9172 2.1641
115.032 15.0629 2.0578
110.186 14.8177 2.04847
111.456 15.436 2.16447
102.96 14.2123 2.03596
111.004 15.4614 2.26896
128.586 18.1769 2.6027
116.643 16.7722 2.4157
105.219 15.176 2.25264
104.263 15.006 2.27982
99.5909 14.6795 2.28754
105.881 15.6596 2.37879
108.534 16.3598 2.51872
113.531 17.3532 2.708
109.658 16.5328 2.5982
99.5626 15.3385 2.44901
103.7 16.5541 2.68139
114.226 17.9769 2.92672
110.767 17.577 2.82056
106.853 16.9021 2.76392
98.5808 16.6318 2.86743
100.061 16.5787 2.86012
95.8552 16.0752 2.70952
108.146 18.3821 3.09818
113.417 19.6575 3.39948
91.2786 15.3168 2.64581
89.9235 15.8793 2.91743
101.572 17.8628 3.16666
93.3744 16.3803 3.00423
94.1749 16.5462 3.03742
102.811 18.4509 3.46283
86.8103 16.2167 3.09866
94.8787 17.4705 3.31229
97.1598 18.1251 3.48436
102.025 19.2015 3.67452
90.4013 17.5976 3.52435
114.822 22.2298 4.3169
97.8768 18.872 3.71913
92.2581 18.1786 3.67351
88.46 17.0915 3.42213
89.5702 17.6743 3.59041
91.7062 18.5343 3.91999
96.6349 19.7146 4.09969
89.4404 18.279 3.85206
87.4449 18.1727 3.89909
86.7526 18.1334 3.84741
84.7443 17.8322 3.93837
85.7001 18.9139 4.10136
88.8189 19.5729 4.36368
103.242 21.6469 4.59337
82.5798 18.1987 4.13175
85.2539 18.6657 4.1255
87.9689 19.3895 4.3885
84.9544 19.2065 4.37228
92.2494 21.1595 4.93916
92.5708 20.7741 4.80671
74.429 17.1407 4.08816
86.5964 20.0258 4.61459
82.6736 19.2854 4.58568
80.431 19.4559 4.78978
97.1497 23.0054 5.46091
80.5959 18.9894 4.60023
86.4278 20.976 5.14823
80.1464 19.9926 4.94563
78.2036 19.3475 4.82552
92.3926 23.5162 6.08279
91.3159 22.9265 5.89086
75.864 19.3403 5.07962
85.4832 21.8032 5.62437
81.63 21.1251 5.47933
81.8227 21.0929 5.59593
76.149 20.2369 5.6186
80.8037 21.0279 5.59326
85.5902 22.4873 6.04248
85.0943 22.979 6.21079
78.0576 21.2964 5.89922
80.9099 22.0711 6.14886
80.1061 21.2967 5.78178
84.9224 23.4177 6.57475
72.1009 20.5253 6.02203
85.9493 24.038 6.83172
76.2776 21.1746 6.04931
72.6766 21.0966 6.02554
76.3582 22.7066 6.85359
77.0812 22.3561 6.64966
68.3506 20.2257 6.21993
78.9066 22.6302 6.52357
66.1837 20.2806 6.23134
74.1852 21.9601 6.56651
86.3599 26.9537 8.40415
75.2879 22.4515 6.72878
71.1458 22.2221 6.9079
68.3663 21.9549 6.94974
72.891 22.1067 6.86785
71.7475 22.4441 7.09602
73.2375 23.7764 7.72244
76.6464 24.5111 7.95067
74.0984 23.2172 7.33506
68.384 22.434 7.36577
66.4758 21.9199 7.33095
68.3265 22.3357 7.53043
71.3472 23.8683 7.96298
69.598 23.4404 8.05981
64.8077 21.3338 7.11823
69.1175 22.8936 7.72994
71.927 24.8011 8.47141
65.0835 22.5162 7.85642
66.8615 22.5242 7.86465
71.5549 25.7272 9.18939
65.9496 22.3812 7.79719
66.0586 23.0819 8.29238
65.298 22.594 7.89508
69.1975 25.13 9.17316
67.206 23.9323 8.94516
71.3928 25.4939 9.25151
68.3541 24.786 9.12975
64.5166 23.9219 8.8982
59.3823 21.7816 8.13833
65.2868 24.2893 9.31599
65.6985 24.9177 9.59102
79.7014 29.8766 10.9539
63.1984 23.7693 9.04972
60.2342 23.1548 9.01837
59.1068 23.0883 9.01174
61.4584 23.7704 9.39527
62.9814 24.9287 9.82571
60.6257 23.8977 9.36505
60.5851 23.9444 9.46656
59.6292 23.9338 9.69002
60.3037 24.9448 10.4454
68.0153 26.8661 10.7109
61.2604 25.4009 10.6383
66.3125 26.6646 10.803
54.8451 22.4961 9.49971
59.1068 24.6393 10.3893
58.5747 24.1545 10.1093
58.2347 24.5879 10.352
57.9791 24.6612 10.9164
59.8169 25.2513 10.8239
56.6372 23.6866 10.3246
61.8213 26.3068 11.2359
60.8714 26.2199 11.5285
55.7529 24.1095 10.8356
57.129 24.5976 10.7431
61.5893 27.4371 12.3091
56.8063 25.0906 11.2978
56.8954 25.2909 11.1882
53.585 24.2923 11.2641
55.1662 24.8596 11.2865
56.378 26.2022 12.0876
59.3575 27.4127 12.737
60.4128 27.8516 12.8274
54.3695 24.9493 11.873
52.9916 24.6314 11.6429
59.0252 27.2367 12.8163
57.025 26.1304 12.5043
55.0296 26.7043 12.9433
50.8266 23.9525 11.3254
55.7541 27.1012 13.1875
53.3706 25.68 12.7034
57.8506 27.9239 13.8738
57.3119 28.1087 13.9711
50.7068 24.6937 12.332
51.3647 25.564 12.9661
55.9668 27.3682 13.5107
55.9948 27.8652 13.8523
51.4753 25.6951 13.1493
54.1726 26.9197 13.7083
57.6392 28.2852 13.961
45.655 24.3184 13.1037
52.5371 26.8542 13.993
51.6864 26.2532 13.5618
47.107 24.6251 13.139
55.073 28.4795 14.6147
49.1684 25.4909 13.3006
51.416 27.5466 14.6137
53.6012 28.4194 15.1956
49.8879 26.7479 14.5848
43.9905 24.0042 13.3681
49.5482 26.2765 14.2664
50.7168 26.7426 14.3256
48.4863 26.4599 14.2723
48.0072 26.7008 15.0051
48.1973 27.1363 15.3882
50.4347 28.1419 15.8201
51.1016 28.4747 15.8778
47.7752 26.2563 14.6775
42.285 23.8579 13.6833
48.7869 27.7534 15.8862
46.1856 26.6902 15.4751
48.8841 28.1434 16.2766
46.7847 26.7386 15.5294
43.7895 26.0186 15.1857
43.1184 25.7162 15.5088
44.8909 26.14 15.386
46.1137 27.0094 15.817
46.1649 27.812 16.8963
49.7812 29.3811 17.8281
46.7641 27.1743 16.2783
43.3634 26.5315 16.3961
44.0397 26.0202 15.6123
44.287 26.8695 16.4427
46.2416 28.9315 18.324
44.7656 27.8788 17.5939
47.6501 28.7965 17.7561
46.0672 28.1003 17.7993
44.6338 27.2163 16.7048
43.9114 27.3892 17.2652
43.8307 27.8193 17.7633
45.4563 28.3566 18.0974
44.1148 27.9104 17.6598
41.7418 26.9382 17.4393
40.0463 26.1016 17.2828
44.4021 28.3496 18.159
43.2334 28.309 18.7898
42.683 28.3625 19.2722
49.8112 31.7449 20.5538
47.0739 31.1624 20.7442
44.611 28.3489 18.5272
43.5847 28.6245 18.9364
40.626 26.6155 17.6479
41.395 27.5495 18.3752
41.1506 28.3772 19.5871
39.2522 26.0495 17.6289
39.4261 27.5896 19.134
38.0715 25.7058 17.8579
39.8593 27.4907 18.9532
41.2781 29.2255 20.907
41.8262 29.0408 20.2089
39.4975 28.0482 20.0956
39.4195 27.2293 19.0489
36.636 25.6753 18.6508
40.9913 29.5203 21.1723
39.5438 27.8086 19.9719
37.2765 26.9575 19.8086
39.6835 27.7383 19.3592
38.5999 27.7827 20.2181
36.111 26.7915 20.1593
38.7565 27.6363 20.226
38.9958 28.3349 20.811
38.1176 27.7334 21.1061
40.2147 29.3195 21.4935
38.3135 29.4668 22.8366
41.1672 29.3839 21.2653
38.1789 28.8655 21.918
38.6287 28.4343 21.2439
36.3143 27.1736 21.0935
39.2789 30.0579 22.931
35.5991 27.029 21.1889
39.6164 29.761 22.3901
37.1472 29.4776 23.4417
37.0904 28.5021 22.7867
37.2052 28.3105 22.2958
38.8629 29.6781 22.7962
39.4949 30.9099 23.9466
36.5234 28.4226 22.6007
37.3656 29.0334 22.9704
35.9423 29.1642 23.9122
38.7877 29.4757 22.3203
35.0522 29.5807 24.7033
34.9203 27.6909 22.7683
36.6273 29.5576 24.069
36.0295 28.2632 23.1113
37.523 29.9202 24.1193
39.9445 33.4565 27.745
34.6606 27.6379 23.0907
36.5442 29.3177 24.2914
36.1295 29.5779 24.5956
37.1954 30.3684 25.0767
34.5441 28.373 23.4197
35.5836 30.3089 25.7243
33.2284 27.8797 23.9618
29.7319 24.1231 20.3429
29.4367 25.8625 23.0348
33.5244 27.8898 23.3752
32.3793 27.1268 23.011
31.4774 26.8842 23.1302
32.6205 28.9809 26.0111
32.9177 27.7186 23.8607
34.639 30.019 25.6474
32.0229 27.7985 24.6185
31.6438 28.1299 24.7162
32.4542 28.8106 25.2842
28.7762 26.0768 23.6501
29.39 25.9794 23.5794
31.2329 27.4486 24.7142
30.8789 27.8213 25.5526
30.3867 26.9743 24.7996
33.0554 29.642 26.774
33.2136 29.9512 27.5513
35.3486 32.2774 30.0146
31.5786 28.6384 26.0954
31.709 29.4891 27.8381
33.5084 30.1763 27.5685
30.7045 27.9926 26.1088
31.0071 27.9259 25.9609
32.2955 29.9852 27.9624
30.2861 28.7447 27.4836
30.8786 28.8926 27.5405
31.5029 29.3163 27.6925
29.6546 27.9223 26.9482
31.4745 29.4124 27.629
31.1915 29.354 28.1549
31.2221 29.4656 27.9659
30.1286 30.0231 29.6278
30.5309 29.7415 29.7856
31.155 28.8387 27.4189
28.061 27.1381 26.8068
33.1401 31.7586 30.1955
28.3059 27.8039 27.514
29.4779 29.4742 29.9448
30.1414 29.5502 30.7664
35.5417 34.1041 32.4313
30.2677 30.4958 30.9954
30.2102 30.3331 30.6969
30.1695 29.1251 29.1971
30.0338 30.424 31.4467
34.1073 32.892 31.2716
27.7464 29.4249 31.3792
30.8949 31.5739 32.0655
28.3667 27.8286 28.5633
29.1212 29.024 29.0568
25.1703 26.1533 27.948
30.0436 31.0352 31.6771
25.7533 26.9464 28.4328
26.9414 29.0134 31.617
28.5652 29.179 30.2378
28.3134 30.0884 31.8119
26.6759 28.4909 30.7383
26.7889 26.956 28.3742
25.4359 25.9746 27.9156
25.3275 26.5364 28.5416
26.0191 27.5244 29.1083
26.0205 28.0552 30.5107
26.2717 28.0789 30.3612
25.7038 27.7826 30.3647
27.4428 29.61 31.9239
27.5551 29.0658 31.1085
25.5814 28.27 31.1158
25.1504 27.1791 30.1917
26.7488 29.5403 33.1065
25.1303 27.8934 31.2805
25.8248 28.5 32.4353
27.8488 30.9415 34.7625
26.1364 28.4211 31.6727
26.6472 29.3734 33.0153
23.708 25.7782 28.9556
24.4871 27.5161 31.4289
24.5696 27.4239 31.1603
24.7794 28.08 32.1589
24.2657 26.9547 30.4069
23.0618 26.9323 32.113
26.648 29.9841 34.0261
25.9841 29.408 33.2675
24.3636 28.2303 32.9783
26.6076 31.4142 36.2798
23.4342 26.6567 31.3604
24.0063 28.2222 33.281
24.4875 29.2844 34.8267
23.0295 26.3958 31.4479
24.1692 27.6164 32.1761
23.9395 28.1469 33.5873
23.2719 27.5009 32.8933
23.5352 26.9674 31.7332
22.8019 27.4012 33.0491
22.2639 26.7117 33.4154
23.9166 27.879 33.679
23.514 27.3853 32.2706
22.5725 27.1398 32.7471
24.164 29.6701 36.5695
24.1532 29.3709 36.1021
24.6299 29.5483 36.7602
25.735 30.4984 36.7976
23.3878 27.9474 34.267
22.7837 27.5099 33.5576
21.6945 26.2649 32.0464
22.9225 29.1754 37.3435
23.2434 28.032 33.9777
21.0819 26.8856 34.975
23.2364 28.8224 35.9016
22.4878 28.2685 35.7224
22.8078 28.8653 37.7206
24.0283 30.1956 37.9685
20.6025 26.0708 34.3868
22.0759 28.176 37.3814
24.0608 28.9372 35.927
22.4932 28.8629 36.688
20.9961 26.4844 34.8227
22.8306 29.4646 38.3859
22.4246 28.7341 37.3644
22.3299 28.0037 36.3067
21.9374 27.895 36.7581
21.5074 27.6231 35.5218
21.41 28.1631 37.3028
22.1752 28.291 36.0243
20.2257 27.1673 36.7704
19.3755 25.4375 34.1635
19.3826 25.7634 35.8678
22.6923 28.8799 38.2871
21.5672 27.2165 35.48
20.7381 27.45 36.5425
21.6727 29.3125 39.9267
21.7429 29.5027 40.6741
22.9281 30.0873 39.7832
19.5012 26.0872 35.7841
19.8398 26.7802 37.1288
21.0259 28.5308 39.6476
20.7883 27.8686 40.0674
24.8676 32.8333 42.8576
21.3594 29.6317 41.5153
20.3119 26.9824 37.2849
20.1766 26.7993 36.3641
18.139 25.4691 35.9594
19.4856 27.0724 37.3921
19.0515 27.0571 38.9393
18.0652 24.187 34.8345
20.0156 27.7239 38.9738
19.0885 26.384 37.249
19.3075 27.5549 40.0405
18.9753 26.6118 38.596
19.6063 27.3615 39.4625
20.6958 28.4638 39.5305
18.7032 26.03 36.723
18.2522 26.6768 39.2634
18.6726 26.436 38.5564
19.0601 27.3903 39.9152
19.5266 27.9062 40.7874
18.9553 26.9983 39.6207
19.295 27.6445 40.1968
18.7516 27.3788 39.8112
19.1761 27.9037 41.2316
18.3656 27.2301 40.2215
18.1131 27.0506 41.1807
19.9868 29.3613 43.6169
19.2806 27.8069 42.1865
19.3362 27.2746 39.0546
16.8441 25.2585 39.5953
19.9541 29.2878 42.8107
19.3938 29.1172 42.8865
17.8606 26.3568 40.3204
17.3772 25.4814 38.7041
17.4746 26.2543 39.8032
17.3817 26.6577 41.2811
17.9815 27.8398 42.9211
17.292 26.2355 42.4509
18.5079 26.415 39.8516
18.2776 26.9964 40.0873
16.8512 25.778 40.0009
17.0413 26.2285 40.9954
18.6605 27.9288 42.2398
16.3466 25.4812 40.0434
16.4518 24.5514 39.1297
17.9286 27.4809 42.2561
16.2057 24.3726 38.6827
16.7645 25.3294 39.7617
16.3691 24.3742 38.7814
18.8867 29.2013 43.5386
15.6173 24.7239 40.3024
17.1123 26.3756 41.929
17.4519 28.0281 45.0046
17.1422 26.1449 41.4454
16.3351 25.13 39.2639
15.8329 25.5385 42.2402
16.8087 26.7067 42.4156
15.2168 23.8258 40.0662
16.5801 26.4159 43.0167
16.8059 26.4286 42.0119
15.0635 24.4029 41.3626
16.9035 26.4309 42.2088
16.8986 26.8713 41.9263
15.6982 25.7465 42.7568
16.1412 27.2566 46.7972
17.0789 27.4739 45.2827
15.6837 24.0572 39.4503
16.0991 26.143 40.865
14.7299 25.2565 43.6362
16.2074 26.4679 43.5033
15.4342 25.7629 43.7077
14.4754 24.2365 42.9649
16.6368 26.7903 43.869
15.2693 26.3978 46.1221
15.2525 24.7528 43.7111
15.7364 24.6349 41.4361
15.262 24.8597 41.5488
15.887 26.1775 43.1262
14.9258 24.2663 40.3659
13.7939 23.9806 42.6728
15.659 25.7355 44.0253
14.8501 25.2542 44.5692
16.2418 27.3251 47.1673
16.8362 28.084 45.901
14.615 25.7758 47.4039
15.3742 24.6669 42.0467
14.9218 25.1789 44.1055
15.8126 26.7431 45.8583
14.9309 24.8591 40.9862
14.0635 25.2664 44.9545
14.1444 25.2632 45.7299
14.7021 25.4688 45.1156
14.7616 25.2089 44.1587
14.5726 25.0025 44.2481
14.4919 25.4726 44.9296
14.5623 26.0495 46.6634
13.2698 22.7523 43.7146
17.1339 29.3997 46.7335
12.5185 23.2741 43.6857
13.3893 22.8444 41.6827
14.0717 25.0397 45.5973
13.7792 24.5487 46.2108
14.7842 25.4161 45.948
14.2749 24.6099 43.6106
13.86 24.6976 44.5643
13.8748 24.4454 44.2397
14.2096 25.2533 45.3728
13.9101 25.2187 44.5005
13.4136 24.4459 44.5065
13.2533 24.8433 46.6061
12.8214 22.5035 43.8914
14.4742 25.9445 46.2818
13.1041 23.6767 43.4338
14.1079 26.1513 47.2322
13.1465 24.9123 47.4324
13.3042 23.8181 44.4885
12.695 23.5275 45.3551
13.1437 23.7379 44.6308
13.6634 26.1131 49.9634
13.642 24.9631 48.4816
14.6351 26.3054 47.9611
13.857 25.5827 46.6035
12.532 23.8764 45.8153
13.038 24.2556 46.4948
12.4884 23.0311 45.7993
13.4998 25.2032 47.0231
12.9365 23.4577 44.9354
13.7502 26.309 48.3575
12.2277 23.2406 45.8651
12.5918 23.6549 46.1724
12.9204 23.9113 44.8367
11.8874 22.9685 45.5703
12.2848 24.2151 49.0677
13.2746 23.8399 45.3387
12.4935 23.532 45.1186
12.2128 23.6065 46.3895
12.6264 24.7068 50.605
13.2209 23.1355 44.1456
12.4391 23.9019 47.1138
13.3884 25.6429 49.008
12.035 23.0056 45.8511
12.2102 23.5068 46.6997
12.3832 23.8636 45.6054
11.8168 23.1005 45.8331
12.5678 24.9482 51.09
13.0447 24.791 48.6576
13.1435 26.3189 52.3769
12.1059 22.884 45.4316
11.5853 22.8829 45.7717
11.6524 23.2399 46.5846
12.4903 25.4854 50.9653
11.7434 23.4589 48.2439
12.1161 24.4679 51.4015
12.6362 24.8148 50.2416
11.6954 22.8793 45.3493
10.6353 22.1961 47.403
11.6144 22.689 45.89
11.603 23.7096 50.3122
12.1719 23.6796 48.0702
11.7681 23.166 47.235
11.5312 23.5045 49.1188
11.5162 23.0517 47.2026
11.2964 23.3949 49.1949
10.3557 19.442 41.9355
11.1469 22.0296 44.821
12.1888 25.4337 51.2383
10.9099 22.7994 49.8933
11.4547 22.3537 47.0977
11.5818 23.2778 48.1137
11.5095 22.9212 46.6457
10.8649 22.7426 50.0309
12.3741 24.9377 50.0391
10.4707 21.433 46.2884
10.3887 21.1804 45.4742
10.8192 23.9079 54.9286
12.2203 23.4597 47.2239
11.6829 25.4878 53.4124
10.3449 20.8647 46.1594
10.5652 21.5005 46.064
11.2304 23.5332 48.3604
10.0515 21.1051 46.3316
10.7867 23.152 50.1423
11.1404 24.4079 52.9581
11.1742 23.192 48.988
10.4416 21.7809 48.3638
11.2774 23.3877 49.1435
10.4634 23.3749 52.4015
11.4445 24.159 52.0143
10.7864 23.1265 50.0091
11.2031 24.4137 53.5995
11.4666 25.272 54.9843
10.8576 23.177 52.254
10.5472 23.0305 54.7999
12.3366 26.502 55.4329
10.7432 22.19 49.5343
10.5464 21.0918 44.9973
10.1905 22.7859 50.3025
11.0895 24.8712 54.8681
10.8644 23.0971 51.1964
10.8173 23.1979 50.4698
10.4523 22.3959 49.1251
9.8665 21.9658 49.8664
10.9321 24.9021 55.7444
9.95945 20.8806 46.165
9.34267 20.9904 50.1328
10.6922 22.9974 49.5123
9.61072 21.0818 50.1727
10.3937 23.8078 55.5751
10.7666 22.9983 51.3266
10.3188 22.7862 50.3502
9.98914 22.4754 51.3906
10.4897 23.3602 52.815
10.4582 23.7627 53.719
10.372 22.8854 50.2167
9.11902 21.8832 53.7257
10.1355 21.7442 48.9675
10.1138 22.8545 50.9096
9.45217 22.1238 53.836
10.2238 21.6236 48.4435
10.0938 23.6835 53.0789
9.26239 21.0173 49.6356
9.32698 21.1784 50.31
10.1259 23.4142 53.5597
9.21846 20.4843 48.8731
9.44554 21.7511 53.3998
10.217 22.7624 51.3764
9.25384 21.4751 51.6378
9.84267 22.5695 53.4904
9.33553 21.3121 50.8885
9.35056 20.4624 46.9597
9.07446 21.4608 49.9918
8.89507 20.804 51.5364
9.2432 20.5681 51.0057
9.62863 21.9383 53.1035
9.83451 21.0685 48.3061
8.99466 20.7315 49.8709
9.77963 22.2927 52.3799
9.58898 22.6439 54.6437
9.50702 21.9825 53.9035
9.73242 21.7381 49.8776
9.2094 22.3032 53.1899
9.0845 20.664 49.443
8.34536 18.9659 47.3278
9.34545 22.9201 53.7731
8.86595 21.0067 52.3997
8.45132 18.8907 45.4696
8.70878 21.2399 50.7015
8.43144 20.0549 50.2446
9.41025 22.9066 53.5703
8.32503 18.9186 46.9096
8.56369 20.9482 51.6389
8.53536 20.8219 52.9501
9.0335 20.8827 50.6959
9.01897 20.405 47.8102
8.58032 21.9119 52.8061
8.72923 21.9164 54.2682
8.38593 20.6304 54.4587
9.70177 23.1668 54.1735
8.74542 21.3202 52.6864
8.35963 20.8427 54.6909
9.82492 23.6275 57.5
8.58451 20.1495 50.7655
8.86367 22.3689 55.3265
8.24392 19.4443 49.889
8.45479 21.5468 56.3813
8.91528 22.1817 58.1508
9.4863 22.438 59.2758
10.1871 24.1954 57.8786
9.19842 22.1162 52.3783
8.52854 21.3144 53.5821
9.01272 23.2043 60.1218
9.11609 21.4309 53.8215
9.4081 24.2892 63.1033
9.4224 24.1158 61.6226
9.39262 22.5874 59.6195
10.1442 25.0416 61.3243
9.21442 23.823 63.2072
9.20841 23.206 60.1495
9.31005 23.1657 61.73
9.66542 23.5167 58.195
9.0606 23.0222 59.1642
9.79613 24.7506 58.9246
8.38155 22.7814 63.8952
9.81641 23.8143 58.9595
8.61809 22.1976 59.6318
9.21006 22.207 56.0264
8.89086 22.9719 58.3968
8.59004 22.9529 64.2723
9.81589 26.0642 73.084
11.2516 27.5126 66.1031
9.28284 23.6426 62.3965
9.47202 24.7497 64.9927
9.64814 24.6194 64.4659
8.98854 21.6239 56.6918
8.56324 22.3196 61.3281
9.48738 24.6161 63.765
9.5088 24.612 64.7492
9.95378 25.1851 62.3172
8.62182 23.3206 63.3935
9.01195 22.905 61.4743
8.48988 21.7022 60.0669
9.8575 26.456 65.715
8.28904 21.2615 56.3676
8.25754 23.3705 66.7882
9.28499 22.02 57.0209
8.30698 21.4131 55.2645
7.47053 19.7568 56.5139
8.88176 24.0125 60.4699
8.00088 22.1328 63.0028
8.67791 22.2655 59.53
9.01259 25.4184 68.6982
8.77552 23.0416 66.4579
8.71968 20.7211 58.2416
9.19002 24.2745 61.1003
7.91915 19.8786 56.4618
8.63749 23.8363 63.7338
8.27946 20.2516 54.35
7.86141 21.125 59.0949
8.17788 20.9667 56.0034
7.81033 21.4889 58.5278
8.06336 21.7633 59.1117
7.82811 21.6155 62.5902
8.43511 20.8632 56.9002
8.31651 21.839 58.8425
8.32809 22.6448 60.0719
8.32045 22.8919 61.8897
8.35898 22.8431 65.8004
8.4173 21.214 57.1431
7.86246 21.4304 56.5735
7.2179 19.1886 55.0075
7.70309 21.676 61.0623
8.30137 22.6056 62.1961
8.17908 23.0368 64.5289
8.23545 21.8589 58.3277
7.53608 21.3233 61.1824
7.43986 19.4541 56.9391
7.65425 21.1163 60.187
7.66228 19.6051 55.2011
7.43157 21.7438 63.9092
8.36363 21.668 60.4885
8.11712 21.6582 57.764
7.30589 20.9616 62.2113
7.89323 20.6622 57.4997
7.65089 22.3958 61.4821
7.49171 19.9251 58.4023
7.73678 22.0183 59.8907
7.19757 19.4668 56.8869
7.431 20.2722 56.5867
6.86284 20.2262 61.8208
8.11406 21.7043 57.3501
7.03098 19.761 58.8244
7.31304 20.4436 57.9288
6.99966 18.6699 55.1314
7.38575 19.8059 52.4708
6.38011 17.9939 53.3166
7.09613 20.6199 62.1407
7.48697 19.4501 55.8904
7.28079 20.6597 56.8537
6.89894 20.1575 60.7036
7.61011 21.1176 61.7467
7.46976 19.4022 53.7827
6.99886 20.5462 56.656
6.70134 19.9206 61.8827
7.79024 21.5803 62.2484
7.15308 19.2323 57.3314
7.4805 21.9434 61.9364
7.45114 20.8058 58.3547
6.41479 18.1669 56.5221
7.39871 21.4658 60.772
7.24235 20.8543 63.5037
7.53044 20.6811 58.6925
7.18603 21.4257 61.8298
7.00961 19.1244 55.5313
6.45794 17.7253 51.7958
6.5519 19.6139 57.8661
6.63073 19.3159 57.6668
6.96502 19.9237 57.0481
6.9836 21.7838 65.3554
7.16843 19.2754 57.4011
6.5477 19.1598 56.5864
6.77492 18.6251 54.3725
6.25944 18.5822 58.5401
6.90514 19.6984 60.4088
7.05478 20.8621 59.6701
6.36187 18.1796 61.8792
7.7669 22.9604 63.0254
6.59159 18.0198 55.9876
6.90968 21.1814 61.9004
6.47801 17.4909 54.605
6.69503 19.6092 59.0587
6.77817 18.6929 54.4675
6.84479 21.5123 61.9115
6.41554 19.0522 59.7729
6.5197 17.9646 57.9674
6.89715 19.6676 56.271
6.40854 20.6596 64.4841
6.94561 20.5684 64.7212
7.0949 19.2928 58.324
6.75765 19.5199 59.7976
6.90398 20.7835 61.7465
6.84295 19.6346 58.8851
6.42301 18.8456 55.6609
6.27411 19.8175 62.36
6.71993 20.3124 62.1363
6.57344 18.8935 58.7995
6.33469 19.4088 61.216
6.89203 18.6202 58.5437
6.89654 20.1579 58.7801
6.31649 19.1445 59.6144
6.50307 19.1211 57.5278
6.26422 18.6946 56.9679
6.39851 20.8451 64.4924
6.67046 19.5611 58.4602
6.19068 18.4306 58.909
6.51707 19.6922 59.9287
6.13701 19.2232 67.2199
7.45514 21.8609 66.2521
6.86971 19.974 60.8579
6.47375 19.9048 59.9086
6.21259 17.7867 57.1596
6.25906 18.6022 57.7155
6.24328 19.3701 59.4837
6.1972 18.0771 59.5631
6.68023 20.4994 61.5241
6.17438 18.8243 62.0068
6.42655 18.8205 58.1151
6.26525 21.0798 70.1969
7.00957 18.8809 56.2401
6.00219 18.5372 59.8235
6.47711 19.7185 59.1863
6.15519 19.3101 59.6593
5.78162 18.5064 61.3229
6.38254 18.4867 58.94
6.30237 18.739 57.4011
5.82356 18.9306 62.3624
6.69941 20.8702 66.1575
6.61217 19.9651 61.9023
6.4533 20.8117 66.1068
6.4544 19.5401 61.7615
6.01294 17.559 60.3597
6.38234 19.6803 59.2828
6.14267 20.8127 66.7376
6.53532 20.1148 63.6252
6.26999 18.683 60.4222
6.24979 20.4182 64.0411
6.20161 18.9523 64.0652
6.33959 18.6121 60.15
6.3449 19.5346 63.3033
6.43269 19.7858 60.52
6.14598 20.4925 67.6034
6.57087 19.3848 62.1459
6.28358 19.6346 62.2082
5.94834 18.0672 57.8389
5.62534 18.1235 63.252
6.43353 19.3093 60.4196
6.03004 18.5069 59.9165
6.08624 19.5757 59.5162
5.67298 18.8844 61.8638
5.91205 19.5799 65.7562
6.20078 18.4106 57.4564
5.50572 17.5032 57.8182
5.69434 18.2174 59.132
5.65581 17.8071 60.4737
5.79046 18.6524 61.3822
5.75674 16.7832 55.1775
5.44448 16.8044 52.2776
5.06263 16.9402 59.3749
5.83589 17.8462 58.4273
5.73807 17.7507 58.8354
5.77524 17.3371 54.3952
5.49662 18.6228 62.5316
5.79311 18.128 60.2754
5.85017 18.668 59.2407
5.49591 18.1115 59.5813
5.37701 17.7184 61.7619
5.76973 18.3231 62.0821
5.90292 19.0469 62.3575
5.72357 17.8317 57.6907
5.40177 18.3175 64.6501
5.91057 18.4436 61.8037
5.92007 19.1288 68.2504
6.62571 20.4715 60.701
5.44497 16.8224 54.8694
5.15985 16.2296 54.3952
5.40113 18.5798 60.4136
5.43389 18.1579 59.4155
5.31767 16.6156 56.3245
5.25434 17.1822 57.2203
5.43084 17.498 58.3291
5.31064 17.5752 58.5917
5.39073 17.1674 57.8519
5.33737 15.9596 55.9531
5.42181 17.4293 56.9902
5.40582 17.7758 60.5914
5.7112 18.4299 59.0012
5.12111 15.8112 55.929
5.31065 17.8251 57.8366
5.21018 17.8191 59.2006
5.40906 18.5069 65.1401
5.81033 19.1826 65.2628
5.84173 18.4457 63.3342
6.0183 20.8676 71.5123
6.35859 20.3579 66.2572
5.85256 19.5557 67.1245
6.00531 18.9646 64.0741
5.87449 20.6098 70.767
6.32829 20.228 68.6585
6.2315 21.3238 71.5477
6.14665 20.0553 70.424
6.09689 19.8256 67.7324
5.92592 20.3563 72.2938
6.38122 21.4921 73.2341
6.24863 20.3176 68.8629
6.00241 19.5032 68.0818
6.13701 20.8508 72.8581
6.2237 19.8048 63.3172
5.83675 21.507 74.7369
6.22645 19.7983 74.0648
6.48776 20.6352 69.9501
6.05334 19.7832 70.4481
6.33024 21.0231 67.5425
5.59454 17.8314 66.3127
5.8932 19.9289 72.6456
6.23662 19.1718 67.7621
6.4129 21.3521 67.6734
5.64579 20.0016 73.2092
6.34234 21.1994 71.732
6.37 22.8027 76.8799
6.30532 20.7533 71.6092
5.8124 19.5243 72.1209
6.10062 20.422 70.0983
6.10343 20.6594 69.1915
6.03554 21.1963 72.6136
5.8564 20.2876 72.1814
6.09505 19.707 71.201
6.10602 19.4084 68.2153
5.61499 17.5034 60.6211
5.22623 17.4978 57.6563
4.77013 15.7147 55.162
4.81753 17.4274 59.75
4.83897 15.8554 58.0427
4.98332 15.4369 52.3476
4.59461 15.0448 51.5252
4.49877 15.4962 51.6371
4.51197 16.5909 58.4798
4.65953 15.3929 58.3362
4.92756 16.5584 54.5725
4.395 14.7294 53.9925
4.55252 14.9028 51.9921
4.49326 15.2836 52.4527
4.39723 15.6726 53.0643
4.05006 13.293 51.3319
4.43137 15.8225 58.5201
4.75064 14.5517 49.5951
4.19087 14.8108 51.7453
4.25613 14.5292 53.3094
4.37771 14.7667 53.2852
4.55727 14.9739 52.3576
4.28119 14.3522 53.8478
4.50556 14.9729 53.6781
4.48033 15.199 53.8488
4.52732 15.147 49.9615
4.17937 15.5361 55.5063
4.46432 16.0353 59.6286
4.85161 16.7005 59.8067
4.88817 17.5359 59.7925
4.58888 15.0979 54.9964
4.53895 15.6176 59.3523
4.96495 16.6921 57.0997
4.78167 15.949 54.0006
4.1075 14.808 54.9582
4.52627 14.9678 52.3519
4.38108 15.0373 56.3805
4.56961 16.2565 58.2751
4.74359 17.2488 63.5739
5.16748 17.0091 53.1453
4.07872 17.2058 74.8669
6.05976 20.1986 64.307
4.636 15.2718 60.1739
5.06436 17.5259 59.173
4.69392 15.2921 52.5089
4.20847 14.8117 55.4829
4.65811 16.3608 56.6542
4.46284 16.2708 57.4238
4.49112 14.9287 52.8813
4.19294 15.2997 59.6652
4.74116 14.986 54.7518
4.3835 15.2858 53.0123
4.22912 15.0457 54.3519
4.32897 15.3959 54.2078
4.2785 15.1608 56.1762
4.44691 15.2227 56.2885
4.45341 14.6305 51.8213
4.10418 14.7413 52.5295
4.02513 14.3689 52.7733
4.09783 13.5354 53.087
4.30024 15.6979 57.2153
4.39089 14.6539 53.4357
4.19813 15.0301 56.414
4.39652 15.1298 55.8686
4.28689 15.2472 53.635
3.97897 14.1958 53.8026
4.23243 14.7799 54.0407
4.22853 15.6507 59.2367
4.54614 15.4396 55.5236
4.37878 15.9005 58.3395
4.41277 14.6008 52.6624
4.0715 14.8763 58.1665
4.60453 15.3265 50.4975
3.8704 15.0141 57.3112
4.46433 14.5988 51.9731
3.86326 12.8842 48.799
3.87581 14.7474 54.5977
4.03214 13.7298 53.37
4.24316 14.8326 51.6231
3.95896 15.2057 60.7936
4.80017 15.7624 56.1514
4.12157 14.9499 54.7949
4.04302 13.3703 49.3677
3.84757 14.0956 56.9569
4.41167 15.6303 56.1208
4.1649 14.3756 53.7269
4.22061 14.7744 50.9323
3.74918 13.3975 51.5947
3.93867 14.5738 52.0917
3.81948 13.3485 52.9003
4.09498 14.5251 53.7582
4.08776 14.1784 51.957
3.9764 14.2535 51.9712
3.9128 14.1685 57.0527
4.46871 15.4665 54.3632
4.10578 14.1989 52.08
4.06046 14.7845 58.5969
4.47448 14.7973 51.6733
3.97909 15.6213 58.8743
4.20947 14.0512 53.1905
4.04603 14.6486 49.8178
3.57401 14.2121 54.9812
4.03279 15.2427 56.484
4.03879 13.4876 55.1258
4.30585 16.5852 61.5806
4.44425 14.178 51.325
3.93317 15.1573 55.1535
4.04699 15.0255 53.2361
3.93942 14.9414 55.9348
4.03939 13.5072 52.4447
3.89544 14.2078 53.9995
4.09005 13.3052 50.767
3.87742 14.2264 52.3095
3.89646 13.9076 52.8123
3.97492 14.3205 51.1769
3.76125 14.623 61.4359
4.52536 14.8003 53.1
3.9908 15.6707 55.2192
3.96667 14.6096 59.5085
4.32154 14.1677 57.5983
4.34842 15.5356 56.1708
4.19796 15.3563 54.5621
3.98428 15.0668 55.7384
3.8908 13.8703 53.8342
3.98715 13.9207 54.2437
3.96255 13.5518 51.6152
3.7672 15.1804 60.897
4.4167 14.5651 54.1518
4.08388 14.958 54.4533
3.99085 14.4092 51.4526
3.64248 13.3824 55.9222
3.9677 13.6945 54.6049
4.06968 15.154 56.1226
4.12456 15.5292 54.2644
3.79919 13.4212 56.2673
4.04895 14.1414 57.5379
4.29322 17.31 67.4638
4.73789 16.1514 53.9417
3.7148 14.161 53.5113
3.82312 13.0041 50.9842
3.68494 13.0257 50.2911
3.66793 13.5147 53.7178
3.92186 13.9322 55.2586
3.84488 15.3555 57.4374
4.04934 14.0801 54.3389
3.79947 13.8015 55.5685
4.06972 14.8497 60.4807
4.23614 15.118 55.0381
4.03963 14.5574 56.8825
4.1502 15.3659 52.5723
3.66693 14.1919 56.6322
3.90653 14.3738 54.4148
3.91372 14.5247 57.4041
4.10471 14.2639 54.7788
3.96185 15.3168 61.689
4.32631 15.0893 55.4759
3.94696 14.7015 55.6805
3.89518 14.6426 49.1141
3.39225 13.3712 57.2934
4.06421 14.6294 54.6016
3.92033 14.2959 55.5068
3.91831 13.4494 53.3904
3.83495 15.2975 55.578
3.84187 13.6131 56.0605
3.97381 15.4505 59.3853
4.15643 13.8424 53.2765
3.83942 14.4192 54.3506
3.7172 12.519 52.4348
3.89076 14.2576 53.3049
3.76793 14.6583 53.1846
3.61256 13.5632 50.9605
3.63477 13.6512 55.1104
3.90479 14.2941 55.1801
3.81399 13.3801 53.8818
3.76058 14.3742 52.6524
3.66796 13.1324 57.0204
4.11977 14.4635 55.7131
3.94411 14.235 51.4246
3.55438 13.8863 50.4606
3.49527 13.8647 56.2798
4.02352 14.601 55.8869
3.89471 14.6763 58.0531
4.05589 13.329 52.802
3.81501 14.2638 54.2156
3.84086 13.4109 55.5433
3.85812 14.638 53.5872
3.7034 13.1941 55.767
3.90553 14.6945 57.679
4.02902 13.6982 51.0962
3.51681 12.8253 53.0765
3.83167 15.2462 53.226
3.5752 13.0324 52.5399
3.65009 14.1695 55.7925
3.81932 14.468 54.7968
3.83747 14.7198 55.0774
3.80896 14.3195 52.3901
3.56893 12.6813 51.973
3.51133 13.5002 53.75
3.675 13.4184 52.5203
3.60785 13.1039 53.4102
3.60085 13.2339 52.6546
3.66458 13.8921 54.2089
3.75437 14.2854 55.0866
3.72977 13.1667 54.1154
3.82368 13.5206 49.1846
3.32681 13.5114 54.9943
3.77019 14.8988 58.0308
3.87944 13.9395 52.2105
3.53844 13.6949 57.5617
3.92061 14.0395 54.877
3.81725 13.406 50.8797
3.48325 14.556 57.8873
3.97363 12.6132 46.9048
3.30732 13.3729 53.6383
3.69022 13.8171 55.0991
3.76988 12.5022 47.0712
3.30094 12.6849 52.2144
3.64674 14.2415 53.1143
3.52183 13.5865 52.8374
3.47859 13.5922 55.5709
3.78026 13.6393 51.4693
3.54589 12.747 52.5792
3.55996 12.7757 45.786
3.1344 13.0878 51.4705
3.54919 13.45 55.0599
3.81775 14.2488 54.7532
3.68648 13.9839 55.9077
3.86519 13.5037 51.4111
3.44706 13.1589 54.5712
3.68726 14.4653 55.2245
3.66724 12.942 50.5352
3.47 14.0744 52.8684
3.40301 13.9863 69.477
4.71047 16.7123 55.4032
3.78096 13.7893 53.4467
3.53051 13.0939 52.4521
3.57272 13.9041 53.2936
3.52183 13.6026 57.8952
3.8239 14.4678 56.0394
3.7232 13.2148 55.1649
3.76768 14.6082 56.7984
3.9804 14.5215 56.1254
3.8359 13.3788 49.0867
3.26753 13.6559 54.9299
3.76435 13.2305 50.0175
3.30002 12.7905 52.3929
3.60694 12.9951 53.4873
3.5842 13.3756 51.0812
3.39542 12.4173 49.645
3.36832 13.3251 54.8366
3.65425 14.0819 51.8946
3.49492 12.5733 55.9008
3.80774 14.1655 52.0147
3.44541 13.3565 53.96
3.58686 13.4169 53.5554
3.50887 13.3932 58.1914
3.91831 14.2239 52.3866
3.61658 14.9129 55.1009
3.54357 14.2171 57.4706
3.77322 13.3879 53.4922
3.61338 13.9501 55.981
3.73462 13.7722 56.2854
3.8094 14.8145 57.026
3.73088 13.7492 54.4215
3.58866 13.9604 54.0358
3.72224 12.6013 52.9314
3.61111 13.4006 50.9619
3.41856 14.1852 57.0502
3.84135 14.0061 55.9374
3.70746 13.3644 49.624
3.22527 12.6079 55.1499
3.72893 13.2485 51.7881
3.57159 13.5723 55.4917
3.75446 13.8786 52.2862
3.47112 12.8643 51.0935
3.47622 13.0237 53.1816
3.57381 13.5017 52.9935
3.5445 13.5138 53.9614
3.61307 14.5799 56.1294
3.68634 13.0381 53.005
3.57499 13.6149 52.9074
3.4705 13.1993 53.0706
3.45602 13.2893 52.2041
3.38529 12.4736 53.1729
3.5224 13.5732 52.3172
3.54346 13.0444 53.273
3.42669 13.9531 53.9046
3.69265 13.4997 54.3837
3.65837 15.0709 55.3659
3.65207 13.0335 56.3504
3.71256 13.5463 53.8487
3.5499 14.057 54.1239
3.52356 13.0366 54.9669
3.76719 13.8335 56.7274
3.77281 14.0614 55.6686
3.72945 14.6251 61.3616
4.06601 14.222 57.4635
3.77375 14.3527 52.9101
3.48267 13.6066 53.7436
3.54907 13.3236 55.4063
3.79887 13.9197 55.2209
3.62851 14.3713 53.1861
3.51087 13.0714 53.8478
3.65382 13.3576 50.379
3.29747 12.8692 51.9859
3.49631 13.7678 56.2003
3.64918 13.3034 55.6201
3.6426 13.3706 49.8828
3.3527 13.3754 52.4362
3.54386 13.3151 54.2317
3.56108 13.1289 52.8124
3.56233 13.8894 58.0664
3.79618 14.0235 51.3605
3.35518 13.8595 55.7348
3.70936 13.3227 57.1048
3.73993 13.6637 51.6645
3.43345 13.8601 53.6852
3.63539 13.6211 53.7179
3.52153 13.1894 55.0372
3.66195 14.1728 54.4294
3.53626 13.0303 55.9401
3.76777 13.539 50.6806
3.37345 13.4094 52.2944
3.54288 14.2721 54.7827
3.61059 13.5427 53.3415
3.53004 13.5757 57.7492
3.71956 15.4052 62.8536
4.11472 16.0013 60.6572
4.01364 14.8889 62.1027
4.09318 0 0