# pn-170911/RbIIR-av-RbIIR-1280-1959.psd
# Power spectrum* (dif=0,1,2) (really just |FT|^2)
# NOTE: only the first half! (symmetric)
# weeks: 1280-1959
# 70476 clock-days, 6841 excluded
# PSD: 1441
555.055 0.11908 0.0454978
46281 1.00268 0.0491488
184949 3.72712 0.0492497
36683.8 1.31204 0.0489447
63259.2 4.66519 0.0497019
12592.8 1.18165 0.0491845
10424.7 1.45969 0.0488413
6468.51 1.18825 0.0491008
6950.96 1.8038 0.0494693
4086.37 1.25288 0.049223
4106.26 1.63823 0.0490577
2859.79 1.32408 0.0490159
2986.74 1.71714 0.0499896
2154.21 1.40399 0.0501267
2399.47 1.93124 0.0506123
1684.35 1.48179 0.0503568
1993.86 2.09925 0.0513263
1413.35 1.6246 0.0508805
1717.05 2.33852 0.052251
1225.27 1.78716 0.0516751
1504.53 2.54957 0.0543004
1097.74 1.98433 0.0529926
1378.19 2.86574 0.056081
989.079 2.15372 0.0548492
1231.54 3.06279 0.0572689
913.501 2.38021 0.056564
1168.07 3.4438 0.0599886
848.357 2.63009 0.0576248
1081.64 3.69527 0.0627374
804.565 2.88785 0.0607338
976.046 3.85842 0.065434
769.238 3.16799 0.0635631
935.546 4.23825 0.0703168
745.002 3.52961 0.0672887
900.108 4.61517 0.0745592
721.413 3.85889 0.0720896
853.765 4.9289 0.0789485
695.255 4.17789 0.0761135
811.208 5.24099 0.0852144
682.433 4.58076 0.0826729
766.871 5.49579 0.0910382
649.923 4.85748 0.0881175
746.413 5.93189 0.098458
642.52 5.31326 0.0958977
739.341 6.45583 0.107568
616.691 5.60448 0.103051
695.314 6.67921 0.1164
610.398 6.06737 0.113013
689.738 7.19153 0.127549
590.324 6.4205 0.123443
651.991 7.39822 0.136536
581.542 6.83335 0.133735
641.814 7.92986 0.151339
575.688 7.33099 0.147949
628.355 8.36706 0.165489
557.804 7.69706 0.160955
603.687 8.64827 0.178799
543.02 7.98129 0.173469
592.12 9.14898 0.196442
537.473 8.53256 0.190239
565.622 9.3221 0.207495
524.218 8.90745 0.206423
563.988 9.95736 0.23187
509.184 9.2576 0.224391
541.414 10.1978 0.247876
505.363 9.79886 0.246582
529.086 10.5959 0.268141
493.374 10.155 0.265849
512.742 10.8936 0.28731
485.274 10.5987 0.289661
499.308 11.2929 0.312751
471.625 10.9354 0.309944
492.127 11.8075 0.339893
459.481 11.2721 0.336276
474.665 12.0062 0.362606
448.315 11.6414 0.361722
471.007 12.5764 0.395045
442.565 12.0557 0.385684
462.278 12.9653 0.424805
431.857 12.4474 0.416863
442.002 13.1146 0.447654
423.602 12.8428 0.448553
439.904 13.6997 0.486486
411.008 13.0329 0.474897
426.156 13.9151 0.513339
407.81 13.5767 0.514376
415.134 14.2294 0.548551
398.19 13.9268 0.546477
405.995 14.5594 0.583973
394.754 14.4478 0.592471
401.609 15.0579 0.625705
390.169 14.9658 0.634264
385.894 15.1357 0.656703
366.593 14.6354 0.643572
375.059 15.3292 0.690495
371.937 15.543 0.711758
431.932 18.5887 0.855456
363.501 15.7376 0.747962
363.358 16.1872 0.785492
346.824 15.7374 0.777736
362.431 16.787 0.84477
347.416 16.3898 0.839101
361.599 17.4619 0.909266
342.029 16.8086 0.892461
347.17 17.444 0.940786
334.795 17.0687 0.939379
334.006 17.4321 0.976467
326.089 17.286 0.983378
333.402 18.0585 1.04313
325.41 17.9031 1.05721
325.212 18.2343 1.09144
313.52 17.9017 1.09229
319.234 18.6342 1.1525
314.431 18.6726 1.17163
324.121 19.5539 1.25008
309.944 19.0296 1.23886
308.064 19.3034 1.27426
299.716 19.0494 1.27878
302.807 19.6302 1.34052
297.726 19.6259 1.35938
301.424 20.1526 1.4203
296.642 20.1251 1.44008
290.79 20.0791 1.45764
287.768 20.2462 1.49244
293.377 20.959 1.56672
285.825 20.781 1.58602
288.549 21.304 1.64717
274.657 20.4825 1.60271
279.856 21.2631 1.69045
271.942 21.002 1.69659
270.19 21.2163 1.74036
271.128 21.68 1.80671
272.665 22.1235 1.86455
266.678 21.8341 1.86616
264.436 22.0533 1.91435
262.21 22.2012 1.95609
260.43 22.3604 1.99557
255.318 22.2316 2.01431
259.103 22.9071 2.11062
251.327 22.4336 2.08687
256.013 23.3067 2.19726
246.488 22.7127 2.17868
246.359 23.0015 2.233
248.406 23.6312 2.33027
251.507 24.1626 2.40276
241.632 23.5134 2.37162
237.039 23.4706 2.40485
239.37 24.0038 2.49119
237.604 24.2137 2.55058
235.462 24.224 2.5709
238.199 24.9846 2.6975
234.667 24.7461 2.69885
228.637 24.551 2.71066
228.057 24.8156 2.79335
226.273 24.9258 2.8254
231.445 25.8096 2.96766
226.833 25.6102 2.97913
221.095 25.3162 2.97626
222.111 25.6962 3.05434
223.569 26.2787 3.17123
217.789 25.9495 3.1731
215.432 25.9156 3.21452
214.431 26.066 3.25163
216.392 26.6681 3.37963
214.968 26.8335 3.44062
211.396 26.7024 3.45768
207.805 26.6269 3.50279
211.897 27.4179 3.63211
210.35 27.5925 3.70652
207.117 27.3447 3.70012
204.073 27.3057 3.74408
202.61 27.4898 3.81894
204.724 28.0837 3.94568
199.572 27.6762 3.93191
198.917 27.9303 4.01902
199.794 28.4322 4.13205
199.04 28.555 4.18234
195.954 28.4746 4.24228
195.456 28.713 4.31323
193.891 28.7751 4.37224
191.181 28.6757 4.39369
190.295 28.8265 4.467
188.605 28.8859 4.53104
192.704 29.9324 4.75472
186.994 29.2608 4.68903
187.732 29.8133 4.83127
187.888 30.0358 4.89183
185.109 29.9795 4.96047
185.212 30.3141 5.07112
183.65 30.3385 5.12257
180.916 30.1401 5.13427
180.399 30.7518 5.35028
215.065 36.6845 6.32898
179.036 30.7115 5.38453
174.911 30.475 5.43022
176.173 31.0046 5.55864
174.93 31.0087 5.61434
172.895 30.9737 5.64267
171.166 31.2792 5.80199
170.077 31.0505 5.79808
170.014 31.471 5.94878
169.021 31.5511 6.00323
169.919 32.072 6.17706
165.768 31.5164 6.11292
168.996 32.4682 6.34811
165.32 32.1261 6.35677
166.657 32.714 6.5436
163.656 32.298 6.49999
163.483 32.6799 6.64773
161.274 32.6343 6.71209
162.087 32.9174 6.80005
159.588 32.8235 6.86327
158.369 32.8798 6.94665
158.536 33.2092 7.07686
156.207 33.0817 7.1389
158.294 33.8819 7.36593
156.057 33.4952 7.30885
154.59 33.6162 7.4247
152.313 33.4195 7.46626
152.368 33.7346 7.57684
152.602 34.084 7.75443
150.327 33.8457 7.74354
152.611 34.6277 8.00446
147.762 33.7936 7.86746
149.452 34.6013 8.14181
146.893 34.1429 8.07977
146.663 34.5306 8.28277
146.12 34.5999 8.3288
148.083 35.5797 8.66951
148.003 35.5974 8.69232
144.425 35.1113 8.66568
144.139 35.4045 8.83244
143.219 35.5702 8.95761
143.553 35.9783 9.15457
140.578 35.347 9.02744
140.644 35.78 9.2547
139.646 35.7127 9.25564
138.567 35.7598 9.38754
136.354 35.505 9.39034
139.944 36.8839 9.85411
139.666 36.9344 9.9073
135.082 36.0531 9.75784
133.517 35.9798 9.84198
132.033 35.8542 9.88337
133.963 36.6189 10.1551
134.884 37.2188 10.4189
131.881 36.7352 10.3759
132.892 37.0581 10.5163
132.91 37.4927 10.7253
130.871 37.2245 10.7558
129.625 37.2815 10.8651
129.462 37.5187 11.0451
128.694 37.4783 11.0874
129.6 37.8886 11.2622
126.568 37.3658 11.1899
127.58 38.0307 11.4973
126.908 38.1164 11.6078
125.965 38.154 11.715
125.107 38.0895 11.7554
123.206 38.1253 11.9306
123.002 38.0506 11.9491
124.009 38.6351 12.2149
122.982 38.5871 12.298
119.851 38.0619 12.2695
122.512 38.985 12.5646
119.243 38.3044 12.4649
119.285 38.7378 12.728
117.63 38.4149 12.6993
117.283 38.62 12.8999
117.963 38.845 13.0112
115.902 38.7126 13.1249
117.343 39.1718 13.2398
115.316 39.1057 13.458
115.482 39.3899 13.6081
115.921 39.6884 13.7714
113.185 39.1537 13.7325
112.469 39.1785 13.8243
112.361 39.0757 13.8109
111.442 39.2438 14.0149
111.386 39.603 14.2558
111.253 39.7998 14.3968
109.299 39.342 14.3952
110.781 40.2997 14.8286
109.343 39.879 14.7389
107.22 39.4596 14.7371
108.456 40.0326 15.0145
107.721 40.2081 15.2196
107.601 40.5781 15.6326
132.817 49.8262 18.6746
105.586 40.175 15.557
105.061 40.2114 15.6323
105.132 40.4831 15.7736
104.115 40.4204 15.9196
104.97 40.9436 16.1438
102.565 40.4602 16.1926
101.044 39.956 16.0071
101.748 40.4308 16.3062
102.558 41.0833 16.599
99.7736 40.3312 16.499
100.944 41.131 16.9683
99.2511 40.6406 16.8656
99.8906 41.1092 17.1234
99.4094 41.0948 17.1963
99.5305 41.4525 17.4731
98.7061 41.5326 17.6696
98.0725 41.4401 17.7416
97.1891 41.1154 17.6328
95.6359 40.9639 17.7889
96.8851 41.6227 18.1069
96.0323 41.6166 18.275
95.8145 41.5963 18.3265
95.0855 41.5549 18.4028
95.8025 42.259 18.8395
93.0203 41.4104 18.6404
93.9073 41.8396 18.8971
92.8248 41.514 18.8504
92.5056 41.7777 19.122
91.8185 41.6875 19.1443
91.6706 41.887 19.4166
91.3615 41.9083 19.4288
89.1353 41.4049 19.4762
90.9224 42.2747 19.8603
88.8823 41.8068 19.8831
89.6789 42.2637 20.186
88.8385 42.1306 20.2089
88.0048 42.0569 20.3171
87.6792 42.022 20.4266
87.9481 42.6701 20.9335
89.3576 43.2217 21.1576
86.963 42.4866 21.0382
87.0853 42.6068 21.091
85.3571 42.2471 21.1842
86.9791 42.9624 21.4802
85.0462 42.5558 21.5659
84.8103 42.431 21.5672
83.8635 42.4253 21.75
84.4483 42.9611 22.0791
83.6127 42.5786 21.9663
83.1694 42.8555 22.2889
82.0547 42.444 22.2729
83.5247 43.4273 22.8288
81.7175 42.6598 22.5982
81.8505 43.0455 22.9133
82.3272 43.4186 23.1105
78.9357 42.0007 22.6623
80.1487 42.7723 23.1171
80.4575 43.3369 23.6065
79.6622 43.0401 23.5157
78.3196 42.7874 23.6767
78.7128 42.9745 23.8211
78.0334 42.7296 23.7633
78.192 43.0636 24.0356
79.0036 43.9328 24.6716
78.3556 43.74 24.719
76.4676 42.7018 24.142
76.4718 43.2846 24.8136
76.4725 43.3076 24.803
76.4039 43.7388 25.3424
75.3317 43.0606 24.9492
74.3179 42.9448 25.1488
75.164 43.4809 25.4666
74.3479 43.1672 25.4377
74.5346 43.6658 25.8901
74.0573 43.4072 25.7422
73.7629 43.7903 26.322
73.8661 43.6076 26.0998
72.5352 43.4371 26.2482
72.0522 43.5142 26.5728
71.8802 43.3172 26.4672
71.9396 43.5476 26.6885
70.8319 43.1617 26.6112
71.3596 43.9312 27.3111
70.5267 43.4875 27.1552
70.3842 43.6832 27.4594
70.6793 44.1544 27.9324
71.3167 44.6218 28.2687
69.7887 43.8047 27.8784
68.9648 43.5668 27.8738
68.1312 43.2797 27.8921
68.6563 43.7677 28.2136
67.508 43.4621 28.3265
66.9661 43.0267 28.0952
66.3299 43.0577 28.3716
67.6995 44.3863 29.8815
83.2177 53.7925 34.4183
66.1282 43.7409 29.2982
66.3815 44.0011 29.6099
66.2595 43.7831 29.3123
66.9037 44.6093 30.0225
64.435 43.2713 29.4747
65.1246 43.9638 30.064
66.1302 44.8038 30.7171
64.0451 43.4056 29.9041
64.7406 44.1367 30.3613
63.2019 43.6537 30.5741
64.4845 44.2181 30.7515
63.79 44.2366 30.9761
62.7831 43.7238 30.8264
62.3649 43.4452 30.729
61.9052 43.6047 31.0725
62.1601 43.9374 31.469
62.244 44.2191 31.7309
61.6381 43.8253 31.493
60.3579 43.4577 31.6741
60.4696 43.6114 31.8607
60.497 43.7712 32.0921
60.3781 43.6928 32.1252
60.8271 44.2149 32.4906
60.5999 44.6185 33.1908
59.5831 43.8068 32.6629
58.7001 43.1622 32.1966
58.8893 43.756 32.7901
57.7071 43.2994 32.9505
58.7211 43.9368 33.2702
58.0999 43.83 33.4732
57.7745 43.7405 33.4879
57.8974 43.9338 33.7656
57.6719 43.9669 33.9523
56.967 43.5889 33.7417
56.9048 44.0782 34.4951
57.1841 44.1321 34.5343
57.0318 44.3894 34.9724
56.7352 44.1744 34.8486
56.2414 43.9989 34.8659
55.8567 43.9643 35.0589
55.7484 44.0535 35.2581
56.1325 44.3988 35.4553
54.484 43.6001 35.2869
55.1802 44.2856 35.9966
54.9154 43.9308 35.5983
54.0322 43.6714 35.7144
53.7376 43.6153 35.8238
54.233 44.3533 36.6155
52.8926 43.2162 35.8129
53.4947 43.8188 36.3304
52.8142 43.783 36.7218
53.2546 44.0246 36.8327
52.7546 44.0892 37.1799
52.59 43.832 37.0917
52.2584 43.941 37.3468
52.0195 43.9727 37.6999
52.5717 44.237 37.6863
51.19 43.5624 37.4688
51.3367 43.978 38.073
51.4351 44.3162 38.5773
51.1914 43.9686 38.2276
50.985 44.1399 38.5922
50.1874 43.6281 38.4219
50.2903 43.867 38.7415
50.3896 44.0098 38.9222
49.8406 43.6892 38.8049
49.4308 43.7183 39.0895
49.6639 43.9011 39.2729
49.3624 43.8735 39.4781
48.3925 43.33 39.357
48.985 44.0589 40.2256
51.229 45.9264 41.4694
48.8594 43.968 40.0579
48.4928 44.2565 40.7853
48.1796 43.8413 40.4198
48.2891 44.1187 40.8513
48.3035 44.3193 41.1908
47.7974 43.9888 41.0056
47.4101 43.7871 40.8725
46.9524 43.9047 41.4569
46.9066 43.6059 41.0035
46.4114 43.607 41.4559
46.9098 44.3265 42.3673
46.6858 43.9781 42.1374
46.9672 44.4107 42.5671
46.0337 43.6211 41.8836
45.4575 43.5062 42.0886
45.4725 43.4733 42.0094
44.6851 43.3975 42.6733
45.6481 43.7945 42.7602
44.8461 43.4279 42.6955
44.9653 43.5381 42.6867
44.2862 43.403 43.0878
44.3925 43.5018 43.2672
43.3843 43.1189 44.4594
54.7008 53.4978 51.2294
44.169 44.0181 44.4377
43.647 43.3529 43.6934
43.8629 43.9758 44.5121
43.9053 44.5598 45.6966
43.7981 43.7268 44.4242
42.911 43.2905 44.2975
42.7005 43.2658 44.3986
42.8195 43.7298 45.2661
42.6828 43.3295 44.6449
42.3564 43.6378 45.4187
41.8747 43.1302 45.0579
42.1146 43.594 45.7931
42.0341 43.257 45.0774
41.4742 43.2165 45.5504
41.5802 43.6935 46.4389
41.8161 43.6405 46.2183
40.9202 43.0744 46.0317
40.5558 42.5692 45.473
40.7457 43.0151 45.9708
40.5112 43.0378 46.2912
40.6959 43.42 46.8278
39.6121 42.5094 46.3273
39.7851 42.4902 46.0018
39.3693 42.5115 46.4941
40.0607 43.5395 47.7913
39.5886 42.7926 46.864
39.3482 43.0503 47.6152
39.298 42.9975 47.6648
39.3868 43.2872 48.0114
38.9402 42.8893 47.8632
38.8916 43.0765 48.1858
38.4111 42.6445 48.2026
38.805 42.9878 48.4392
38.6531 43.1399 48.583
38.1206 42.7716 48.5519
37.8835 42.6566 48.574
37.9161 42.7381 48.9217
37.6545 42.5965 48.8022
37.3442 42.4019 48.7187
37.0689 42.4388 49.1545
37.6157 43.1228 49.9061
36.9184 42.2731 49.129
37.1703 42.9083 49.7664
36.5062 42.5056 50.1348
36.7247 42.3865 49.6593
36.3453 42.148 49.6827
35.9565 41.9818 49.5928
35.844 42.3449 50.5778
36.0623 42.1479 49.9342
34.9684 41.2462 49.4536
35.3577 41.833 50.3461
36.0376 42.9134 51.6235
35.5332 42.2302 51.0209
35.33 42.2248 51.1753
35.3291 42.3198 51.3462
35.3601 42.5991 51.9921
34.9507 42.1109 51.5018
34.977 42.5231 52.4067
34.7887 42.1691 51.9681
34.8094 42.3108 52.2947
34.7569 42.3753 52.2843
34.0813 41.6836 51.8402
33.9437 41.73 51.8874
33.9579 41.8991 52.3082
33.6999 41.7816 52.5332
33.7917 41.9098 52.5347
33.4649 41.745 52.7748
33.2558 41.3946 52.4553
33.2542 41.5672 52.5806
33.2115 41.7964 53.0204
32.7551 41.6757 53.6138
32.5362 40.9773 52.4221
32.3452 41.2761 53.2365
32.6133 41.6101 53.6836
31.9605 40.9818 53.4997
31.7666 40.6078 52.9322
32.0587 41.139 53.6333
32.4317 41.8873 54.5201
31.8526 41.301 54.2784
31.8997 41.2766 54.1545
32.0774 42.0429 55.5782
31.7752 41.483 55.0427
31.5631 41.2645 54.5747
31.3334 41.4583 55.529
31.4865 41.3902 55.2573
30.9384 40.9202 54.8364
30.9579 41.3084 55.8217
30.9874 41.0494 55.18
30.4422 40.5577 55.0691
30.9678 41.4647 56.1579
30.5171 41.075 56.2134
30.6101 41.0505 55.9613
30.3776 41.0998 56.1764
30.1028 41.3185 57.547
30.2815 41.954 61.2618
38.3006 50.6893 65.426
30.6743 42.0812 58.1738
30.0595 41.4813 57.9359
30.1593 41.5406 57.9683
29.8662 41.2252 57.856
29.8573 41.2876 57.6735
28.7725 39.9396 56.5678
29.0324 40.3575 56.8848
28.5875 39.8749 56.745
29.0393 40.4869 57.5052
29.3227 41.0387 58.0628
28.7268 40.3806 57.7034
29.0052 41.1252 58.852
28.7403 40.7217 58.3423
28.2162 40.1752 58.1956
28.2555 39.9942 57.542
27.785 39.8478 58.0322
28.0355 40.1466 58.2482
27.7825 39.8142 58.0401
27.8238 40.0694 58.5393
27.9537 40.4102 59.085
27.6507 40.0774 58.8524
27.6276 40.3034 59.408
27.1813 39.5405 58.5918
27.2356 39.8084 59.0425
26.9898 39.4738 58.8773
27.4319 40.3174 59.8028
26.9075 39.7962 59.9103
27.1336 39.8682 59.7238
27.0322 40.0375 60.0472
26.6346 39.6088 59.8292
26.6907 39.7122 59.9249
26.3856 39.4984 60.1127
26.2393 39.3213 60.1316
26.3799 39.1827 59.3659
26.1978 39.5503 60.2239
25.8518 39.0635 59.9511
26.1116 39.7504 61.2904
25.9151 39.0387 59.9014
25.7413 39.0065 59.926
25.408 38.8253 59.9938
25.5164 39.3471 61.1429
25.2106 38.8147 60.6949
25.2267 38.8039 60.764
25.0942 38.5908 60.5729
25.3129 39.199 61.4111
25.0409 38.9685 61.7269
25.2641 39.1856 61.7222
25.0704 39.1183 61.9791
25.1706 39.4526 62.322
24.8103 39.0937 62.3301
24.5565 38.5902 61.5006
24.0713 38.0063 61.1522
24.5497 38.9663 62.5576
24.3522 38.5265 61.9496
24.1074 38.4585 62.3828
24.0588 38.2509 61.9695
23.9446 38.201 62.0713
24.0449 38.5136 62.4233
23.8722 38.2381 61.9254
23.9283 39.24 65.0112
24.233 38.5193 62.4284
23.6965 38.5422 63.0284
23.0411 37.7059 63.2729
23.7427 38.1248 62.5431
23.5197 38.7346 64.5038
23.7248 38.727 64.0987
23.3535 38.2687 63.6558
23.4177 38.4593 63.869
22.9979 38.084 64.0356
23.13 38.2594 64.1544
22.8712 37.754 63.4318
22.6771 37.6319 63.3386
22.4377 37.4877 63.4533
22.3312 37.3447 63.6019
22.5414 37.6805 64.1139
22.7477 38.3195 65.5296
22.8357 38.32 65.0596
22.4264 37.9893 65.404
22.5975 37.889 64.6722
22.2402 37.8424 65.4094
22.0554 37.1635 63.9932
22.2687 38.1743 65.8456
21.9791 37.618 65.2548
21.5971 36.9829 64.6578
21.7465 37.1522 64.6527
21.8224 37.5305 65.3932
21.6017 37.2387 65.2886
21.5267 37.2726 65.4254
21.335 36.932 64.8208
21.305 37.3407 66.3911
21.5935 37.4976 66.1575
21.0665 36.8693 66.0237
21.5309 37.7198 66.9319
21.0901 36.9524 66.4187
21.1239 38.0481 73.4406
27.2001 46.0649 74.7951
21.1778 37.8915 67.8017
20.6348 36.8483 66.7147
20.6956 36.8145 66.518
20.6036 36.9334 67.1705
20.6596 36.6685 66.3266
20.4726 36.7801 66.9397
20.4139 36.6136 66.9002
20.3499 36.6257 66.9235
20.2667 36.5049 66.9181
20.3981 36.6013 66.781
20.3332 36.852 67.4302
20.0777 36.3941 67.0156
20.0003 36.267 66.873
19.9583 36.5898 67.9564
20.0607 36.5698 67.6188
19.5897 35.839 66.8021
19.6689 36.1764 67.5315
19.566 35.9726 67.5746
19.5373 35.8334 67.1986
19.6131 36.2666 67.716
19.1966 35.7451 67.9483
19.4273 35.8561 67.7094
19.3503 35.7974 67.5951
19.3361 35.9503 67.7974
19.1322 35.7487 67.7565
19.0401 35.6923 67.8245
18.9337 35.7262 68.7445
19.0231 35.379 67.4939
18.8345 35.4555 67.9058
18.9964 35.9932 68.7707
18.9234 36.0771 69.3995
18.8163 35.7334 69.1794
18.9513 36.0589 69.4008
18.5742 35.3715 68.5206
18.465 35.4637 69.3177
18.4386 34.9742 67.7237
18.2431 35.1052 68.5711
18.361 35.2505 68.6184
18.226 35.4934 70.1189
18.3578 35.2576 68.7332
18.1528 35.5756 70.2509
17.9506 34.7617 69.1264
18.0524 34.8202 68.8158
17.9519 34.9928 69.4282
17.892 34.755 68.7615
17.7695 34.8218 69.4326
17.9038 35.3777 71.4423
18.4214 35.824 70.369
17.4561 34.3763 69.1825
17.6512 34.9763 70.5345
17.6082 34.4131 68.8763
17.4822 34.6802 69.1345
17.0673 34.1051 69.3616
17.5044 34.9716 70.7046
17.421 34.7877 70.3437
17.2305 34.5886 70.7388
17.2425 34.4161 69.7725
17.1138 34.6601 70.8879
16.9806 34.0266 69.6841
17.0039 34.467 70.4804
16.7438 33.9141 70.2548
16.8787 34.2002 70.8461
16.7798 33.8279 70.4378
17.2634 35.0977 71.6343
16.646 33.9022 70.4236
16.5821 33.9316 70.8486
16.5733 33.7629 70.256
16.5825 33.9505 70.5737
16.3611 33.6766 70.7432
16.4322 33.642 70.2834
16.2026 33.3831 70.055
16.1604 33.3114 69.7357
15.979 33.2902 70.6093
16.2759 33.9634 72.2315
16.4829 33.9232 70.879
15.9831 33.6522 71.7138
16.0144 33.4323 71.4023
16.2375 33.9913 71.9519
15.8289 33.1622 70.9156
15.768 33.2658 71.4659
15.8216 33.0506 70.8217
15.8603 33.4628 71.8992
15.951 33.645 71.8433
15.5567 32.9741 71.202
15.7439 33.6422 72.0699
15.2527 32.4843 70.9817
15.4062 32.7452 71.1715
15.4381 32.9774 72.0938
15.5442 33.1614 71.8124
15.3553 32.9021 71.8418
15.2256 32.6041 70.8657
14.9512 32.3961 71.7642
15.2964 33.1657 72.8677
15.0693 32.4891 72.2487
15.154 33.7431 82.0502
19.6544 40.8321 80.4437
14.9631 32.64 72.1765
15.0017 32.903 72.7324
14.8 32.3944 72.1694
14.8034 32.4013 72.2724
14.9249 32.6799 72.4483
14.7006 32.3328 71.9877
14.5114 31.9163 71.601
14.6073 32.2664 72.4018
14.533 31.9962 72.3104
14.7534 32.651 72.8543
14.4291 31.983 72.426
14.4517 32.1964 73.4587
14.7051 32.4111 72.4756
14.2362 31.8716 72.1808
14.1899 31.8036 72.587
14.1345 31.6147 72.5682
14.2706 31.7272 72.0265
14.1705 31.9818 73.0371
14.0353 31.4897 72.2578
14.1257 32.0572 74.2383
14.2957 31.9214 72.8988
13.8926 31.3551 71.9488
13.7584 31.0804 72.0144
13.8962 31.6772 72.9807
13.8396 31.2388 71.7406
13.6951 31.6101 73.9967
13.9746 31.9242 73.9001
13.7051 31.3497 73.171
13.6596 31.4156 74.1157
13.8392 31.4041 72.8049
13.5751 31.2948 73.6262
13.5975 31.2858 73.3167
13.4392 30.6858 72.1268
13.4169 31.1261 73.1713
13.3724 30.612 71.6101
13.1347 30.8373 73.0268
13.2323 30.8552 73.5952
13.2716 30.5599 72.1829
13.2087 30.8245 73.1735
13.0356 30.3979 72.8863
13.2056 31.0072 73.8506
12.9625 30.0849 71.773
12.9725 30.7048 73.8642
13.1291 30.7476 73.4075
13.0028 30.6002 73.2768
12.9162 30.4739 73.3017
12.9087 30.663 73.8687
12.8456 30.5422 74.3333
12.9597 30.5662 73.7949
12.8209 30.3354 73.2777
12.8546 30.9719 75.1637
12.7985 30.4184 74.2152
12.7307 30.3155 73.8215
12.6011 30.246 74.4998
12.8124 30.564 74.4853
12.535 29.9317 73.5834
12.5687 29.9694 73.22
12.5706 30.3869 74.3076
12.5734 30.4857 74.7302
12.5129 30.3162 75.0894
12.4946 29.9997 73.7397
12.3925 30.2897 75.1157
12.4515 30.2089 74.8065
12.3983 30.3103 75.372
12.3409 29.9315 74.2889
12.3249 30.4431 75.6889
12.2913 30.0852 75.6649
12.3873 30.0969 74.8918
12.2115 30.0558 75.2858
12.1101 29.5988 74.5113
12.213 30.0728 75.0359
12.0538 29.8972 75.6466
12.1714 29.8176 74.4239
11.853 29.4955 74.8235
12.0084 29.9535 75.6375
11.919 29.5581 75.4879
12.0175 29.8081 75.7172
12.0957 30.1772 76.2914
11.9427 29.9335 76.3326
11.7965 29.3029 74.5046
11.611 29.3594 75.862
11.7744 29.2 74.61
11.6606 29.2945 75.3726
11.6321 29.1476 75.0881
11.7797 29.6427 76.1325
11.7266 29.3237 74.9267
11.6049 29.5653 76.3651
11.6535 29.443 75.7964
11.5617 29.3062 75.6221
11.4669 29.1879 75.5237
11.4503 29.261 76.2742
11.6043 29.5326 76.3047
11.3511 29.2767 77.2133
11.6512 30.0927 79.0055
11.5324 30.7165 91.3651
15.1607 36.4993 83.942
11.5725 29.9759 78.4522
11.5439 29.8769 78.2975
11.3854 29.2911 77.3171
11.4686 29.3132 76.2028
11.1688 29.054 76.751
11.1939 29.1249 77.3468
11.1451 28.2909 74.5857
11.0912 28.9458 76.2752
10.9979 28.7163 75.8663
10.8387 28.0435 74.8019
10.8921 28.5654 76.0283
10.965 28.6101 75.7922
10.8313 28.4963 76.3936
10.8818 28.1757 74.3307
10.6378 28.5439 77.1681
10.7879 28.0913 75.7441
10.741 28.2273 75.8285
10.6941 28.0685 75.6161
10.6053 28.038 76.3315
10.7235 28.0869 75.9968
10.7693 28.3175 75.9785
10.6081 28.0473 75.5471
10.4743 27.85 76.1738
10.6893 28.3024 75.7082
10.428 28.0495 76.5043
10.4038 27.3943 74.5079
10.3535 27.7141 75.6462
10.3518 27.8223 75.8083
10.2066 27.0933 74.7799
10.2775 27.4217 75.0677
10.2066 27.379 75.4106
10.3081 27.575 75.5617
10.2668 27.4641 74.7602
10.1289 27.3979 75.7262
10.1696 27.3586 74.9163
10.007 27.1784 75.4347
10.1009 27.4724 76.0302
10.032 27.0479 75.3318
10.1018 27.4722 76.0537
10.0436 27.2084 75.716
10.0764 27.6228 76.3869
9.89903 26.9855 75.8795
9.99229 27.2135 75.5459
9.78943 26.7264 75.5377
9.93815 27.0441 75.5185
9.83368 26.7254 74.2244
9.6829 26.806 75.1846
9.67417 26.5948 75.3902
9.85145 27.1388 75.6851
9.68475 26.7345 75.4128
9.6413 26.549 75.5625
9.70228 26.3396 73.413
9.44019 26.5366 75.9861
9.65538 26.6443 75.4523
9.65509 26.8235 75.5402
9.54354 26.742 75.9498
9.53449 26.5875 76.0001
9.54863 26.6976 76.6937
9.62011 26.6119 75.9132
9.54385 26.636 76.132
9.52107 26.5412 75.5682
9.41599 26.4702 76.165
9.49431 26.5693 76.0798
9.38115 26.1621 75.4707
9.41412 26.5476 75.6096
9.23451 26.0259 75.0886
9.24228 26.1602 75.6893
9.27466 26.0553 74.9625
9.22636 26.3582 76.9347
9.36348 26.2397 75.1691
9.14135 26.1842 76.4616
9.26865 26.2896 75.7978
9.07694 25.9328 76.1781
9.09695 25.5598 75.1714
9.19101 26.1798 75.6162
9.01312 25.9204 76.2273
9.09254 25.982 76.4865
9.11835 25.977 76.0378
9.05937 25.9544 76.2002
8.98981 25.734 75.7923
8.97505 25.7543 76.1633
8.99054 25.5342 74.5882
8.82905 25.5435 75.7583
8.85946 25.2362 74.3996
8.85138 25.6556 75.6745
8.86434 25.7347 76.1232
8.87377 25.6789 76.0229
8.86234 25.8131 76.2431
8.76164 25.3451 75.516
8.81281 25.8537 76.9997
8.77582 25.1731 75.2707
8.77289 25.6293 76.24
8.76445 25.5855 76.0024
8.62789 25.3158 75.95
8.57574 26.652 93.5637
11.5814 31.415 80.5345
8.58757 25.479 76.2486
8.60744 25.3753 75.9981
8.56412 25.0139 74.8422
8.47327 25.1442 75.5136
8.48615 24.9935 74.837
8.40407 25.0488 76.218
8.49673 24.9776 75.6712
8.44505 24.7327 74.5749
8.43181 25.1599 76.1682
8.41804 24.7242 74.7575
8.36583 25.1057 76.7572
8.46114 25.1233 75.9213
8.27818 24.5538 75.5494
8.373 24.7656 75.225
8.28203 24.654 75.1372
8.25634 24.6974 75.6346
8.21815 24.5439 75.4274
8.20347 24.3083 74.8923
8.18024 24.3721 75.388
8.26323 24.6227 74.9089
8.17372 24.6379 75.6953
8.16046 24.4397 75.0016
8.11945 24.5889 75.7264
8.07545 24.1685 74.8886
8.10655 24.4533 74.5731
7.93794 24.1394 75.1732
8.06502 24.3343 75.6222
8.0581 24.1717 74.252
7.89728 23.8617 73.7247
7.81795 23.9346 75.1641
8.00693 24.2763 75.5576
7.93385 23.9117 74.8736
7.94801 24.1244 75.2372
7.91369 24.0756 75.362
7.91725 24.0965 75.4018
7.89657 24.0199 74.9766
7.83907 24.0129 75.468
7.87133 24.0222 75.5843
7.86372 23.8474 74.4183
7.73896 23.7149 74.2439
7.72319 23.8204 74.9804
7.72848 23.6958 74.4509
7.63967 23.4044 74.356
7.72439 23.8764 74.7884
7.63028 23.6555 75.1016
7.6498 23.5143 74.5501
7.60844 23.3735 74.5413
7.60417 23.2698 73.7666
7.56403 23.446 74.7314
7.63885 23.6623 74.7728
7.6008 23.6204 75.4258
7.62234 23.4856 74.7356
7.58275 23.6752 75.5046
7.5771 23.5067 74.7017
7.46664 23.2114 74.5544
7.55956 23.5847 74.4562
7.37198 23.2627 75.5685
7.5087 23.21 74.3462
7.40281 23.2503 75.1602
7.47695 23.1705 74.3624
7.3855 23.025 74.3888
7.40362 23.0674 74.292
7.3988 23.3612 75.0353
7.40325 23.2541 74.5021
7.31475 22.8681 73.8637
7.33792 23.2845 74.8092
7.30325 23.1415 75.0996
7.29095 22.6519 73.3748
7.23323 22.941 73.9174
7.18338 22.7521 73.8522
7.16025 22.8035 74.1816
7.17203 22.8388 74.8371
7.27147 23.0645 74.6891
7.18406 22.8785 74.1629
7.05917 22.4691 74.404
7.15065 22.5168 73.8351
7.10038 22.5874 74.1945
7.16728 22.9081 74.5208
7.09693 22.5059 73.7741
7.05352 22.4292 73.0987
6.975 22.5194 74.2403
7.03457 22.3934 73.833
6.99222 22.303 74.136
7.09849 22.7151 73.8312
6.98022 22.6374 74.5658
6.94145 22.1858 74.0313
6.9697 22.2449 73.409
6.8824 22.0833 73.4777
6.8958 22.0148 73.0722
6.89913 22.2911 73.6071
6.8726 22.2187 73.7945
6.87885 22.4033 74.5713
6.89437 22.2845 74.4626
6.88513 22.3162 74.3336
6.87717 24.0824 96.0577
9.43651 27.765 76.917
6.80434 22.5087 73.7105
6.70587 22.2313 75.5154
6.90974 22.119 72.9163
6.7136 22.1815 74.1941
6.75262 21.9294 73.4479
6.69867 21.8474 73.2841
6.68859 21.7394 72.8316
6.67299 21.8796 73.0834
6.63664 21.8359 74.0763
6.72964 21.9576 73.2337
6.64004 21.8605 73.7942
6.67289 22.0569 74.8859
6.74557 21.9122 73.9937
6.71134 22.115 73.6061
6.54657 21.5429 74.0139
6.64648 21.7008 73.3924
6.61437 22.0365 74.8428
6.63721 21.5128 72.899
6.5255 21.6011 73.5707
6.5794 21.6704 73.8562
6.5856 21.7033 74.3685
6.62546 21.7279 72.8522
6.44876 21.4016 72.9154
6.5013 21.6535 73.6102
6.45169 21.2991 73.2871
6.51609 21.8265 73.6842
6.43397 21.3558 73.1808
6.44847 21.5179 73.5274
6.41977 21.3409 73.5264
6.45778 21.5401 73.7172
6.40916 21.4098 73.9148
6.45379 21.477 73.6956
6.43304 21.5666 74.1348
6.43874 21.5349 74.195
6.40352 21.2917 73.452
6.38632 21.4555 74.1115
6.43003 21.5583 73.5168
6.33504 21.2224 73.7236
6.36451 21.2874 73.176
6.27914 21.1105 72.5775
6.19616 20.8078 72.6823
6.23269 20.9086 72.9872
6.259 20.9518 72.9232
6.2362 20.7548 71.8022
6.19199 21.1183 73.0317
6.23215 21.179 73.2199
6.21749 20.9961 73.284
6.19402 20.6964 72.4252
6.20569 21.061 72.8779
6.16543 21.0095 73.4856
6.22166 21.019 73.3856
6.21298 21.1536 73.4097
6.16191 20.9776 73.351
6.17247 21.0118 72.0232
6.00382 20.5814 73.4494
6.15684 20.8303 73.1559
6.12958 20.6483 72.3479
6.11474 20.8977 73.0681
6.10062 21.0084 73.8234
6.11088 20.554 72.5869
6.09499 20.8718 72.7509
6.03348 20.7292 72.8165
6.03783 20.7451 73.4195
6.04245 20.4822 72.1695
5.98303 20.7945 73.9023
6.07321 20.6172 72.7197
5.98525 20.4636 72.8063
6.03661 20.6631 72.6073
5.95068 20.5848 73.6599
6.05412 20.5419 73.2029
6.01793 20.7048 72.4521
5.93106 20.5639 72.0308
5.8962 20.6267 73.4134
5.98583 20.696 73.4832
5.94848 20.336 72.7745
5.92384 20.4075 72.4146
5.88141 20.3551 72.7211
5.90626 20.4866 73.1014
5.90268 20.3546 72.3257
5.87395 20.4595 72.0546
5.77474 20.2063 73.7955
5.9468 20.6297 73.5506
5.88356 20.2289 72.6988
5.83924 20.181 72.4864
5.84786 20.6174 74.2195
5.96117 20.6579 74.5605
5.96127 20.5628 73.8585
5.91817 20.5354 73.1759
5.80415 20.3032 73.7003
5.87494 20.2816 72.3517
5.78314 20.2845 73.012
5.83992 20.7192 74.1887
5.86581 20.9816 77.128
6.0881 21.568 78.4066
6.15859 23.3257 99.9441
8.07511 25.3985 78.9423
6.11593 21.6289 76.7455
6.00682 20.7615 73.6577
5.79937 20.6491 74.4951
5.84751 20.7377 74.5228
5.81587 20.3008 73.989
5.79287 20.3498 73.9629
5.79228 20.2707 73.0038
5.7208 20.2596 73.4677
5.72605 20.0706 72.6173
5.67229 20.0996 72.755
5.62699 19.8728 73.309
5.73378 19.996 71.7015
5.57181 20.0387 73.2816
5.64235 19.8288 72.5054
5.6141 19.8398 72.6648
5.6282 19.958 72.6134
5.62712 20.0989 72.8048
5.58206 19.7447 72.8992
5.62654 19.8747 71.78
5.49118 19.4505 72.5559
5.61106 19.7511 71.651
5.51396 19.6837 72.6928
5.56604 19.748 71.7029
5.47064 19.4484 72.5067
5.57695 19.732 71.3564
5.45153 19.6574 72.5288
5.52553 19.6076 71.4526
5.4426 19.4459 71.3723
5.41314 19.2723 71.2539
5.42854 19.4117 71.4346
5.42464 19.446 71.1246
5.38523 19.3874 71.6561
5.40987 19.2614 71.2434
5.39109 19.3426 71.5265
5.40989 19.4726 72.195
5.43259 19.4617 71.9173
5.38255 19.3228 72.2477
5.44593 19.4786 72.2766
5.41592 19.2816 71.6424
5.38042 19.2228 71.2849
5.35456 19.2471 71.0262
5.3174 19.1272 71.6619
5.36839 19.1307 70.5379
5.30372 19.2235 71.4565
5.33524 19.2799 71.1017
5.24676 18.6517 70.9719
5.34484 19.2938 71.2946
5.31295 19.083 70.4825
5.257 19.1427 71.6201
5.32063 19.3009 71.7879
5.31219 19.1892 70.926
5.24331 19.0613 71.2263
5.25156 18.9702 71.7146
5.29706 19.0361 71.2656
5.26042 18.8177 69.9789
5.18664 18.8752 70.1946
5.18145 19.0854 71.8889
5.27303 19.1466 72.3616
5.30338 18.9798 71.3452
5.2594 18.9998 70.7141
5.20689 19.2887 71.8769
5.21531 18.6954 70.1792
5.15053 18.9164 72.263
5.31383 19.3398 71.3595
5.19165 18.734 70.5887
5.16644 18.968 71.1679
5.17783 18.8442 70.7866
5.14358 18.7105 70.4611
5.12825 18.8548 72.0257
5.22245 18.6953 70.2814
5.11112 18.8435 71.3174
5.14911 18.6206 70.3524
5.10737 18.7482 70.5092
5.09511 18.4811 69.8362
5.06925 18.5656 70.226
5.0768 18.5339 69.8709
5.0478 18.6527 71.6364
5.16914 18.8253 71.0985
5.11164 18.6992 70.8133
5.1081 18.7759 70.1651
5.0334 18.499 70.2551
5.05359 18.8304 71.4919
5.1057 18.4988 70.1647
5.02512 18.3252 69.3386
4.9723 18.6671 70.8226
5.04461 18.4848 70.477
5.02559 18.3881 71.5002
5.099 18.6754 70.686
5.03815 18.2951 70.7759
5.0596 18.6941 70.0093
4.98724 18.6506 70.9122
5.01902 18.491 70.3878
5.00847 18.8063 70.7076
4.9758 18.4191 70.1568
4.95391 20.6418 97.583
6.95417 22.3609 71.3018
5.00306 18.7961 70.3163
4.96407 18.5801 70.4803
4.96197 18.5016 70.728
4.98455 18.4613 71.1697
5.03284 18.6724 70.0437
4.9132 18.1497 70.465
4.98833 18.6371 70.5933
4.94035 18.2082 69.9525
4.93099 18.1143 69.6077
4.90455 18.1199 69.3631
4.88308 18.3814 70.8559
4.9402 18.033 69.2978
4.87947 18.3372 70.8527
4.9337 18.2342 69.4691
4.85859 18.2985 70.9037
4.93838 18.1202 70.021
4.90989 18.1686 68.8557
4.80362 17.9195 68.8684
4.80022 17.9969 69.8755
4.88173 18.0026 69.5114
4.83846 17.9753 69.4328
4.8361 18.169 69.854
4.85936 18.2067 69.7981
4.84014 18.0838 69.9867
4.85081 18.184 69.8827
4.83313 18.1833 70.5002
4.85812 17.8494 69.4431
4.83332 18.0243 69.5758
4.81131 17.8218 68.7444
4.76633 17.9891 69.3642
4.78013 17.9432 69.0775
4.76266 17.8965 69.8659
4.8261 17.8641 69.1495
4.75095 17.8723 69.7697
4.82151 17.9561 69.611
4.79528 18.266 70.6393
4.84713 18.0681 70.2539
4.81231 17.9097 70.1239
4.81343 17.9218 69.5264
4.77439 17.7655 68.2783
4.71306 17.8796 68.7536
4.69328 17.7105 69.7247
4.77066 17.7592 68.6145
4.68962 17.4429 69.0286
4.74247 17.8385 68.7555
4.71245 17.7911 69.1212
4.73769 17.7125 68.8417
4.70968 18.0124 70.2841
4.77394 17.6231 68.3633
4.67877 17.8926 69.3476
4.70956 17.5693 68.0306
4.63908 17.7607 69.4589
4.71685 17.6712 69.8715
4.75842 17.8289 69.3602
4.7172 17.9982 70.2829
4.76104 17.8488 68.7501
4.65954 17.8163 70.4511
4.75857 17.659 68.2692
4.61453 17.5471 69.0143
4.65687 17.7176 70.312
4.75325 17.6883 69.1582
4.68084 17.6711 69.0257
4.67813 17.817 70.0785
4.73123 17.6916 68.7292
4.63155 17.7089 69.0621
4.6646 17.7769 70.0654
4.70511 17.5644 68.5645
4.62315 17.5475 68.714
4.61938 17.4136 68.5797
4.63263 17.5027 68.0174
4.58492 17.4958 68.0371
4.57649 17.7159 69.8793
4.68459 17.5767 69.6276
4.68516 17.5954 68.594
4.59974 17.8047 70.2792
4.69273 17.687 69.1848
4.63233 17.5253 69.5467
4.66197 17.6516 69.6704
4.6626 17.6648 69.1912
4.62985 17.5044 68.6121
4.59517 17.4458 69.1411
4.63231 17.5765 68.8498
4.59156 17.4623 68.9437
4.61539 17.4136 68.3737
4.56941 17.3041 68.7752
4.60364 17.4828 68.4544
4.57349 17.4887 69.3506
4.62912 17.4317 67.8932
4.53575 17.2815 67.7286
4.51835 17.4019 68.7804
4.58632 17.5168 68.8475
4.58066 17.2584 67.9821
4.51995 17.3692 69.1307
4.59316 17.8599 68.9509
4.58067 20.1996 97.9457
6.43695 20.6191 68.2911
4.52761 17.6313 68.8364
4.57723 17.703 68.1649
4.52068 17.4074 69.1445
4.60315 17.5514 69.0999
4.57256 17.6747 69.5198
4.577 17.3256 68.4087
4.51653 17.2091 68.7607
4.57787 17.5226 69.1432
4.57268 17.3239 68.4215
4.53699 17.2587 67.9141
4.49098 17.4507 69.8498
4.60218 17.4024 68.807
4.55501 17.5101 68.1218
4.49013 17.047 68.8543
4.5443 17.4893 69.533
4.59196 17.3347 68.1527
4.49461 17.1465 68.9491
4.54017 17.2722 67.4093
4.44993 17.1301 68.0205
4.48428 17.1534 67.7038
4.44693 17.0925 68.0825
4.47604 17.149 68.4844
4.52186 17.356 68.8935
4.53429 17.4993 68.8899
4.52511 17.1926 69.0477
4.53579 17.3064 67.702
4.45282 17.2815 68.7201
4.51342 17.1472 68.5796
4.51553 17.3923 68.8031
4.51379 17.3069 68.7132
4.51967 17.2425 69.4882
4.55649 17.5022 68.8848
4.52391 17.1135 67.8743
4.44429 17.0666 68.8579
4.52355 17.4525 69.0579
4.52977 17.4155 67.9351
4.44281 17.2065 68.822
4.50397 17.403 69.2063
4.51585 17.3287 68.8196
4.49619 17.1713 68.2754
4.47931 17.2284 68.7348
4.50043 17.2933 68.8459
4.50017 17.3845 69.3887
4.52832 17.2072 68.6319
4.48579 17.1476 67.2572
4.39056 16.929 67.7787
4.42707 17.3457 68.8195
4.50206 17.2116 68.5966
4.48634 17.247 69.2126
4.52139 17.2099 68.3147
4.47225 17.0968 67.8877
4.43051 17.0898 67.8016
4.4313 16.959 68.2208
4.45126 17.19 68.3977
4.4708 17.2614 68.2007
4.45554 17.0608 67.8972
4.4269 17.3421 69.2743
4.51307 17.2601 69.5929
4.54574 17.3105 69.1772
4.50933 17.3671 69.0196
4.49973 17.2194 68.73
4.47707 17.2429 69.0076
4.49921 17.2185 68.2536
4.45503 17.2899 68.8306
4.48553 17.4046 69.0503
4.48329 17.0601 68.8073
4.48645 17.0515 68.6515
4.49439 17.5405 68.4718
4.46079 17.3091 68.7694
4.47815 17.1666 68.9085
4.48555 17.3014 70.0992
4.57367 17.3221 68.0957
4.4376 17.0809 68.339
4.45435 17.3036 68.6713
4.4689 17.1878 68.4677
4.46638 17.2339 68.3945
4.45236 17.2907 69.4179
4.53414 17.3066 68.8257
4.4772 17.4576 68.8612
4.48639 17.1458 69.0977
4.49691 17.224 69.2706
4.51614 17.4236 69.1659
4.49681 17.2617 68.6759
4.47683 17.3966 69.6551
4.525 17.3032 69.8809
4.53881 17.401 69.2152
4.49891 17.2383 68.804
4.46915 17.544 70.0905
4.55785 17.3982 69.9403
4.56587 17.4652 70.5425
4.59048 17.7825 70.6251
4.59649 18.0511 72.2832
4.69335 18.2012 72.9342
4.73002 18.9873 73.9664
4.79103 21.153 102.138
6.55443 0 0