# pn-170911/RbIIR-57-USN7-1280-1959.psd
# Power spectrum* (dif=0,1,2) (really just |FT|^2)
# NOTE: only the first half! (symmetric)
# weeks: 1280-1959
# 413 clock-days, 123 excluded
# PSD: 1441
544.191 0.0845368 0.0641716
27600 0.531623 0.127306
186586 3.93771 0.141319
17867.4 0.612106 0.121671
50199.8 3.86433 0.139439
5721.86 0.553239 0.12452
5460.72 0.717301 0.136001
2847.28 0.51448 0.121075
3668.37 0.908488 0.125944
1535.87 0.480578 0.138768
1599.09 0.631549 0.134954
1153.29 0.539801 0.122518
1170.93 0.667437 0.141736
935.685 0.588338 0.128882
874.469 0.692348 0.135117
825.139 0.701838 0.138319
728.358 0.73603 0.132959
600.767 0.72078 0.132492
591.516 0.742355 0.141396
509.058 0.735912 0.136853
519.526 0.835129 0.1278
467.638 0.807419 0.128811
471.109 0.946455 0.140186
402.756 0.898933 0.131342
431.745 1.07213 0.137299
390.41 1.00845 0.140308
376.412 1.09513 0.135081
382.54 1.12384 0.132005
385.352 1.33794 0.143591
336.674 1.21846 0.130332
339.914 1.37573 0.145695
345.039 1.39794 0.139882
309.23 1.35372 0.136957
335.518 1.61516 0.133637
311.493 1.58436 0.141185
312.368 1.63569 0.13874
319.749 1.83957 0.145867
316.22 1.86715 0.147576
292.024 1.8336 0.138025
288.604 1.88826 0.137956
306.973 2.1941 0.150498
281.088 2.10966 0.143337
283.346 2.27564 0.141814
271.463 2.29074 0.14904
259.943 2.30238 0.148094
266.334 2.43935 0.154161
255.674 2.47173 0.155733
295.051 2.94062 0.16256
297.168 3.06211 0.168456
233.604 2.62108 0.16364
266.938 2.93523 0.160448
234.167 2.81335 0.153266
248.986 3.06409 0.183549
287.635 3.62746 0.17827
256.935 3.37456 0.180472
262.221 3.55545 0.189182
229.893 3.19023 0.181524
244.07 3.53029 0.179187
239.958 3.69827 0.197344
256.506 4.22799 0.199546
236.983 3.95724 0.201587
246.178 4.25404 0.233822
235.974 4.18452 0.204465
222.487 3.96603 0.218559
229.373 4.29284 0.227004
241.865 4.73842 0.240255
208.479 4.16945 0.22869
235.993 5.05198 0.245438
221.313 4.65453 0.26397
228.563 4.93722 0.255987
223.888 5.13974 0.250449
236.763 5.64373 0.252184
229.063 5.5915 0.266096
214.91 5.29675 0.254191
204.197 5.11172 0.26379
222.045 5.75278 0.270564
234.008 6.22512 0.316121
233.222 6.20564 0.303202
210.005 5.96936 0.298725
202.622 5.92446 0.313198
189.707 5.56157 0.304006
181.403 5.43881 0.294019
206.36 6.36852 0.347267
196.065 6.10656 0.340534
187.99 6.1568 0.349224
186.483 6.02588 0.317101
191.44 6.4399 0.364448
207.216 7.24751 0.3766
182.969 6.39452 0.371848
203.208 7.50189 0.41819
195.339 7.35614 0.411165
210.447 8.26464 0.420941
190.279 7.50265 0.440927
173.42 6.8515 0.380757
172.893 7.04171 0.394209
184.619 7.901 0.464175
227.35 9.53969 0.558531
182.9 7.85549 0.455324
183.085 8.26292 0.492137
169.887 7.76297 0.49003
168.597 7.82692 0.506826
182.047 8.66913 0.520735
171.52 8.19422 0.53454
166.705 7.96352 0.510968
165.818 8.37072 0.553128
168.082 8.67924 0.568884
145.455 7.47096 0.519465
182.019 9.63937 0.634536
188.155 10.0302 0.691248
161.216 8.89151 0.629902
151.904 8.75908 0.589357
168.859 9.60826 0.666307
167.051 9.56802 0.665492
156.128 9.39386 0.674686
162.027 9.62708 0.69406
187.199 11.7064 0.846868
160.242 9.97407 0.726234
145.954 9.16452 0.686145
149.81 9.72344 0.769034
151.711 10.3066 0.753035
154.598 10.3125 0.825659
154.959 10.5029 0.812186
145.471 10.1217 0.826521
135.167 9.45541 0.739574
138.842 9.87615 0.813564
135.252 9.62168 0.823769
147.252 10.9145 0.932348
139.187 10.185 0.83616
143.311 10.9872 0.936876
154.932 12.0247 1.03226
137.179 10.6777 0.972874
152.419 12.19 1.11094
145.296 11.5795 1.04905
137.386 11.2915 1.04101
135.357 11.1223 1.01116
145.529 12.2718 1.13135
141.453 12.1732 1.15367
134.208 11.6881 1.09123
140.847 12.4646 1.23675
131.788 11.8773 1.17979
130.683 11.874 1.18408
115.733 10.5002 1.0719
124.353 11.7817 1.23086
127.282 12.1333 1.25299
159.253 15.8578 1.65096
121.21 11.687 1.20168
119.274 11.6702 1.29206
125.082 12.4005 1.36836
133.167 13.9315 1.56889
116.481 12.0789 1.31773
122.466 12.9818 1.46714
127.215 13.3914 1.50795
122.172 13.1808 1.53119
130.701 14.4161 1.68854
117.412 12.8809 1.46074
128.747 14.3957 1.70203
127.488 14.1656 1.71041
115.559 13.1716 1.64519
124.764 14.0952 1.71775
118.19 13.8741 1.80957
108.272 12.8216 1.62135
124.043 15.3799 2.02563
127.089 15.221 1.94058
111.926 13.5887 1.75092
116.692 14.4413 1.90704
113.959 14.1947 1.83898
112.051 14.0691 1.89539
119.216 15.757 2.17645
127.176 16.613 2.30315
128.361 16.6735 2.2703
98.4458 13.3248 1.87163
111.81 14.9196 2.14161
119.504 16.6202 2.40305
107.446 14.8199 2.16377
116.285 16.3761 2.41061
119.495 16.5539 2.38547
115.018 16.7076 2.45157
119.37 17.4935 2.64627
115.929 17.2548 2.64723
116.354 17.0472 2.61656
115.439 17.2844 2.64711
111.425 16.8061 2.54304
105.393 16.6134 2.68264
104.398 15.7744 2.50668
107.246 17.1161 2.71727
117.677 18.957 3.1196
113.857 18.0931 2.88808
108.65 17.4445 2.94956
101.039 16.6306 2.76708
92.1395 15.4797 2.61571
101.208 16.7138 2.82725
111.17 19.2785 3.38171
130.597 22.1208 3.85698
114.257 19.1865 3.31288
93.9353 16.1721 2.88755
100.668 17.8588 3.27819
115.002 20.408 3.69863
94.0846 16.9544 3.07693
104.78 19.3395 3.66718
106.857 19.0781 3.49164
98.855 18.1062 3.45701
100.61 18.7934 3.53846
93.5637 18.2136 3.56588
89.7001 17.2577 3.39751
108.004 20.3398 3.99898
108.067 21.0429 4.1821
94.6751 18.8918 3.89907
103.894 20.3009 4.04414
92.6963 18.7646 3.82956
90.8888 17.8893 3.71015
99.0444 20.1136 4.12754
105.309 21.5201 4.54032
93.0366 18.547 3.79134
90.0077 18.8525 3.98628
82.7976 17.6266 3.80383
102.295 22.204 4.98963
100.977 20.9827 4.47714
96.5288 20.6904 4.58165
88.7831 19.6221 4.37145
87.5045 19.5845 4.60324
89.4427 19.7939 4.541
90.9116 20.6073 4.7244
94.5185 21.6631 5.02976
91.9927 20.9095 4.92086
89.0991 20.1963 4.69039
88.3674 20.7592 4.99896
85.5158 19.334 4.57839
94.2482 22.2515 5.25427
88.2692 21.7753 5.34845
88.5971 20.809 4.96798
87.3355 21.3058 5.28151
87.3244 21.554 5.35389
92.4394 22.8098 5.58543
83.6628 21.5226 5.57175
83.7873 20.8321 5.24863
78.7053 20.6592 5.40724
87.4301 22.163 5.7392
85.2553 21.6405 5.60373
80.8807 21.003 5.5831
81.5883 22.036 6.0085
83.1736 22.2888 5.89293
82.6982 21.8144 5.86299
81.197 21.6778 5.75126
77.7057 21.1035 5.71124
85.5629 23.7154 6.6717
91.2151 25.3653 6.97722
80.6486 22.6156 6.55465
90.0244 24.6969 6.91601
75.1469 21.1975 6.17837
79.2497 22.4297 6.38911
69.585 19.7212 5.62779
70.8696 20.8521 6.16816
79.7052 23.6326 7.11451
88.0478 25.0833 7.22691
72.141 21.48 6.37205
76.1152 22.7286 6.70559
78.9986 23.9882 7.42874
73.7008 21.7035 6.50642
76.533 23.5513 7.34679
70.2445 22.1034 7.01951
69.2141 21.6246 6.69889
72.172 22.5918 7.01463
72.9897 22.826 7.25887
75.4271 24.1292 8.05767
83.2617 25.6519 7.85698
77.0914 25.1656 8.09449
72.7311 23.6212 7.58625
72.5559 23.9563 8.06633
71.5046 23.4766 7.85354
77.9435 25.6086 8.47531
71.7688 23.8295 8.13517
70.4054 22.9948 7.58138
69.3264 23.717 8.39128
74.8874 25.2128 8.71152
70.1723 23.9974 8.52566
78.3397 26.2795 8.90345
73.9789 25.77 9.15103
74.7765 26.07 9.12366
67.5293 23.8599 8.4163
69.0505 24.4365 8.74778
70.5723 25.847 9.39009
68.3255 24.9863 9.08482
68.5175 24.7466 8.93693
67.671 24.9348 9.34455
69.4539 25.9954 9.693
64.4741 23.5241 8.77592
63.6237 23.887 9.06668
66.8333 25.2501 9.78603
78.5072 29.6923 11.2192
65.6256 24.0026 9.13713
66.8563 25.9765 10.1228
61.1701 23.1767 9.27948
63.5217 24.9418 9.85648
64.0491 24.8661 9.73765
64.4803 25.0376 9.90721
58.7403 23.3524 9.37562
59.7654 24.1381 9.90858
63.5532 25.1663 10.062
65.0029 26.2278 10.5693
65.2636 27.1493 11.4011
62.8533 25.8178 10.5552
63.4367 25.8284 10.4791
55.7247 23.1982 9.73786
57.6557 23.9265 10.2346
65.7825 27.5742 11.3956
58.0655 25.4673 11.1128
63.7431 26.3627 11.188
70.2754 29.8427 12.6936
61.6341 26.8788 11.8054
62.4779 27.1783 11.9266
58.1852 25.4954 11.3754
63.2299 27.2991 11.958
60.7811 26.4268 11.572
57.3864 25.8309 11.7797
64.6491 28.9403 13.1245
57.6829 26.0584 11.9392
58.1187 26.0928 11.8876
61.9609 28.17 12.9613
53.2641 24.2031 11.3447
62.7266 28.393 13.044
53.2269 24.2131 11.2141
60.4913 28.629 13.6646
61.6891 28.5968 13.1993
63.1086 29.815 14.0705
56.6831 27.0912 13.1251
55.3369 25.7885 12.2133
58.2659 27.7005 13.3058
50.3638 24.7939 12.3606
57.1455 28.0227 13.9898
56.8492 27.1035 13.2903
58.5203 28.5149 13.8373
51.5812 25.8822 13.076
55.2947 27.6773 13.7443
52.5337 25.7872 12.8175
53.5968 27.2372 13.7662
58.1853 28.3006 14.1782
54.6389 27.9792 14.043
51.6458 27.0451 14.1761
56.0739 29.9571 16.0579
55.5336 28.8522 15.3848
56.4871 28.7387 14.6284
50.8831 26.6973 14.3268
51.2894 27.5236 14.8088
53.5856 27.762 14.701
50.4123 26.4639 14.0196
53.6907 28.7252 15.6144
51.5602 27.4327 14.8894
52.4404 27.4251 14.5343
48.7444 26.9517 15.1361
53.7636 30.0345 16.718
48.7445 26.8776 15.0621
49.6421 26.6889 14.7965
47.2106 26.3849 14.9887
54.6273 29.469 16.0602
49.1442 27.5063 15.672
47.5934 26.6396 15.6226
50.723 28.317 16.11
49.1973 27.4265 15.67
52.622 29.5415 16.7203
49.0639 28.6807 16.625
53.0439 30.3788 17.8926
54.9927 31.7552 18.6614
48.1162 28.0367 16.8062
50.8637 29.693 17.3195
46.754 27.5652 16.8952
49.2882 28.8837 17.4427
49.7383 29.9624 18.2427
45.3841 26.9542 16.4767
51.4742 30.8411 18.2435
43.332 27.0304 17.0653
46.2929 27.5322 16.6371
42.5883 25.8411 16.0256
42.1942 25.7936 16.1031
46.8247 29.316 18.4825
44.5365 27.2227 16.7594
47.9755 29.5199 18.1467
39.7035 25.7598 16.7751
45.2387 28.4826 18.0754
42.1682 27.0927 17.3731
42.2168 27.2544 17.9429
45.5561 29.2003 19.2116
44.4227 28.1074 18.2125
41.1744 26.7364 17.5666
43.5063 28.2905 18.5844
48.3641 30.6842 19.6094
46.772 31.6595 20.9881
42.2871 27.549 18.2632
41.8815 27.5664 18.5915
44.3972 29.7345 19.5699
39.4391 27.3876 19.0625
40.0905 26.5385 18.051
40.248 27.601 19.2166
43.0512 29.0382 20.1666
41.7984 28.6528 20.0623
45.6915 29.3859 19.3593
38.9584 27.9269 20.4667
43.2088 29.1052 19.9341
40.477 28.299 20.0182
47.6947 32.511 22.4741
39.9779 28.5601 20.8108
41.6936 28.9595 20.5128
39.4274 28.2882 20.231
43.8191 30.8867 21.9754
37.6241 27.4948 20.3454
41.6577 29.721 21.0998
38.7525 27.8675 20.3097
36.7246 26.9162 20.0683
40.4895 29.2878 21.6021
39.214 28.826 21.6404
38.3293 27.9116 20.6965
43.0442 31.7779 23.7055
41.0907 30.8339 23.3273
38.7756 28.76 22.4217
39.0289 29.1525 22.0537
39.4128 29.0738 21.7606
39.1858 28.9706 21.3021
36.2846 27.6668 20.8392
35.3355 28.7313 23.1231
38.701 29.649 23.2357
36.5588 28.04 22.0435
37.2917 28.6093 22.2976
37.3008 28.9941 22.882
40.9788 31.214 23.8924
36.3811 28.0974 22.2053
40.8328 32.7449 26.2594
39.3289 29.959 23.4353
37.6971 30.321 24.7239
38.4266 30.6259 24.5097
41.2645 33.4435 27.3501
40.4138 31.6871 25.2781
34.8957 28.3404 23.4564
37.6094 30.2372 24.2801
34.1883 28.9594 24.7169
33.3261 26.6881 21.7955
34.2213 27.7745 23.0044
32.9774 27.405 23.5824
37.3769 30.4031 25.3121
36.1531 29.3691 24.4197
35.9534 29.4463 24.4576
34.6961 30.0493 26.3377
36.9357 30.7584 26.3106
37.5587 31.7374 27.6166
34.4948 28.9072 24.6593
34.1154 28.7114 24.6006
34.3328 29.9344 25.7522
34.4241 29.5158 25.6723
34.3909 29.7596 25.5241
31.7224 27.9653 25.3567
32.3026 27.9587 24.7801
35.5422 30.9827 27.3888
36.05 31.2534 27.5224
34.0207 29.8654 26.8914
35.5639 31.8348 29.0456
36.8657 32.0602 28.1925
33.3284 29.4787 26.5137
33.0155 28.5717 25.3637
36.9277 33.0235 30.2801
35.1178 31.4275 28.1415
34.1176 31.487 30.044
34.8788 31.7134 29.0288
34.8749 31.6709 29.0007
33.2846 30.0661 27.2109
29.8184 28.0306 25.9747
32.5705 30.4469 28.8525
31.9841 29.2012 27.4807
33.0359 31.2602 29.2947
31.6959 29.7987 28.5863
31.5819 29.422 28.3463
31.727 29.8579 28.301
31.8125 30.2266 29.2323
30.0163 28.0579 27.2226
31.7032 29.8606 28.9707
32.6931 30.8635 29.1859
30.582 29.4375 28.6691
30.0821 28.8099 28.0665
30.3499 30.3684 30.9709
32.2532 30.6562 29.9813
31.7711 31.3202 31.0715
32.5985 31.7014 31.7733
29.6573 27.7744 27.3251
37.2875 37.0239 35.6881
31.1073 30.0892 30.0701
30.4445 29.4929 28.6919
28.5859 30.2104 32.0398
29.3745 29.2121 29.4487
28.2623 27.792 28.2573
29.4256 29.11 28.798
27.2678 28.6988 30.4631
28.8306 28.4702 29.018
29.0148 29.7473 30.9801
29.2178 29.6571 30.6911
31.6698 32.2151 32.5953
29.2201 30.3685 31.5773
28.2219 29.3134 30.7927
29.5166 30.9043 32.8183
28.7388 30.1202 32.6056
28.497 28.0885 29.0921
28.6632 29.8833 30.8356
27.6249 29.8624 31.767
27.5807 29.0662 30.8841
27.0135 28.3899 30.6832
26.5885 28.721 31.8042
28.4437 30.0318 31.6217
25.8437 28.2745 31.7038
26.5202 28.2669 30.8394
29.3895 31.8808 34.8398
25.7053 27.2339 29.6795
28.5625 32.0832 35.8644
28.532 31.0386 34.8421
27.0863 28.9109 31.3054
26.8763 29.3973 33.0782
26.0672 29.6602 33.9804
26.6917 28.795 32.3501
29.7551 32.3355 35.0976
26.4287 30.2425 33.5585
24.9883 28.0555 32.3902
24.7043 27.32 31.9814
27.4337 30.3866 34.1215
27.3127 31.1539 35.1847
26.8439 30.4452 35.5869
26.1113 29.2046 34.4408
27.4094 30.3843 34.459
26.3576 30.8729 36.4978
27.032 30.0905 35.1923
25.5568 29.1295 33.6254
25.9337 29.4378 34.6114
27.3362 31.9819 37.0371
24.2115 28.4429 34.5712
25.4521 29.5141 35.4395
24.1797 27.3632 32.04
26.129 30.8262 36.2202
25.8834 31.0279 36.4973
24.7248 29.1881 34.3723
21.3274 25.0211 31.5346
25.1431 29.3759 35.5069
25.8436 31.3507 38.3287
24.6271 29.6364 36.2252
24.1328 28.425 34.1325
24.766 30.0396 36.7373
23.7224 27.4804 33.043
22.6671 28.0803 35.4297
26.0494 32.3576 39.7947
24.2891 29.6398 37.8359
24.5121 29.0733 35.2397
23.1292 28.2857 34.8552
25.214 31.8492 40.5189
23.2887 27.6475 33.6984
22.4801 28.0965 36.2715
25.1165 31.2768 39.5159
23.2673 29.0099 36.4535
22.3691 26.6277 32.8063
23.295 30.2291 38.6897
22.6476 28.6645 37.1643
23.2112 30.1135 38.7064
21.7056 27.5945 35.2946
22.8073 30.5865 40.8573
21.3683 27.1043 37.342
23.7155 29.1261 37.2756
22.2036 28.3031 37.1176
25.2027 31.528 39.3073
21.9976 28.8281 38.3924
21.2085 27.8144 38.061
22.8694 29.8749 39.8945
23.9699 30.9422 40.2283
22.1968 28.282 37.0766
21.2183 28.1342 37.6536
22.4971 29.7847 41.1342
22.2646 27.7161 36.9099
23.681 30.4102 38.7741
20.7215 27.9712 38.0941
22.4739 30.6541 41.9184
21.3323 27.9748 37.4698
20.6889 26.82 35.7234
19.4506 26.3529 36.8904
22.4293 31.0692 42.3602
21.1208 29.0223 41.3725
23.3197 29.9534 39.2401
20.0429 26.6947 36.2356
18.9414 27.2529 39.3243
22.1182 30.6024 41.8656
21.0494 29.6405 42.1846
19.5183 26.2061 36.8068
19.3908 28.0518 41.2091
21.2276 27.8318 38.1386
20.0347 27.2949 38.4297
19.6196 26.8691 37.3965
20.0725 28.7804 42.1679
20.286 28.0778 40.1254
21.5625 29.7748 42.2638
21.4585 29.5938 41.1543
20.2091 29.3697 43.2331
21.1043 29.3521 41.9195
19.4534 27.6468 40.4522
19.532 28.3724 40.8689
18.3996 27.2737 42.2053
21.2934 28.9796 41.5718
21.4805 30.8831 44.7412
18.9869 26.5831 38.43
17.9326 26.5387 40.4228
19.7466 28.2357 41.6881
21.2413 31.1636 45.8269
21.0781 29.9857 42.009
18.2013 27.9224 43.7405
19.9725 29.0939 43.6068
19.4901 29.5401 45.0029
17.9503 25.6843 38.0929
16.828 25.2681 39.5723
19.7763 28.1578 40.8951
18.0731 26.8489 40.1542
17.4462 26.9603 41.957
19.0619 28.6868 44.2748
19.2997 27.8646 41.3053
20.7812 33.1274 50.6136
19.4294 28.5562 44.3539
17.7598 25.7802 38.7133
18.0159 27.5569 42.7776
20.0223 30.6283 46.5124
18.439 28.2945 44.7111
17.9484 26.4156 40.576
17.6176 26.3304 40.5518
17.3031 27.0859 42.3482
17.7401 27.565 42.7328
17.6204 26.3517 40.571
16.9974 27.083 44.535
18.7135 29.5793 46.7536
17.7354 28.1759 45.2689
19.848 31.2183 47.9709
16.9732 26.6223 43.7206
17.9799 28.4842 45.9168
19.2535 30.6607 48.6469
18.2007 28.5999 45.9063
17.2345 26.9529 43.0854
16.6102 26.1517 43.084
17.2896 27.598 45.1707
17.3499 26.6235 41.3461
15.6964 25.6519 42.5133
16.3589 26.4561 42.7443
17.821 29.0273 47.2695
17.622 28.8699 47.2893
15.9405 25.9268 43.4918
16.345 25.8799 42.5406
17.0498 27.4357 44.6869
16.6774 29.1291 50.2632
17.0212 26.4535 43.4638
17.0554 27.8667 45.1921
15.7557 25.7324 43.6577
16.5414 26.8607 44.0902
16.411 27.2754 46.0358
16.1368 27.374 46.6891
16.8787 26.9412 45.0815
16.3013 26.716 44.979
15.5558 25.123 42.2479
15.0704 25.2799 44.404
15.7985 25.901 43.8295
16.1479 26.5422 44.099
16.4446 28.4767 48.0344
15.4695 26.5929 46.2282
14.8894 25.6179 46.0418
16.0088 26.5116 46.5215
15.8451 26.7088 47.4146
16.2313 26.3523 44.8768
15.9695 27.2024 46.3616
15.1895 25.987 45.4237
16.0786 28.0231 48.5579
16.2065 28.3173 48.7323
13.9786 23.4972 42.4925
15.0309 25.537 44.6522
15.284 27.888 50.4735
15.5855 27.3779 49.3955
14.7329 24.8398 44.9749
15.1024 25.9526 45.3881
14.5469 26.6875 51.9854
18.817 31.7525 53.9308
15.2967 25.1715 44.6712
15.2197 27.0953 48.3731
14.8186 24.9211 44.2069
15.0523 26.6035 47.8033
15.4901 26.6681 45.3981
14.2245 25.7901 47.513
14.598 25.247 45.2906
14.6421 25.9206 45.9029
13.0866 24.1871 45.8767
14.0502 25.0829 46.5358
14.6045 26.1234 48.6282
16.1119 28.5452 50.0317
13.6456 24.4482 45.5098
13.5456 24.624 47.2924
14.2752 25.4003 46.5579
14.4466 26.5684 50.3974
15.6169 27.6275 50.1987
14.5785 25.989 47.6959
14.3028 27.7268 51.8301
13.5867 24.8153 48.6506
14.4046 26.2304 49.6719
13.9723 24.1095 43.7201
13.2245 25.0675 48.0275
13.4691 24.8713 45.6658
12.8306 24.0679 46.8563
13.957 26.2571 49.8705
13.2629 24.1334 46.2493
14.3307 27.216 50.9973
14.2587 26.9715 50.839
13.3526 25.2138 48.4689
12.8257 24.1586 48.3073
13.881 25.3214 47.2023
13.215 25.8652 51.5383
13.434 24.9519 48.0187
13.9764 26.0141 47.8103
12.7529 25.4632 51.1175
13.7171 26.5776 51.3861
13.58 27.0051 53.5326
13.2327 24.1844 48.1711
13.3314 24.6916 47.4137
12.807 24.6348 48.5678
13.5919 26.2156 52.2622
13.366 24.6085 48.2057
12.3191 23.5015 47.3245
12.2323 23.2064 45.3992
11.9523 23.5343 47.9314
13.5434 27.3037 55.3398
14.1035 26.3339 49.1609
11.5591 23.0048 46.4604
11.3402 22.3996 47.4109
13.4956 26.8994 53.6425
12.3568 22.2192 43.6711
11.4263 23.398 48.883
13.5141 26.9518 53.4423
12.7752 25.1564 52.0601
12.8949 25.0075 48.3771
11.5058 23.7025 49.6116
12.9819 24.9775 49.064
11.2812 23.2925 50.7163
13.3257 25.1892 48.8441
11.7799 23.0761 47.6738
11.565 23.993 49.9774
11.87 23.6676 48.248
11.7645 24.0414 49.1228
11.5938 23.869 50.5964
11.6858 24.7142 51.5028
11.4105 22.4946 48.4627
12.2048 25.2183 51.6802
11.318 24.1245 53.2232
12.1569 23.0494 47.5849
11.3192 23.1621 50.9817
12.8745 26.1448 53.6405
11.6974 23.9076 49.8099
10.6567 22.49 50.4089
11.7503 23.5644 50.2093
11.7075 22.5114 45.4661
11.3322 23.2397 47.7512
11.4848 24.376 51.5122
10.9775 22.5146 48.6137
11.1386 22.7522 48.2675
11.0608 24.1081 53.1387
11.761 24.591 52.7712
11.921 24.8009 51.5502
11.6922 24.9021 54.044
11.8335 24.3152 50.785
10.2928 21.6786 48.2153
11.043 23.24 51.2465
11.3855 24.4982 53.9762
11.3705 22.8224 47.918
10.6971 22.7072 50.9375
11.4688 24.5577 54.4219
11.4196 24.0393 53.1192
11.8309 25.8382 57.7281
12.2257 24.2878 50.4081
10.7522 24.0872 58.8249
14.0845 28.73 55.8824
10.8677 23.1586 50.6067
10.8485 23.0785 52.0274
11.5804 25.6259 52.9408
10.072 22.1793 51.8417
11.1441 24.4095 54.4853
10.9295 23.3819 53.2744
10.8301 23.8356 54.25
11.2945 22.9683 48.9472
9.81245 21.7522 49.0778
10.2066 22.6957 52.0833
11.1368 24.4677 54.6177
10.3467 22.236 51.9471
10.7406 22.5853 49.0092
10.2375 25.3037 59.6319
10.6634 21.986 50.2
10.3478 21.775 48.5024
10.4731 22.9618 50.9627
10.0906 22.9583 52.8579
9.63042 22.1556 52.6537
10.5536 23.9185 56.0219
9.55202 19.3922 43.9948
9.1392 20.1409 46.3863
10.051 23.3763 54.5125
10.0184 22.065 51.284
9.75493 21.2256 47.7241
9.71922 22.1575 50.7476
9.383 20.6421 48.6609
9.79929 21.1962 46.3433
8.90395 21.877 53.2815
10.5967 23.9809 55.7564
10.1382 22.2774 52.5771
9.67766 21.8474 50.4634
9.91376 22.1252 53.1329
10.2622 22.7053 52.0772
9.304 21.1385 50.1696
10.1521 23.1548 51.6746
9.31678 22.2196 53.9846
9.57156 21.7659 52.7992
9.49024 20.9875 50.7613
10.1135 23.8549 56.3484
10.1337 22.615 51.0223
8.99147 20.7912 49.2581
9.47421 22.2869 51.326
9.16988 21.9511 54.9128
9.12544 20.9421 51.681
9.4593 21.7792 51.3516
8.76242 20.4188 49.8619
8.90905 20.9423 51.3688
9.33054 21.8517 54.4229
10.0974 23.0429 54.0828
9.24545 21.0158 49.1705
9.0293 22.4621 54.542
8.96395 20.93 52.1376
8.91621 21.3237 52.5938
8.53659 19.5803 50.1583
10.0722 23.6021 55.477
9.38884 22.6826 56.0679
9.3254 21.98 56.1291
9.63686 22.254 55.6301
9.73096 21.2727 51.0411
8.67615 20.7988 51.9822
9.17209 21.6208 54.0595
9.43453 22.7307 53.5476
8.86198 21.6233 50.9952
8.17779 20.7632 53.7762
8.99377 21.4265 52.6696
8.94532 23.4202 60.4388
9.36796 20.869 50.1389
8.22778 20.9525 53.6784
8.78258 20.5889 49.749
8.31532 20.6238 53.5441
9.41206 23.7618 57.8739
8.67213 20.5958 54.5813
9.36256 22.1614 52.4887
8.19092 19.8231 49.4624
8.29511 21.4972 56.7952
9.17694 21.7977 53.7343
8.36147 20.3394 53.566
9.28041 23.5789 58.4077
8.46811 20.9411 53.8552
8.4664 20.9939 54.4239
8.8034 21.8587 53.522
8.33455 20.1631 49.3386
7.91534 20.9672 55.171
8.41621 20.538 52.394
8.19799 21.8413 59.9974
8.99667 20.0593 51.0104
8.76663 21.981 54.2033
8.02666 20.9947 56.095
8.80196 22.5621 59.4942
8.93246 21.6429 54.9098
8.26318 19.9254 51.3931
8.63072 22.7291 59.4462
8.44827 21.1588 56.6994
8.72993 22.4662 62.2873
10.1279 24.464 57.3688
7.77248 20.1161 53.9924
8.09793 21.0193 56.1801
8.66593 21.8566 56.0508
8.36594 20.6944 54.5332
8.61426 23.2125 62.6567
8.77779 20.9772 53.6027
7.81646 19.9615 52.4245
7.96947 20.8128 57.2756
8.56015 21.235 53.9746
8.00444 20.8226 58.0457
8.3555 20.0556 50.1987
7.70439 20.3536 54.5794
8.26468 21.3389 56.9775
8.33679 21.2191 55.7204
8.28987 22.3449 59.8078
8.1586 21.3695 58.0365
8.38856 21.9462 56.6153
7.5957 19.8847 57.1946
8.13362 20.6879 55.2072
7.11448 17.748 50.1318
7.57695 19.4998 55.8574
8.73901 23.1618 57.0169
7.87725 21.6465 60.4668
8.23349 20.3075 55.1555
7.7102 19.7322 54.7388
8.43474 21.9247 55.8461
7.47544 20.4765 56.3658
7.54249 19.5368 53.3451
7.43978 19.5287 52.6172
7.13314 19.2187 53.486
7.36522 19.9054 53.2756
6.78726 17.2695 48.7408
7.34747 21.2913 60.6954
8.29675 21.1378 57.7791
8.00729 21.6434 59.2171
7.81289 20.453 55.992
7.4193 18.8196 52.3034
7.49372 19.0621 53.2263
7.77678 20.9287 55.7652
7.49421 19.5585 54.5398
7.53201 20.2237 52.425
6.6655 17.71 52.8807
7.40908 20.9341 59.847
7.70762 19.4631 53.2155
7.4099 20.3615 59.2125
7.98851 20.7672 53.5554
7.0187 19.3498 55.7168
7.19542 19.6498 55.0026
7.33761 19.6139 53.5931
6.87332 20.1223 58.2684
6.84205 19.1122 57.7443
7.2285 17.7576 52.8425
7.44275 20.3319 58.0399
7.61796 20.9934 57.2773
7.23452 19.2705 54.643
6.86192 18.676 56.5156
7.61273 18.4538 51.2027
7.23092 20.8942 58.965
7.85266 21.6953 60.597
7.66018 20.5675 59.1103
7.55533 20.6526 56.6473
6.76605 18.969 54.3974
7.36098 20.3043 57.8758
7.19285 19.4848 58.7743
7.48967 20.1806 55.0805
6.8704 19.8348 60.1313
7.34168 18.6887 51.7198
6.56849 18.9673 58.3371
7.66913 20.515 56.0573
6.96841 19.4598 55.0707
6.90574 19.3844 55.4765
6.89373 20.4105 61.1444
7.14793 18.9711 57.3335
7.35282 20.2951 56.3545
6.6902 18.2835 53.8634
6.87385 18.88 52.7975
6.51006 18.596 54.37
6.64008 19.3106 57.2027
6.77167 18.8276 55.7084
6.59547 18.3122 55.4894
7.1302 20.3623 57.1883
6.66695 19.0371 55.0648
6.71936 19.4074 58.8216
6.95252 19.4825 59.5042
7.58926 20.4759 56.356
6.62929 19.5592 58.5385
6.8374 18.8363 57.6716
6.65796 18.7752 54.7284
6.63512 18.8175 53.4171
6.17131 17.822 55.3424
6.50286 18.3619 55.9283
6.37307 18.546 57.0689
6.81407 19.3172 58.9277
6.56512 17.4658 50.1333
6.04839 19.3579 66.1901
8.35147 22.7957 59.9903
6.53231 17.4914 52.1239
6.07316 18.6959 57.9107
6.91367 19.3881 56.6998
6.28897 18.6486 59.8197
6.85736 18.0517 51.4432
6.39211 19.5127 56.0569
5.9238 16.7548 54.4936
6.70165 19.0974 55.6383
6.42772 19.5142 58.9733
6.43148 17.7232 55.5909
6.51127 17.5755 54.6572
6.52929 18.85 56.1614
6.33601 16.6447 50.7722
5.9391 16.6924 51.3949
6.2319 18.2745 54.1464
6.25302 18.4789 51.0709
5.57057 17.1393 53.4222
6.19062 17.8271 54.3893
6.14363 18.3017 52.9248
5.69489 17.5666 55.286
5.81397 16.7396 53.4876
5.89121 17.2191 54.8729
6.11907 18.0435 55.6004
6.44244 18.5999 54.6092
5.82577 17.1904 51.4902
5.86546 17.5289 55.8632
6.16995 18.1666 53.7839
6.1581 19.6954 60.683
6.32252 18.5529 57.9835
5.87626 17.0612 53.3255
5.93173 18.1693 57.9786
6.47647 19.1932 58.3331
6.14878 17.4634 54.7815
6.22668 19.485 59.3438
6.08767 17.5141 56.315
6.17995 17.792 53.5996
5.84008 18.5172 57.2726
5.72379 16.68 51.7422
5.82888 18.9079 60.6117
6.32979 17.7211 55.8927
5.90658 18.5402 59.7605
6.00914 17.8772 56.9301
6.09526 17.6527 53.4426
5.58078 16.4325 53.4448
5.78806 17.9964 53.8998
5.45751 16.0248 54.4248
5.72386 16.8014 56.2047
6.0903 17.5981 54.9015
6.01023 18.4963 57.7272
5.87415 16.9916 52.9457
5.96863 18.9982 59.948
5.97602 17.1974 57.7481
6.11441 18.3269 55.2365
5.68546 18.8928 62.4745
6.18476 18.5318 56.7491
5.59412 16.5276 50.872
5.12454 16.5223 57.0796
6.11994 17.9269 53.4227
5.46575 16.7029 54.7145
5.74316 17.1348 54.3939
5.52772 17.1761 55.9671
5.79562 18.2264 60.8812
5.97645 17.1505 54.6761
5.43113 16.9729 54.1081
5.63541 16.4625 53.9722
5.71309 17.4506 54.9339
5.3714 16.5284 52.8729
5.5461 17.9311 57.8381
5.53195 16.2259 52.967
5.20248 15.1773 50.0493
5.35047 17.5927 56.8228
5.41904 15.3929 51.4068
5.42689 16.7518 52.3292
5.38745 17.5483 57.9553
5.67168 17.0023 54.6952
5.32371 16.2742 54.3999
5.55251 17.7671 58.1582
5.79124 17.4653 55.3932
5.39609 16.3975 54.7351
5.88363 19.4694 59.7295
5.58324 16.4498 53.2766
5.19329 17.3476 59.3791
5.45992 15.9569 52.0628
5.29637 17.4347 60.2675
5.64672 17.0401 53.113
5.0943 16.1921 56.1971
5.71808 17.6036 56.4143
5.4615 17.3105 58.0288
5.5987 17.6945 60.5574
5.93374 17.8348 57.9232
5.52221 16.7309 54.4667
5.45971 17.1467 54.9713
5.25089 16.7143 56.5884
5.38334 16.7343 54.0959
5.28937 18.2481 70.0485
6.71424 18.7206 60.8366
6.07099 19.6843 65.4377
6.21309 19.0031 60.1334
5.42688 16.4338 55.6627
5.38246 17.675 61.3593
6.10389 17.8479 55.2974
5.29949 17.356 52.0904
4.53632 16.3142 58.4499
5.48078 17.9722 61.9152
5.5228 17.4895 57.948
5.28682 17.354 61.2734
5.38024 15.3732 52.666
5.17107 16.6384 53.0736
4.86395 15.6645 56.0534
5.44251 17.4827 59.2167
5.25035 16.3771 54.1085
5.06917 15.6541 48.8271
4.51073 15.6697 56.1126
5.32878 17.2515 57.99
5.40264 18.0319 59.5615
5.13456 16.2497 54.1802
5.15442 17.3485 58.5182
5.10503 16.9293 58.8853
5.20452 16.541 57.8874
5.12861 16.5534 59.0994
5.47801 17.3576 58.9906
5.27626 16.3773 52.4011
4.87923 16.684 58.2612
5.20289 16.384 57.0548
5.21542 16.4973 56.4681
5.10998 16.5376 54.8134
5.07649 17.7304 64.7737
5.5284 16.9384 59.1921
5.49948 16.6023 55.8076
5.15057 16.7493 53.1234
4.78957 15.6365 56.0799
4.98319 16.4799 55.7216
4.92104 16.3987 54.2372
4.91373 17.1598 56.0459
4.51879 15.2657 58.06
5.0445 16.0243 57.5501
5.07969 16.1369 57.5053
5.19702 17.9576 58.4106
4.83882 14.6616 54.65
5.22017 17.5709 59.9582
5.03546 16.2516 54.6666
4.87855 16.2195 54.8406
4.87925 16.0529 54.5199
4.59089 14.9717 53.9277
4.88416 16.6259 55.7595
4.95465 16.5317 57.3384
4.95856 16.9809 60.661
5.21948 16.5118 61.7142
5.38729 17.3043 63.4824
5.44314 17.3276 61.9431
5.56206 17.7691 65.3586
5.82546 19.8061 67.084
6.01535 21.9179 76.2538
6.31117 19.3472 67.4815
6.02031 19.6578 70.3731
6.48505 22.6328 72.2455
5.89251 20.0693 77.0562
6.82409 22.5253 71.873
5.8225 19.9402 66.5515
5.54997 20.5502 77.1326
6.37193 19.2513 69.7055
6.37983 22.5763 77.0075
6.29948 21.384 74.4468
6.2645 21.5178 78.3254
6.64309 23.1219 80.6716
6.52893 19.4506 67.0516
5.72312 20.5173 74.3653
6.10813 19.8407 66.1788
5.56432 18.3552 69.2738
6.12116 20.4518 70.2122
5.88485 19.4555 71.9922
6.09591 19.4693 66.3956
5.54298 18.9949 66.1898
5.42321 18.9825 70.2536
6.09103 20.8044 67.6153
5.39393 18.3513 70.0926
5.92372 19.6397 71.7328
5.89075 19.5559 65.826
5.40321 19.7297 70.779
5.75634 17.6644 60.7198
5.22571 19.1377 70.047
5.7914 20.1735 68.9249
5.30489 20.0006 79.6264
6.12048 17.9976 64.6979
5.50573 19.4455 68.8775
5.68096 21.3396 77.536
6.23542 22.5716 80.0919
6.37451 20.3693 69.9758
5.44748 18.2396 63.5277
5.01468 18.387 70.9275
5.7405 19.9201 77.9612
6.38373 20.0203 66.0016
5.53769 19.3037 63.5925
4.96624 18.4819 72.5281
5.65269 19.7651 71.3023
5.77288 19.4286 69.9676
5.51715 18.7033 70.7108
5.79335 19.4877 67.1131
5.41366 21.1252 74.6944
5.58103 16.7217 67.5435
5.9232 18.8688 61.2651
5.15221 19.6408 66.5658
5.44908 20.378 77.6039
6.12883 21.1123 74.4984
5.80858 20.1349 77.9713
6.12088 21.0057 76.0711
6.17941 20.9661 76.8857
6.21092 22.2816 76.5369
5.84868 19.3477 72.3958
5.82839 21.492 76.4112
5.82232 18.9786 69.1308
5.50837 20.0399 70.8131
5.54373 19.5996 73.4441
5.55474 19.3598 73.8083
5.84473 20.342 72.7741
5.43536 18.9565 71.1233
5.38105 16.774 67.9058
5.58602 20.4874 73.49
5.69172 18.1644 60.3359
4.7606 19.0012 70.3891
5.432 19.5606 72.8285
5.4462 19.6261 77.7476
5.87362 19.8018 71.1576
5.54586 19.8828 74.4086
5.75456 19.4142 67.5747
5.19058 20.1379 73.695
5.5821 20.1791 79.3967
5.9113 18.8275 72.9324
5.64385 18.8917 64.2851
4.8691 18.676 67.0803
5.15907 18.8443 73.4001
5.31259 18.2576 69.4336
5.37247 18.2288 67.2851
5.17877 17.379 65.9406
5.15685 18.4864 68.4515
5.2668 18.5793 69.3629
5.47384 21.2846 73.296
5.29997 17.3168 66.8398
5.13279 17.9562 69.8429
5.47174 19.1274 66.9206
5.17566 20.033 69.3476
5.23854 19.2665 74.3754
5.54293 18.1385 67.6961
5.1458 17.9876 66.7121
5.26187 19.4158 72.6449
5.43692 18.8741 74.9053
5.63256 20.0707 70.373
5.20513 18.9165 68.3259
5.13058 18.6662 75.1467
5.64251 19.9915 73.9512
5.56062 18.5336 71.4398
5.47196 18.7983 67.4232
5.12737 19.6542 77.5059
5.61995 19.0023 74.6648
5.71223 20.8288 70.8708
5.20947 18.9607 72.4525
5.32333 18.1353 69.2077
5.32766 18.8726 63.5452
4.66756 17.9862 75.5345
5.7759 19.5593 71.0348
5.2528 20.8556 76.4393
5.64105 20.2695 77.3848
5.61505 17.9445 65.0932
4.87689 18.2657 70.6877
5.50945 20.5138 70.6671
5.00707 19.0203 78.033
5.58722 17.0547 71.8867
5.65952 20.9298 74.1328
5.36701 18.6835 69.8036
5.21019 20.5692 76.4755
5.50261 18.131 69.4183
5.1157 18.0784 70.6214
5.44199 19.6232 65.9567
4.7997 17.7152 71.5217
5.34162 19.208 70.4248
4.91838 16.4391 61.8283
4.56772 16.3704 58.271
4.36599 15.6252 67.0155
5.09637 18.7951 71.4864
5.31623 20.1174 72.0388
4.91122 17.2719 62.1962
4.46745 16.7619 70.2397
5.19054 19.3315 71.7329
5.03438 17.9404 70.0356
5.07944 17.6698 64.5498
4.74016 19.4377 74.757
5.36119 19.7379 85.65
6.1183 20.5428 69.8968
4.97878 17.7436 64.5272
4.67354 16.419 66.321
4.93324 16.5866 56.91
4.07025 16.2581 61.2071
4.54064 16.8468 65.1641
4.61795 15.3905 61.6087
4.54075 15.9215 56.7292
4.2102 15.1585 57.5667
4.19378 15.5819 57.4117
4.18543 15.9278 62.0048
4.50739 15.2074 59.5199
4.29685 16.6454 59.9912
4.28334 14.748 55.0496
3.89911 14.5425 62.2183
4.58596 15.6732 57.6645
4.16107 15.8302 60.3721
4.16507 13.7853 58.7673
4.41836 17.725 63.0939
4.37198 16.0801 62.4392
4.31382 16.2616 64.3473
4.54926 16.029 60.7736
4.3066 14.7091 58.2732
4.15635 15.9472 61.0278
4.28653 14.8687 61.2807
4.41763 16.4401 57.6308
4.18277 16.4576 67.6109
4.82967 16.2692 59.0402
4.14124 14.5223 57.6604
4.14811 15.6402 58.5307
4.13866 15.7359 62.7438
4.43853 13.6127 51.6322
3.81646 14.8173 60.1985
4.2667 14.9977 54.4914
3.84814 15.6113 69.012
4.83028 16.1966 56.397
3.85826 14.6829 61.6826
4.46809 15.9427 58.0869
4.13277 15.245 63.4035
4.53452 16.7976 62.0971
4.17284 14.1268 56.5903
4.15243 15.7632 60.5228
4.23579 14.0312 54.3403
3.88633 15.419 57.4042
3.99985 16.4466 65.0911
4.57199 14.2856 57.5065
4.10704 16.5402 67.3791
4.92842 18.4968 67.9268
4.47729 16.1146 60.2462
4.26029 15.2025 65.547
4.57474 17.1883 64.3384
4.38719 15.6882 58.6349
4.10213 15.9613 61.1863
4.29264 16.4654 60.8369
4.20991 15.8581 62.0187
4.25895 15.3309 60.4725
4.26392 14.5764 56.7043
3.91409 15.2155 61.0475
4.2111 15.3105 60.9828
4.11083 15.3112 58.798
4.07999 15.5464 56.7771
4.01938 13.8031 57.239
4.0787 13.8194 55.5825
3.79988 13.5455 55.1894
3.87105 15.2317 56.6158
3.88383 14.7682 60.2674
4.12806 15.3098 60.5395
4.2774 15.9511 63.1393
4.384 14.6685 53.666
3.80552 14.4029 60.5057
4.23872 14.9701 53.1173
3.68833 14.0784 57.1662
4.00188 14.9674 55.0906
3.86467 14.2971 59.4594
4.11383 13.5681 57.2412
4.14244 15.6861 56.8691
3.93052 14.6642 56.1584
3.85386 14.0351 58.2104
4.11641 14.5581 57.5506
4.06585 14.1928 54.54
3.8887 14.2982 59.6335
4.21047 14.9675 54.0736
3.71503 13.502 54.3524
3.83138 15.3391 57.5594
3.8705 15.0923 56.6317
3.84599 13.1163 56.1898
4.00688 15.4134 58.4193
4.00463 14.4915 58.4104
3.95653 13.4837 55.2866
3.85529 14.4497 58.5075
4.00213 14.4498 53.0188
3.65504 13.9911 53.1443
3.66144 13.9938 58.6413
4.17746 14.1472 54.5377
3.60078 15.0233 57.3909
3.81081 14.9319 69.2449
4.89666 16.3088 56.9441
3.81372 14.3916 57.1776
3.94632 14.2596 53.3807
3.70528 14.5476 57.7924
3.82038 13.7944 51.2199
3.49188 13.3793 54.06
3.65978 14.6402 59.6554
3.98818 14.538 56.5345
3.83548 13.3731 56.7065
3.8901 15.2502 58.1158
3.89901 14.2857 55.2486
3.6711 14.161 60.3343
4.02521 14.5815 55.0307
3.71342 15.1315 58.0512
3.98614 13.328 53.5796
3.60722 14.5446 58.6809
4.20685 13.8545 53.5969
3.55422 14.3247 52.7678
3.61028 14.5314 57.4781
3.89793 13.223 57.032
3.87695 14.8235 53.773
3.63304 15.266 61.0257
4.01252 13.0855 54.9596
3.85008 15.3071 56.5348
3.77551 14.77 63.2486
4.30196 14.6255 61.4609
4.21332 15.0422 53.3178
3.59027 13.7453 56.072
3.67747 13.3789 54.4255
3.76189 13.911 55.1519
3.7874 14.2042 54.5757
3.83269 13.9413 59.037
3.91989 13.6466 52.4489
3.58479 14.4703 59.7334
3.99258 15.0624 56.799
3.88069 14.0105 59.4385
4.03233 14.7281 59.0323
4.01496 16.1082 57.4112
3.83079 14.4989 56.2044
3.78121 13.773 55.1199
3.72073 14.157 56.7177
3.814 13.8217 53.768
3.72316 14.45 54.8034
3.59958 12.8806 53.6517
3.6547 14.453 59.839
3.98114 14.788 55.613
3.77058 14.4104 55.7356
3.73778 14.0544 56.2633
3.99352 14.1963 55.2873
3.5916 14.3493 61.0018
4.11153 14.2562 55.024
3.72496 14.2945 57.0595
3.85866 14.2937 52.7055
3.6207 13.0557 54.5625
3.66476 14.6384 63.5622
4.24378 14.0813 55.5408
3.84469 14.5511 58.8426
4.1137 14.6646 55.1891
3.85331 14.503 56.2412
3.83527 14.1855 58.1856
4.0098 14.6621 58.9273
3.99888 13.5407 52.5203
3.5981 15.0232 60.0102
4.06915 13.9886 52.2221
3.56937 12.8085 51.1647
3.50596 13.1916 53.3278
3.52787 14.4626 55.949
3.81645 13.7607 54.8685
3.722 14.5131 52.9254
3.49952 12.7144 56.9331
4.00727 14.2369 59.0167
3.91768 14.3508 51.5407
3.6029 13.7984 57.1576
3.86702 13.5371 50.1946
3.44217 13.5237 50.8524
3.49328 12.0993 52.0626
3.52196 13.8862 57.4884
3.88578 14.0081 59.5626
3.98432 14.0814 55.77
3.75753 14.8672 57.8283
3.81993 15.0637 59.9532
4.06849 14.1346 55.4846
3.63371 14.7713 54.6929
3.7353 13.7902 54.5981
3.70939 12.816 49.7174
3.49312 12.7837 57.8799
3.89094 14.1999 53.3364
3.62375 14.8595 63.0641
4.37541 14.2771 52.341
3.52745 13.9514 56.5136
3.81538 14.7421 62.8918
4.04229 14.6396 59.2493
4.03902 14.9686 60.7692
4.11868 15.2993 61.0858
4.08838 15.0594 58.983
3.97027 16.0067 65.3902
4.42555 0 0